### header ###
fiducial parameters:
Omega_m = 0.31
Omega_nu = 0
Omega_de = 0.69
Omega_k = 0
H_0 = 100
w_de = -1
zeff = 0
beta = 0
fgrowth = 0
b_1 = 2
gamma = 0.55
Lx = 3500 Ly = 3500 Lz = 3500
nx = 700 ny = 700 nz = 700
xoffset = -685.467585 yoffset = -31.7331281 zoffset = 572.489161
bins = 400 dk = 0.001
kx_ny = 0.628318531 ky_ny = 0.628318531 kz_ny = 0.628318531
############################
A(data) = 8.02416328 (not used)
A(ran) = 8.01643326 (used)
Ngal = 476337
weighted Ngal = 0
Nran = 23820508
weighted Nran = 0
SN(data) = 3494.72327
SN(ran) = 69.826041
SN(data+ran) = 3564.54931
############################
13 columns: k_central k_mean P_0(k) sigma^{lin}_{P_0(k)} P^img_1(k) sigma^{lin}_{P_1(k)} P_2(k) sigma^{lin}_{P_2(k)} P^img_3(k) sigma^{lin}_{P_3(k)} P_4(k) sigma^{lin}_{P_4(k)} N_modes
### header ###
0.00050000 0 0 0 0 0 0 0 0 0 0 0 0
0.00150000 0.00179520 -633.58499970 0 2093.14550069 0 8248.64947107 0 -7787.64215492 0 17084.81864167 0 3
0.00250000 0.00253879 4495.65175682 0 -4196.67684206 0 -1010.31199380 0 -6266.47080971 0 -17446.77293999 0 6
0.00350000 0.00331552 11648.41787896 0 -15281.13692871 0 -13934.52078427 0 16353.82375714 0 12417.94445386 0 7
0.00450000 0.00420575 27277.33653022 0 -21659.90325673 0 -11377.92098364 0 -4499.50492585 0 -19085.14484340 0 24
0.00550000 0.00557378 60160.03749989 0 -25336.57943601 0 -10984.96417583 0 -18511.81986429 0 -17788.24343740 0 45
0.00650000 0.00659388 85953.12888817 0 -18554.55903809 0 1267.13899690 0 -50188.41249146 0 -44764.08056281 0 40
0.00750000 0.00754703 99349.64540950 0 -14152.64558319 0 10584.07958344 0 -59843.81190307 0 -21212.47061081 0 57
0.00850000 0.00846663 102894.78236994 0 -2792.00849859 0 15163.10594614 0 -16623.87775947 0 -36045.28910761 0 75
0.00950000 0.00948925 104019.61984826 0 -1552.05205913 0 16508.28268836 0 -10951.06071723 0 -17332.94944085 0 112
0.01050000 0.01054430 105999.90514208 0 -2192.78535173 0 14796.72271789 0 23723.89532618 0 -28607.34418744 0 105
0.01150000 0.01145670 101279.33017890 0 -5616.62499378 0 -10035.46803333 0 15529.59989764 0 -45455.43652449 0 144
0.01250000 0.01249090 107691.09203488 0 -6116.71761654 0 -197.33983078 0 252.34603324 0 -34872.61918607 0 169
0.01350000 0.01339930 105736.60525789 0 9335.98498524 0 -6441.84536251 0 -14049.11934614 0 -27130.40677988 0 180
0.01450000 0.01448870 95865.29551232 0 20882.84750096 0 9686.83374176 0 -37863.03267309 0 -16000.61659543 0 267
0.01550000 0.01550050 81336.74450153 0 17314.45865841 0 3962.99542677 0 -38260.86130383 0 5510.80678549 0 238
0.01650000 0.01653350 72560.59840378 0 7492.03322691 0 34649.62256422 0 -7191.59676528 0 -1598.52260639 0 315
0.01750000 0.01747870 70764.77804144 0 1216.28380900 0 17809.83447079 0 5321.93506873 0 -12703.27826443 0 297
0.01850000 0.01844180 70218.58025814 0 1849.85330745 0 34400.71670230 0 11736.44286127 0 -20044.56178894 0 388
0.01950000 0.01947590 75354.14595552 0 -2417.15494186 0 31650.57266385 0 1935.89634362 0 -27326.71909892 0 399
0.02050000 0.02045430 73673.03487831 0 -2185.80978710 0 25496.90669939 0 1418.42017089 0 -14767.71322687 0 462
0.02150000 0.02154770 75250.50899522 0 -1786.45317554 0 25945.66802429 0 9322.00063899 0 -19066.54333771 0 571
0.02250000 0.02255340 75284.27958592 0 4040.82279792 0 24761.59360818 0 2183.90534723 0 -16583.57449713 0 510
0.02350000 0.02348930 73390.24770244 0 7910.76640690 0 17526.60440193 0 10316.55007118 0 861.67710543 0 555
0.02450000 0.02439640 67091.53428286 0 4724.49456617 0 17952.99963070 0 7972.86000449 0 4122.84658017 0 592
0.02550000 0.02547300 65055.99808820 0 -2076.35985627 0 14822.41051147 0 1152.42971177 0 -7978.10828645 0 837
0.02650000 0.02652900 63924.29576848 0 2622.70157979 0 17960.30736508 0 -1743.04966225 0 -4819.36224521 0 723
0.02750000 0.02749970 61467.23616798 0 7317.59982172 0 16881.19858825 0 -2746.23550779 0 -7617.85912615 0 826
0.02850000 0.02848090 59392.06105047 0 815.30399463 0 15889.22900775 0 -7991.57223343 0 -378.74880061 0 831
0.02950000 0.02946900 57819.79092622 0 -2421.45100389 0 17862.53873693 0 -1326.58630885 0 -8427.75539734 0 996
0.03050000 0.03053250 62334.19920128 0 -22.82017217 0 22127.37681058 0 -1020.56718104 0 -16942.42854450 0 1041
0.03150000 0.03150510 58474.94038574 0 5747.93169380 0 20528.75455326 0 -2039.34507440 0 -14500.75947549 0 1036
0.03250000 0.03246190 53915.57847192 0 5391.84572764 0 23559.47130262 0 -2239.87594919 0 -10374.13723256 0 1059
0.03350000 0.03345080 52522.56928648 0 2299.10181464 0 21021.36228444 0 5080.62482163 0 -1124.60495951 0 1302
0.03450000 0.03451200 48281.86888094 0 -399.58580868 0 18525.99244006 0 13841.95614878 0 -2778.02415235 0 1339
0.03550000 0.03553350 52901.13207203 0 -2948.83690733 0 17408.90558911 0 12973.99660625 0 -5391.96752321 0 1365
0.03650000 0.03647120 51255.78460398 0 -1792.22185677 0 12426.24869747 0 4351.78904045 0 -1142.11030504 0 1308
0.03750000 0.03744890 54727.06915787 0 1344.36846251 0 12105.15127773 0 -1015.83597665 0 -4243.46848675 0 1579
0.03850000 0.03847530 50408.64103211 0 4113.18044061 0 17093.34433178 0 -11024.63631565 0 5486.14871812 0 1662
0.03950000 0.03950240 49146.94961902 0 3879.16685556 0 20538.83036884 0 -4490.12666673 0 1339.76237538 0 1683
0.04050000 0.04050350 46282.31774194 0 1315.84615377 0 22699.70528045 0 -3205.61519220 0 6970.79246375 0 1822
0.04150000 0.04152450 46783.00827024 0 2021.90616281 0 25937.36378067 0 3805.67983574 0 -3726.33555609 0 1887
0.04250000 0.04250150 44702.73988331 0 1362.43849661 0 23964.38622124 0 3561.05896352 0 -2727.02502423 0 1920
0.04350000 0.04349210 42058.77943987 0 3188.95134334 0 20545.36304049 0 2509.03309320 0 -1864.42448691 0 2005
0.04450000 0.04448520 40947.22875133 0 765.47521124 0 18087.74982374 0 3161.66913499 0 -830.65023682 0 2151
0.04550000 0.04548030 40690.79370853 0 -227.23289332 0 19898.84999433 0 3545.85666155 0 -3407.97300058 0 2274
0.04650000 0.04648670 39819.84463829 0 -902.52180446 0 15442.79287106 0 2886.74330974 0 -8722.55604563 0 2311
0.04750000 0.04749250 39272.31817601 0 44.09265479 0 14519.02881144 0 3128.72896865 0 -7104.39113501 0 2568
0.04850000 0.04851840 39078.66321493 0 1585.14723801 0 13772.42194892 0 -1092.47528735 0 -4400.89480102 0 2493
0.04950000 0.04949480 37740.68348385 0 1119.75528123 0 14278.42719313 0 1195.21317487 0 -6193.02807919 0 2644
0.05050000 0.05050630 37374.74314859 0 1265.51136515 0 13115.61164068 0 -1154.94312951 0 -685.73564960 0 2829
0.05150000 0.05149060 37008.02775060 0 1093.67220566 0 13612.20540880 0 422.21210445 0 506.64522459 0 2784
0.05250000 0.05249300 35883.85461176 0 -289.90003733 0 16031.17621193 0 1122.93303846 0 2081.02130501 0 3055
0.05350000 0.05348950 37305.65184172 0 -133.38276093 0 15097.88995296 0 2522.13165346 0 1497.29941290 0 3009
0.05450000 0.05448610 36463.60153926 0 193.23864166 0 15516.09166136 0 2674.90759131 0 -1295.84953515 0 3336
0.05550000 0.05550870 37331.22891205 0 689.18910771 0 15090.80366508 0 1423.26984916 0 -300.70994805 0 3349
0.05650000 0.05647670 35157.17793391 0 1607.35832160 0 14751.10473964 0 -1995.27722162 0 -2094.62919222 0 3324
0.05750000 0.05747970 34674.86746481 0 2922.54013588 0 14304.11498671 0 -543.64782690 0 846.98634486 0 3639
0.05850000 0.05849280 33488.80003024 0 203.76399364 0 14020.33130161 0 1123.15448495 0 2192.46425431 0 3846
0.05950000 0.05951020 32398.95109834 0 -1350.49145813 0 11259.89000107 0 4838.30699298 0 -795.95399977 0 3787
0.06050000 0.06049470 34893.65660323 0 -1189.00160065 0 11564.04676384 0 3563.06305432 0 -3575.36440719 0 3930
0.06150000 0.06148310 33100.38287560 0 1087.55806789 0 10193.37045757 0 1357.13485302 0 -4089.16456807 0 4083
0.06250000 0.06249100 33488.57858374 0 1894.45263182 0 10008.78373052 0 -2063.17271741 0 -3661.91677030 0 4303
0.06350000 0.06350600 31119.98685854 0 807.05179094 0 10471.59583561 0 -3592.06147302 0 -495.55518405 0 4470
0.06450000 0.06451750 31354.16652845 0 389.38709029 0 11540.68415848 0 -899.45698495 0 -2096.02430514 0 4479
0.06550000 0.06550280 30870.74882687 0 601.75760201 0 11935.96615450 0 997.13039110 0 -861.36597310 0 4636
0.06650000 0.06648880 30013.30799291 0 320.54380350 0 11567.92207753 0 2774.15991099 0 -1899.28016544 0 4653
0.06750000 0.06749660 30384.45232083 0 -240.92382296 0 10076.33598423 0 2486.79986497 0 -1224.52161867 0 5220
0.06850000 0.06852730 30364.96502915 0 -512.19910272 0 9882.23813016 0 2057.02757713 0 -745.51734576 0 5029
0.06950000 0.06949320 29859.62412443 0 1246.25659229 0 10024.21855131 0 950.63327026 0 605.61741444 0 5040
0.07050000 0.07048030 28937.96380652 0 1511.60485657 0 9553.97691627 0 -1007.27264063 0 3529.31460827 0 5475
0.07150000 0.07148790 28793.02707465 0 799.90681973 0 10830.46095531 0 200.98484011 0 3217.46257975 0 5509
0.07250000 0.07249820 27821.76274156 0 -16.63240345 0 10050.96928808 0 959.40144428 0 2472.67157850 0 5916
0.07350000 0.07351270 28261.88765310 0 -543.40202129 0 10251.84340493 0 1205.56579858 0 1779.72120205 0 5721
0.07450000 0.07449140 28164.56191794 0 262.84370440 0 9542.29561358 0 411.36233336 0 -271.69381363 0 6028
0.07550000 0.07549160 28240.51806620 0 898.66974265 0 9587.89144718 0 201.83740912 0 1139.14292199 0 6183
0.07650000 0.07648840 26452.66977773 0 1446.68781615 0 8935.45470725 0 1098.20410821 0 779.24032546 0 6330
0.07750000 0.07749960 25812.02506372 0 731.49535361 0 8749.25142077 0 1770.92977614 0 2217.53199770 0 6583
0.07850000 0.07848650 25002.85956598 0 1006.45550306 0 9876.02655594 0 850.33350865 0 2203.97947213 0 6549
0.07950000 0.07947320 24509.80894180 0 1040.30913620 0 8488.21029085 0 1247.79564544 0 3812.20143506 0 6828
0.08050000 0.08048110 23917.66101050 0 -123.55053649 0 9353.32424590 0 393.13728671 0 3851.18709075 0 7147
0.08150000 0.08149960 24127.03867282 0 -112.90449618 0 9532.96164376 0 -520.42916175 0 5131.10355048 0 7386
0.08250000 0.08250610 24162.80228199 0 522.31367144 0 9557.53113253 0 165.73720128 0 3034.56991840 0 7227
0.08350000 0.08350160 24047.76082712 0 111.56142318 0 10059.30674866 0 -873.85001934 0 3945.72260005 0 7798
0.08450000 0.08449610 23842.03703199 0 47.96210014 0 9413.39160804 0 -368.26552347 0 1092.81520772 0 7371
0.08550000 0.08548940 23349.87219380 0 335.55676872 0 9383.04236572 0 1060.98227386 0 2511.55758326 0 8256
0.08650000 0.08650700 23660.78307471 0 -152.98077586 0 8466.89606557 0 1284.58898081 0 1453.22048780 0 8037
0.08750000 0.08749060 23085.90797013 0 -11.25789698 0 7378.49760822 0 1817.64391455 0 550.87805500 0 8155
0.08850000 0.08849210 22776.87938444 0 852.51475664 0 6415.00604715 0 969.42632717 0 -649.05303747 0 8718
0.08950000 0.08949900 21921.43156895 0 1223.22615666 0 6216.54569710 0 -998.49117982 0 -305.69027976 0 8571
0.09050000 0.09049190 20508.27075234 0 1428.46276950 0 6706.35213011 0 -960.41899093 0 476.35798728 0 8932
0.09150000 0.09150830 19850.57465812 0 1001.04777962 0 7232.84117523 0 -371.41670711 0 -194.77658758 0 9285
0.09250000 0.09250820 18899.79412594 0 15.02459116 0 7215.95587988 0 457.07664084 0 -318.43563285 0 9204
0.09350000 0.09350330 18830.59209582 0 -5.04581343 0 6384.83396202 0 852.91778927 0 -1131.21513742 0 9349
0.09450000 0.09448040 19175.38429068 0 295.50706262 0 6892.81008005 0 819.06969230 0 -809.88852056 0 9564
0.09550000 0.09549270 19042.73783935 0 76.10695332 0 5973.18706992 0 885.00981552 0 -633.52188745 0 10155
0.09650000 0.09649430 18682.66583625 0 563.96332848 0 6261.79828864 0 527.31836226 0 662.28114393 0 9913
0.09750000 0.09749140 18012.56873822 0 857.55598613 0 5921.83362741 0 -353.82278297 0 704.82544482 0 10476
0.09850000 0.09850240 17768.86686896 0 439.67648239 0 6959.89729613 0 35.94752048 0 511.62444906 0 10575
0.09950000 0.09950330 17226.65512259 0 388.47251626 0 5989.33051950 0 202.98118027 0 727.36537645 0 10882
0.10050000 0.10051200 16849.97463226 0 418.00019209 0 6368.28083642 0 -304.29073790 0 -157.25801493 0 10875
0.10150000 0.10150300 16502.74652595 0 633.67136384 0 7065.83729999 0 -496.18519933 0 -791.22168815 0 11118
0.10250000 0.10250800 16022.09690557 0 487.23543918 0 6250.79239777 0 -32.19975997 0 -628.61131139 0 11575
0.10350000 0.10349800 15380.89857533 0 -131.91899959 0 6310.93726618 0 281.91799837 0 -308.76506436 0 11364
0.10450000 0.10450100 15743.29576664 0 -87.58408233 0 6137.50037022 0 1201.65726792 0 -416.54307414 0 12093
0.10550000 0.10551000 15868.19159059 0 -323.97068803 0 5914.39302513 0 968.41320945 0 -907.85312886 0 12067
0.10650000 0.10649700 15762.00799558 0 27.07814541 0 5084.76587112 0 750.46778219 0 -462.90954155 0 12054
0.10750000 0.10749900 15976.92182031 0 139.12708304 0 5494.25365988 0 237.82578648 0 67.77956855 0 12807
0.10850000 0.10850100 16008.03505305 0 72.26607456 0 5022.88264771 0 400.26122050 0 360.79059698 0 12736
0.10950000 0.10950300 15719.04737529 0 211.99737437 0 4861.78032159 0 12.46987366 0 414.85122291 0 12933
0.11050000 0.11050200 15563.14904184 0 390.24740993 0 4714.87271590 0 -35.38482493 0 -192.52890564 0 13428
0.11150000 0.11150900 15362.18634638 0 274.81842370 0 4950.03782272 0 80.04449347 0 -834.48569014 0 13453
0.11250000 0.11250000 14971.22255704 0 398.44535923 0 4779.02576590 0 72.71084985 0 -348.99082042 0 13668
0.11350000 0.11349100 14782.88231187 0 327.23813109 0 4855.80126619 0 -144.04983866 0 -1523.23079763 0 13791
0.11450000 0.11448600 14785.53966983 0 -203.55694116 0 4406.47525273 0 37.86048604 0 -840.89767344 0 14205
0.11550000 0.11549300 14963.91482266 0 -408.51342418 0 4827.76613975 0 103.28696412 0 -1157.16866680 0 14776
0.11650000 0.11649800 15222.01071418 0 2.29632266 0 4712.78004651 0 -105.08212014 0 -1034.12635002 0 14553
0.11750000 0.11747300 15249.47007973 0 408.00852617 0 5212.03117258 0 -37.09062729 0 -894.37035892 0 14568
0.11850000 0.11849100 14720.10223015 0 538.25781918 0 4328.59251995 0 138.30108761 0 -580.80876345 0 16015
0.11950000 0.11950300 14348.07211624 0 506.12482532 0 4443.36823902 0 556.70652679 0 -476.28823163 0 15270
0.12050000 0.12050700 14089.86550147 0 85.55585387 0 4147.16140547 0 720.32780680 0 -633.90831159 0 15999
0.12150000 0.12150000 13832.21250294 0 12.86371625 0 4010.82786998 0 733.09530455 0 -401.80802427 0 15670
0.12250000 0.12250700 13694.47278220 0 76.96173680 0 3327.01216151 0 255.72973571 0 -1295.82739050 0 16887
0.12350000 0.12352200 13723.48227322 0 93.39074164 0 3281.28346001 0 216.41523198 0 -1042.67197031 0 16407
0.12450000 0.12449800 13658.48772654 0 85.53780598 0 3011.50626580 0 124.54483126 0 -1175.29406252 0 16306
0.12550000 0.12549900 13382.78683855 0 300.00574819 0 2870.07946089 0 270.23448122 0 -472.34205507 0 17523
0.12650000 0.12650100 13159.56877021 0 271.35389326 0 2335.37475075 0 480.47578488 0 -1166.49156429 0 17154
0.12750000 0.12750600 12816.43742408 0 162.88939934 0 2273.33651479 0 670.85665951 0 -677.75471787 0 18007
0.12850000 0.12850300 12626.87922318 0 277.12589619 0 1867.40294229 0 486.18024662 0 -1044.02057947 0 17496
0.12950000 0.12949900 12267.47155957 0 348.88674057 0 2164.86094854 0 -481.42357588 0 -855.53085792 0 18405
0.13050000 0.13049000 12397.12848320 0 18.86768438 0 2136.79260513 0 -446.39738355 0 -1227.47792940 0 18100
0.13150000 0.13148800 12017.67991166 0 99.21179497 0 2445.15685133 0 -543.39205619 0 -1279.07496305 0 19059
0.13250000 0.13249300 12397.12848320 0 35.39955112 0 2540.66672521 0 -545.04293983 0 -1216.98136547 0 18957
0.13350000 0.13349100 12291.38778118 0 -95.10794849 0 2835.40093956 0 -284.06824385 0 -1284.37860664 0 19468
0.13450000 0.13450700 12419.71602583 0 206.53096761 0 3361.98963561 0 -210.59340359 0 -1642.32472338 0 19953
0.13550000 0.13551000 12422.15193729 0 -5.77838059 0 3401.55105219 0 152.94755888 0 -1294.78659197 0 19956
0.13650000 0.13649900 12317.62919100 0 185.59541584 0 3506.47240217 0 488.15997830 0 -1141.27988068 0 19723
0.13750000 0.13749600 12177.56428204 0 169.43535777 0 3569.45178574 0 -50.69176038 0 -581.41109792 0 20946
0.13850000 0.13851100 11925.11527618 0 497.75968392 0 3736.23421448 0 71.63893809 0 -592.23097374 0 20955
0.13950000 0.13949800 11675.10218177 0 419.53260184 0 3679.52176676 0 150.19719340 0 357.93615164 0 20506
0.14050000 0.14048300 11306.28304206 0 49.31248088 0 3499.80686263 0 595.72318499 0 262.32219791 0 21447
0.14150000 0.14148400 11368.17733780 0 -60.84729670 0 3516.73644727 0 570.74402019 0 237.54122773 0 21771
0.14250000 0.14249400 11329.64564743 0 36.21812810 0 3107.86870870 0 714.14834232 0 -4.15797907 0 22470
0.14350000 0.14350900 11217.26155052 0 227.93266425 0 2858.15456706 0 176.82392012 0 145.49920598 0 22519
0.14450000 0.14449900 10957.06191728 0 135.49093157 0 2436.67545051 0 62.91427830 0 392.57370538 0 22218
0.14550000 0.14550500 11015.18055026 0 113.66295043 0 2569.79801181 0 124.99879658 0 192.69388328 0 23559
0.14650000 0.14650700 10839.36310446 0 -5.53483373 0 2550.94184264 0 88.09518085 0 534.26070992 0 23044
0.14750000 0.14750500 10730.11247548 0 109.40840961 0 2334.01285480 0 335.99855448 0 259.26734349 0 23649
0.14850000 0.14849900 10769.24207139 0 173.90636253 0 2383.67223161 0 48.43223105 0 574.50307447 0 23640
0.14950000 0.14949500 10506.98298573 0 269.16157295 0 2375.77766401 0 -136.93365550 0 197.06523712 0 24457
0.15050000 0.15050000 10267.89827592 0 389.90748956 0 2493.56505543 0 -142.21626167 0 795.61629387 0 24591
0.15150000 0.15149900 10093.97419767 0 219.72585710 0 2531.47669561 0 65.99194171 0 485.22470499 0 25020
0.15250000 0.15250500 9744.88594079 0 160.76351297 0 2401.55403619 0 246.34483319 0 790.86515929 0 25297
0.15350000 0.15350100 9824.38523299 0 -63.99659805 0 2500.27488427 0 244.47250307 0 251.41595796 0 25452
0.15450000 0.15450400 9700.14267620 0 87.10642224 0 2356.17964908 0 77.52587175 0 67.48150156 0 26061
0.15550000 0.15549900 9712.56582464 0 105.15043638 0 2491.22879490 0 -204.90222863 0 104.51034528 0 26128
0.15650000 0.15649500 9696.74347248 0 171.96870569 0 2405.62865172 0 -447.23112961 0 207.94047456 0 26331
0.15750000 0.15749700 9585.85413942 0 183.13182357 0 2688.53762316 0 -352.17522104 0 47.79911552 0 27345
0.15850000 0.15849900 9468.44320704 0 77.34528213 0 2823.28781621 0 -218.07275900 0 212.73257674 0 26980
0.15950000 0.15949700 9475.55163957 0 118.39194036 0 2733.07051359 0 265.21318192 0 -96.52852777 0 27777
0.16050000 0.16050000 9385.78830227 0 89.86642065 0 2606.39204533 0 332.22842788 0 -362.77475759 0 28224
0.16150000 0.16150500 9193.73882829 0 272.58956471 0 2472.74908477 0 182.19399766 0 -271.44579356 0 28075
0.16250000 0.16249700 9035.40458338 0 197.49041440 0 2345.26233681 0 167.67928705 0 -158.25895310 0 28590
0.16350000 0.16349900 8899.43643461 0 42.66377127 0 2363.91920413 0 -53.10464140 0 -92.18053654 0 29163
0.16450000 0.16449100 8864.44788818 0 141.38030114 0 2335.61834189 0 -66.88226734 0 -291.09917011 0 28996
0.16550000 0.16550500 8750.27007465 0 209.92463517 0 2347.79789920 0 -22.05130994 0 -5.91561098 0 30777
0.16650000 0.16650700 8600.99299145 0 137.66553617 0 2600.18047111 0 146.04507159 0 231.76922480 0 29211
0.16750000 0.16749900 8594.59318770 0 -52.19626787 0 2385.35522498 0 197.19921225 0 -92.15805972 0 30922
0.16850000 0.16850800 8609.16436717 0 -8.87016121 0 2276.53641666 0 416.44453045 0 49.20463643 0 30867
0.16950000 0.16949900 8582.22540088 0 61.14038114 0 2339.52687256 0 158.40400055 0 0.69169699 0 30852
0.17050000 0.17049200 8582.25861786 0 174.39575929 0 2221.24122652 0 -137.67882296 0 97.78424013 0 31257
0.17150000 0.17149500 8368.18628981 0 101.53919764 0 2294.38500427 0 -85.61032971 0 233.62383921 0 32608
0.17250000 0.17250900 8415.16616402 0 126.90102198 0 2549.96747806 0 -98.66371489 0 157.59682807 0 32361
0.17350000 0.17350400 8282.17647062 0 156.68779021 0 2559.05785674 0 25.95928698 0 257.55445484 0 32508
0.17450000 0.17449800 8234.10043626 0 161.38909932 0 2771.59113163 0 16.08997026 0 116.76098691 0 32791
0.17550000 0.17549800 8033.58063379 0 199.24648511 0 2677.90819134 0 -23.82620361 0 591.12152679 0 33633
0.17650000 0.17650100 8035.29684414 0 22.36354950 0 2626.79833998 0 156.01570009 0 400.84362478 0 33984
0.17750000 0.17750300 7987.61941347 0 -44.47409638 0 2650.05022209 0 122.52302475 0 431.07328600 0 34069
