### header ###
fiducial parameters:
Omega_m = 0.31
Omega_nu = 0
Omega_de = 0.69
Omega_k = 0
H_0 = 100
w_de = -1
zeff = 0
beta = 0
fgrowth = 0
b_1 = 2
gamma = 0.55
Lx = 3500 Ly = 3500 Lz = 3500
nx = 700 ny = 700 nz = 700
xoffset = -685.467585 yoffset = -31.7331281 zoffset = 572.489161
bins = 400 dk = 0.001
kx_ny = 0.628318531 ky_ny = 0.628318531 kz_ny = 0.628318531
############################
A(data) = 8.06577947 (not used)
A(ran) = 8.06483759 (used)
Ngal = 479253
weighted Ngal = 0
Nran = 23820508
weighted Nran = 0
SN(data) = 3490.15515
SN(ran) = 70.2476602
SN(data+ran) = 3560.40281
############################
13 columns: k_central k_mean P_0(k) sigma^{lin}_{P_0(k)} P^img_1(k) sigma^{lin}_{P_1(k)} P_2(k) sigma^{lin}_{P_2(k)} P^img_3(k) sigma^{lin}_{P_3(k)} P_4(k) sigma^{lin}_{P_4(k)} N_modes
### header ###
0.00050000 0 0 0 0 0 0 0 0 0 0 0 0
0.00150000 0.00179520 23768.18462545 0 -44588.36276794 0 -23922.53283342 0 -44109.48471953 0 -37084.53751509 0 3
0.00250000 0.00253879 50951.51711796 0 -60416.58326594 0 -38487.29034637 0 -20700.92920419 0 945.79023538 0 6
0.00350000 0.00331552 72497.26470582 0 -34910.70798345 0 -10671.14127349 0 -33818.53386334 0 58091.61650052 0 7
0.00450000 0.00420575 94696.50090447 0 -3241.15735486 0 -6339.32670702 0 -53039.09323927 0 28925.56280273 0 24
0.00550000 0.00557378 98976.17589337 0 -8977.44096296 0 529.16965497 0 -30479.56359103 0 1686.11576803 0 45
0.00650000 0.00659388 108873.06270927 0 -1897.84076322 0 -16889.39210862 0 -18666.27879551 0 31137.03823876 0 40
0.00750000 0.00754703 97907.14293213 0 16766.60002638 0 23211.24668707 0 11633.80241020 0 -22146.42120926 0 57
0.00850000 0.00846663 96290.80495510 0 11778.84986532 0 10899.81799797 0 -4069.37832362 0 -18361.78986300 0 75
0.00950000 0.00948925 83575.34713337 0 -7737.38487257 0 5265.47728448 0 6227.78410680 0 -26847.95177376 0 112
0.01050000 0.01054430 88673.15620312 0 -6431.43737718 0 5298.70533126 0 -1404.85657299 0 -34832.98026322 0 105
0.01150000 0.01145670 97560.57916530 0 -7217.01882307 0 10399.54821802 0 -39239.10120155 0 -47691.82469136 0 144
0.01250000 0.01249090 97561.02205830 0 11182.49445059 0 10616.23361472 0 -40308.46633254 0 -15289.10900258 0 169
0.01350000 0.01339930 99728.09747180 0 -2299.10181464 0 717.92843401 0 -19822.67239957 0 -18346.17788501 0 180
0.01450000 0.01448870 100473.04348560 0 -6780.91316544 0 14876.66490309 0 1818.17538615 0 -33875.33488966 0 267
0.01550000 0.01550050 111068.70472080 0 -9527.75765109 0 2989.27303756 0 17467.47818740 0 -40341.24041400 0 238
0.01650000 0.01653350 101642.28098645 0 2637.20632531 0 5196.95066618 0 19531.13808710 0 -44457.93078157 0 315
0.01750000 0.01747870 100718.95981982 0 9157.28873499 0 -13132.77374415 0 127.28301719 0 -30343.48471900 0 297
0.01850000 0.01844180 91579.75219126 0 11013.25396574 0 -5679.29435225 0 1486.82499362 0 -17301.61476162 0 388
0.01950000 0.01947590 78036.19519634 0 11987.12029516 0 -9525.50996916 0 -1035.57128841 0 -1533.15160066 0 399
0.02050000 0.02045430 72094.12135917 0 7461.19680229 0 -2034.76113192 0 -10535.66030701 0 4144.54833682 0 462
0.02150000 0.02154770 67261.16229908 0 1955.02932090 0 2673.99966068 0 1780.23052899 0 6725.82834946 0 571
0.02250000 0.02255340 66158.13730065 0 3144.39630827 0 11923.23298096 0 -1613.59204047 0 5414.62149979 0 510
0.02350000 0.02348930 65538.75145029 0 5619.64773846 0 13543.55699492 0 -12013.58315148 0 10113.48363400 0 555
0.02450000 0.02439640 63142.03602005 0 3550.17486823 0 25159.64368541 0 -665.11676632 0 13117.38321265 0 592
0.02550000 0.02547300 61873.81193532 0 -1168.45136579 0 19450.75300892 0 7195.22848782 0 12800.27182984 0 837
0.02650000 0.02652900 66363.86109578 0 -6437.78181931 0 26324.34153308 0 4249.63577167 0 12447.06466813 0 723
0.02750000 0.02749970 69478.06317427 0 694.75184370 0 25081.58379544 0 5675.38582159 0 2329.34033372 0 826
0.02850000 0.02848090 71808.12320910 0 1350.30322861 0 30075.42373514 0 -369.58977352 0 15168.08849231 0 831
0.02950000 0.02946900 65898.82345339 0 1667.73570883 0 23263.95095321 0 3204.23115159 0 21091.67154704 0 996
0.03050000 0.03053250 68330.97032306 0 2408.19743108 0 28534.15612039 0 1416.61538195 0 22535.50270339 0 1041
0.03150000 0.03150510 67540.40633101 0 2478.19666858 0 29015.35935701 0 3315.76267949 0 14918.40756765 0 1036
0.03250000 0.03246190 67430.67959205 0 230.85132907 0 26678.65592728 0 4709.53585534 0 8625.95001159 0 1059
0.03350000 0.03345080 62150.84150228 0 2883.95308389 0 25945.77874753 0 -1091.88623967 0 4356.42834455 0 1302
0.03450000 0.03451200 59837.16850818 0 3329.76917039 0 21345.55995513 0 245.30846359 0 688.22138652 0 1339
0.03550000 0.03553350 58215.07292224 0 -1842.39056052 0 19664.33815467 0 2762.70005480 0 -10224.88229400 0 1365
0.03650000 0.03647120 56670.26216355 0 2240.25240823 0 17986.54877490 0 3036.48543059 0 -9004.55708644 0 1308
0.03750000 0.03744890 55998.50421680 0 3288.10401209 0 21221.88208691 0 3395.99274513 0 -9689.57967832 0 1579
0.03850000 0.03847530 51617.73890230 0 4552.59672336 0 16546.92510198 0 -1145.53165341 0 140.73367737 0 1662
0.03950000 0.03950240 51298.96667077 0 865.43394524 0 21267.94295815 0 4722.99980232 0 -1240.41040478 0 1683
0.04050000 0.04050350 48761.30054559 0 1443.45469731 0 23509.75656418 0 5503.46583413 0 4031.86528714 0 1822
0.04150000 0.04152450 48204.36260721 0 840.74819706 0 19365.82827756 0 3498.41174970 0 -3459.89113166 0 1887
0.04250000 0.04250150 47054.05878180 0 2213.28022497 0 19935.72083597 0 2701.51438785 0 818.88921340 0 1920
0.04350000 0.04349210 46107.37500981 0 1506.48944250 0 17427.83926455 0 -2774.64709328 0 -2067.82309383 0 2005
0.04450000 0.04448520 41721.29497940 0 1142.12137737 0 13083.28045221 0 4007.51724486 0 -3965.36490428 0 2151
0.04550000 0.04548030 41908.97088507 0 1909.25633010 0 11586.08069023 0 2562.13596303 0 -7101.41267964 0 2274
0.04650000 0.04648670 39071.68765029 0 1278.56563611 0 9746.50250021 0 202.40099045 0 -9418.14163539 0 2311
0.04750000 0.04749250 38617.94377923 0 1078.22299084 0 8585.69103855 0 2879.31377979 0 -5026.50329792 0 2568
0.04850000 0.04851840 36846.81470124 0 1051.66934146 0 9173.04465320 0 -2369.01247355 0 -2071.66519054 0 2493
0.04950000 0.04949480 38020.14896227 0 245.07594477 0 10215.49296256 0 1382.43511523 0 2414.25399276 0 2644
0.05050000 0.05050630 37787.51941783 0 -896.13196580 0 11656.27922958 0 -1274.82319032 0 1218.01109168 0 2829
0.05150000 0.05149060 38585.16969776 0 539.90427388 0 13647.52612497 0 1762.88019600 0 5672.05305182 0 2784
0.05250000 0.05249300 38872.82869655 0 -120.33291890 0 12259.27803921 0 879.55780278 0 -1475.42049906 0 3055
0.05350000 0.05348950 37909.53643733 0 619.63829936 0 12228.05408322 0 153.00956390 0 437.57938407 0 3009
0.05450000 0.05448610 37886.50600171 0 735.93424863 0 12246.43414242 0 -709.03846441 0 -3177.74615063 0 3336
0.05550000 0.05550870 37528.31629382 0 -366.67553762 0 11968.62951272 0 124.15951435 0 -4186.10277186 0 3349
0.05650000 0.05647670 36891.21472376 0 711.16213631 0 11082.28991098 0 -1305.10599870 0 -2770.02993383 0 3324
0.05750000 0.05747970 37755.29895261 0 1372.99042216 0 13363.85316311 0 -837.66787629 0 -1785.86634232 0 3639
0.05850000 0.05849280 37093.28465170 0 -27.70915720 0 12935.68636238 0 -2313.19688414 0 -4843.32275612 0 3846
0.05950000 0.05951020 36969.82822997 0 1159.47171036 0 16133.15232350 0 -734.75283157 0 -2482.83597268 0 3787
0.06050000 0.06049470 36027.46266466 0 2118.52326918 0 18076.23460593 0 -940.37476131 0 -304.94289783 0 3930
0.06150000 0.06148310 34202.07919505 0 1081.07190002 0 16140.01716489 0 1844.47215759 0 513.10592612 0 4083
0.06250000 0.06249100 33835.36379706 0 -176.25701709 0 15790.79604011 0 5626.44614589 0 2753.94184587 0 4303
0.06350000 0.06350600 33940.10798984 0 -1030.92755538 0 12620.45727479 0 5351.77498412 0 -1357.51131207 0 4470
0.06450000 0.06451750 34144.61382925 0 -114.48008800 0 10623.99531441 0 3864.44066355 0 -948.43209208 0 4479
0.06550000 0.06550280 33986.72247733 0 46.07858697 0 8533.09749566 0 -55.12522996 0 -1729.53035365 0 4636
0.06650000 0.06648880 33091.85718549 0 1143.70471982 0 11504.92054931 0 -1475.65301788 0 1678.38728531 0 4653
0.06750000 0.06749660 33242.21935653 0 772.23708001 0 9814.94053992 0 -1191.62574163 0 2236.46567314 0 5220
0.06850000 0.06852730 32371.38100954 0 881.41352442 0 10897.79176253 0 1697.21023750 0 1776.57666180 0 5029
0.06950000 0.06949320 31716.45299652 0 938.32416676 0 11940.94870067 0 1540.91330036 0 2983.99153863 0 5040
0.07050000 0.07048030 30978.81471710 0 847.59532273 0 11300.52543316 0 2183.25208007 0 1073.44417545 0 5475
0.07150000 0.07148790 29875.45754892 0 1084.29726824 0 10197.32327753 0 910.49277109 0 2140.20288117 0 5509
0.07250000 0.07249820 28996.42568157 0 859.39509929 0 8633.94423011 0 1342.17614219 0 1484.56623936 0 5916
0.07350000 0.07351270 28462.85034856 0 118.30004006 0 8572.16065762 0 129.63477898 0 1291.86349822 0 5721
0.07450000 0.07449140 27625.78259227 0 101.67084758 0 8720.03155557 0 -762.94850672 0 -6.59874021 0 6028
0.07550000 0.07549160 27972.34635909 0 1012.50985027 0 8925.71106141 0 -973.87629452 0 -500.57869782 0 6183
0.07650000 0.07648840 27117.11999010 0 1442.44711575 0 8740.13889745 0 -472.39188053 0 -1102.24772123 0 6330
0.07750000 0.07749960 26136.11201117 0 637.40827346 0 8684.37866966 0 -73.51315051 0 1142.47569176 0 6583
0.07850000 0.07848650 26064.91696258 0 -46.07747973 0 8608.09035166 0 1095.92320929 0 892.23229300 0 6549
0.07950000 0.07947320 25845.46348468 0 60.34715979 0 9311.91375108 0 2543.32408317 0 -250.84684046 0 6828
0.08050000 0.08048110 25980.43512422 0 135.67141047 0 8756.49272120 0 648.79062338 0 -369.17788303 0 7147
0.08150000 0.08149960 24832.56721027 0 803.11225777 0 7424.64705807 0 1137.68137512 0 -818.68548263 0 7386
0.08250000 0.08250610 24197.23721217 0 822.74902583 0 6901.03681739 0 3.25965921 0 881.53421276 0 7227
0.08350000 0.08350160 23628.67333274 0 571.67520271 0 5984.68014308 0 476.04685495 0 -964.86231488 0 7798
0.08450000 0.08449610 23345.22181738 0 193.56416801 0 6724.05677749 0 -296.58993599 0 -508.12559441 0 7371
0.08550000 0.08548940 22635.92868950 0 1048.67206313 0 6475.89276133 0 11.44202974 0 -1755.35101512 0 8256
0.08650000 0.08650700 21773.28386288 0 833.03410836 0 6469.14971552 0 -114.08480600 0 -1092.24609022 0 8037
0.08750000 0.08749060 21331.94099560 0 107.57627203 0 5568.67075499 0 1163.57954287 0 -702.07065040 0 8155
0.08850000 0.08849210 21197.63369555 0 -119.48920775 0 6298.10444172 0 995.53819079 0 -2.92123360 0 8718
0.08950000 0.08949900 21262.07462600 0 210.35645583 0 6124.33537601 0 974.59599563 0 -70.38997985 0 8571
0.09050000 0.09049190 20925.58667476 0 415.53438535 0 5319.85347167 0 746.93571057 0 -852.04750454 0 8932
0.09150000 0.09150830 20221.16536980 0 1025.01493392 0 5470.80247592 0 -928.06344335 0 -349.28202257 0 9285
0.09250000 0.09250820 20071.46753825 0 710.70042037 0 5900.18723239 0 -919.36059604 0 -211.83018227 0 9204
0.09350000 0.09350330 19100.53537490 0 331.82982419 0 5945.57269182 0 -236.84256403 0 -1072.19410998 0 9349
0.09450000 0.09448040 19041.40916037 0 358.14652582 0 5095.69425571 0 672.79985251 0 -284.54767551 0 9564
0.09550000 0.09549270 19206.27607692 0 -315.27005519 0 5676.23839060 0 361.08954975 0 -2480.30041030 0 10155
0.09650000 0.09649430 18862.48039130 0 16.11543660 0 5580.51814255 0 -478.51155445 0 -1925.52157526 0 9913
0.09750000 0.09749140 18928.69289372 0 819.15827090 0 5988.88762651 0 -589.79506228 0 -2123.56117697 0 10476
0.09850000 0.09850240 18653.32417548 0 137.44187521 0 5841.90251454 0 -607.24947512 0 -1796.69507600 0 10575
0.09950000 0.09950330 18590.98698675 0 -126.54227865 0 6656.93634444 0 -301.27131492 0 -2346.20348442 0 10882
0.10050000 0.10051200 18749.87484790 0 444.00133246 0 6953.80751748 0 -443.82528250 0 -1569.51311537 0 10875
0.10150000 0.10150300 18455.68317746 0 569.69547103 0 7262.68109062 0 763.93394363 0 -675.92778427 0 11118
0.10250000 0.10250800 18072.24856899 0 368.55008222 0 6758.81280510 0 795.35055807 0 -558.25333057 0 11575
0.10350000 0.10349800 17753.14416772 0 381.90552041 0 6776.28493366 0 778.19841969 0 27.46235508 0 11364
0.10450000 0.10450100 17207.94289365 0 446.80705957 0 6481.40677909 0 1206.21906574 0 98.82282419 0 12093
0.10550000 0.10551000 16870.34770993 0 71.95981406 0 5854.29244601 0 1287.42349596 0 747.53140164 0 12067
0.10650000 0.10649700 16823.84394569 0 -277.24658453 0 5716.04339833 0 874.82216946 0 473.99515316 0 12054
0.10750000 0.10749900 16821.85092722 0 -9.79417993 0 5085.97275452 0 671.53317855 0 558.81248297 0 12807
0.10850000 0.10850100 16638.05033524 0 555.06892995 0 5357.49937605 0 387.11837094 0 612.65387687 0 12736
0.10950000 0.10950300 16081.99818284 0 678.09795994 0 4333.85187424 0 58.65575145 0 1261.33709869 0 12933
0.11050000 0.11050200 15480.43877545 0 350.79007321 0 4865.37882716 0 104.87384971 0 962.50169523 0 13428
0.11150000 0.11150900 15224.66807214 0 334.80717233 0 4717.29755504 0 -44.88631903 0 476.11439613 0 13453
0.11250000 0.11250000 14844.99805410 0 291.66385868 0 4818.69790572 0 -546.69493069 0 269.22800690 0 13668
0.11350000 0.11349100 14828.50029012 0 526.14580306 0 5038.02958806 0 -609.35653853 0 -186.86984043 0 13791
0.11450000 0.11448600 14447.83376286 0 167.68703768 0 5182.40163137 0 -612.20434048 0 -490.52281242 0 14205
0.11550000 0.11549300 14460.23476666 0 -150.70762757 0 5312.18035057 0 -551.29991058 0 -1486.40424528 0 14776
0.11650000 0.11649800 14500.53802900 0 101.62556178 0 5081.96457294 0 23.18721974 0 -1632.44820964 0 14553
0.11750000 0.11747300 14742.35760303 0 -122.98695516 0 5211.10109730 0 -179.13692878 0 -2063.33880228 0 14568
0.11850000 0.11849100 14635.73111503 0 113.46807751 0 5135.78714388 0 323.13140581 0 -1811.90845030 0 16015
0.11950000 0.11950300 14308.43319339 0 393.01327667 0 4892.18492555 0 484.62458499 0 -2262.13132207 0 15270
0.12050000 0.12050700 14190.62365732 0 338.38464048 0 4403.12033831 0 805.79840377 0 -2015.60600999 0 15999
0.12150000 0.12150000 13708.64535797 0 231.02073564 0 4377.84222075 0 512.87783623 0 -1584.66005572 0 15670
0.12250000 0.12250700 13693.69771946 0 162.23723941 0 4023.33959703 0 723.21214741 0 -1410.25986750 0 16887
0.12350000 0.12352200 13669.89222110 0 -34.97647759 0 4157.21507641 0 139.97079419 0 -517.15396807 0 16407
0.12450000 0.12449800 13512.99737842 0 63.67583280 0 4026.73880075 0 176.30684255 0 -699.73438987 0 16306
0.12550000 0.12549900 13652.95156413 0 258.69158260 0 4165.04321006 0 -170.84597195 0 -565.92423720 0 17523
0.12650000 0.12650100 13445.78836677 0 138.81705795 0 4572.72620988 0 -405.79849014 0 -337.87309907 0 17154
0.12750000 0.12750600 13363.41027012 0 244.04400410 0 4466.91907391 0 -256.69967136 0 -190.52260039 0 18007
0.12850000 0.12850300 13426.63324484 0 -77.17332892 0 4920.54114941 0 -190.24468503 0 -414.87226033 0 17496
0.12950000 0.12949900 13406.59233691 0 42.44907889 0 4999.48682536 0 248.90696916 0 -359.45748907 0 18405
0.13050000 0.13049000 13310.81672723 0 287.09652469 0 4428.61990236 0 379.10090054 0 -435.00396131 0 18100
0.13150000 0.13148800 13062.90737454 0 92.82372788 0 4228.80872869 0 732.81296026 0 -312.84632329 0 19059
0.13250000 0.13249300 12950.74472413 0 87.78670588 0 3874.28396032 0 666.56170471 0 -1117.56296092 0 18957
0.13350000 0.13349100 12612.26375442 0 211.12708964 0 3648.60783586 0 180.56525868 0 -485.21031097 0 19468
0.13450000 0.13450700 12644.48421965 0 110.97791166 0 3303.85993031 0 249.85033123 0 -834.57426874 0 19953
0.13550000 0.13551000 12292.82718341 0 91.72269590 0 3222.48941522 0 -49.66723816 0 -328.05526866 0 19956
0.13650000 0.13649900 12573.62134081 0 114.90969420 0 3356.66384737 0 -70.70365881 0 -133.48241185 0 19723
0.13750000 0.13749600 12408.97587075 0 57.55671249 0 3710.21425116 0 -80.73607088 0 -184.34867207 0 20946
0.13850000 0.13851100 12252.52392107 0 306.91598611 0 3661.50709428 0 -38.23151964 0 -502.09007016 0 20955
0.13950000 0.13949800 12167.70991295 0 312.69795413 0 4040.33561562 0 -213.41906088 0 -486.76375814 0 20506
0.14050000 0.14048300 11897.43446413 0 308.14944310 0 3650.76693920 0 -95.90039478 0 2.48015647 0 21447
0.14150000 0.14148400 11776.19250737 0 174.82757996 0 4005.94497474 0 172.59872097 0 -353.11304695 0 21771
0.14250000 0.14249400 11521.75048304 0 202.56928979 0 3474.88305946 0 317.90194680 0 -655.69089620 0 22470
0.14350000 0.14350900 11293.77131502 0 167.81990558 0 3420.25220880 0 628.36661302 0 -590.94215513 0 22519
0.14450000 0.14449900 11186.25904103 0 153.01177837 0 3178.31083919 0 286.04797553 0 -220.23407681 0 22218
0.14550000 0.14550500 11107.64553482 0 -21.15899128 0 2914.97773803 0 205.81790989 0 -295.08852874 0 23559
0.14650000 0.14650700 11140.64106278 0 89.44456507 0 3168.86614612 0 249.50708916 0 101.02367020 0 23044
0.14750000 0.14750500 10999.97824828 0 174.29721560 0 3036.61829849 0 419.98767439 0 194.09231791 0 23649
0.14850000 0.14849900 10843.64809417 0 183.86813317 0 3068.73911279 0 277.64740269 0 931.36188891 0 23640
0.14950000 0.14949500 10797.78652477 0 55.33726498 0 2919.20736611 0 480.31634340 0 613.54187732 0 24457
0.15050000 0.15050000 10652.87193754 0 99.88897835 0 3059.39407064 0 148.49426984 0 817.60482372 0 24591
0.15150000 0.15149900 10440.34973497 0 351.05359454 0 2991.86396157 0 84.87844904 0 491.60790025 0 25020
0.15250000 0.15250500 10101.62517412 0 322.09282174 0 3091.04984730 0 -422.14234880 0 680.89040026 0 25297
0.15350000 0.15350100 9977.65942545 0 318.97928400 0 2918.03369968 0 -242.02994821 0 310.00405750 0 25452
0.15450000 0.15450400 9629.75590732 0 305.02815473 0 2928.65205918 0 -3.80265709 0 325.95706310 0 26061
0.15550000 0.15549900 9460.75901362 0 139.97854482 0 2822.65669369 0 185.37729104 0 357.49990205 0 26128
0.15650000 0.15649500 9486.55753044 0 -35.35991220 0 2826.22198228 0 381.66192927 0 -87.69214822 0 26331
0.15750000 0.15749700 9461.76659518 0 -19.74317311 0 2531.43240631 0 418.54716493 0 98.32102643 0 27345
0.15850000 0.15849900 9277.74455669 0 187.38027460 0 2345.17375821 0 357.36924861 0 210.22580240 0 26980
0.15950000 0.15949700 9174.96016540 0 173.18112526 0 2247.09510497 0 120.22551735 0 219.59852536 0 27777
0.16050000 0.16050000 9183.12046879 0 90.80059269 0 2212.10655854 0 45.95712356 0 352.26269241 0 28224
0.16150000 0.16150500 8967.73053409 0 19.56568374 0 2419.60192564 0 -170.70203173 0 350.58744966 0 28075
0.16250000 0.16249700 9050.87262116 0 -12.37166214 0 2232.35784064 0 -164.42180909 0 442.91513740 0 28590
0.16350000 0.16349900 9123.34098709 0 -30.23652606 0 2210.44570982 0 187.78773616 0 220.26286485 0 29163
0.16450000 0.16449100 9080.72360887 0 128.92282849 0 2274.51018122 0 204.98637830 0 416.34930846 0 28996
0.16550000 0.16550500 9018.79609616 0 119.70733254 0 2154.90692853 0 10.98858483 0 30.74839964 0 30777
0.16650000 0.16650700 8883.49228687 0 197.32875845 0 2236.25529897 0 89.51243842 0 318.56075012 0 29211
0.16750000 0.16749900 8742.82947238 0 215.37332621 0 1993.69387917 0 -218.32188631 0 119.58996590 0 30922
0.16850000 0.16850800 8646.82134387 0 150.14072454 0 2407.11234325 0 49.97958845 0 344.60728703 0 30867
0.16950000 0.16949900 8536.86208610 0 88.93590247 0 2371.95771195 0 -112.08735860 0 216.50934674 0 30852
0.17050000 0.17049200 8527.66098418 0 155.10334052 0 2346.74602834 0 165.13154511 0 146.22112156 0 31257
0.17150000 0.17149500 8329.73210572 0 68.39740427 0 2216.54656080 0 78.71426437 0 117.13412426 0 32608
0.17250000 0.17250900 8344.69081655 0 103.93713103 0 2123.56117697 0 280.92481083 0 -27.32173655 0 32361
0.17350000 0.17350400 8166.58139951 0 165.73609405 0 2111.66950011 0 -14.76051622 0 279.20527879 0 32508
0.17450000 0.17449800 8077.15023195 0 166.32624896 0 2035.93479835 0 197.60888827 0 475.37919376 0 32791
0.17550000 0.17549800 8011.66850298 0 78.35917491 0 2162.19251826 0 352.33798422 0 698.55297281 0 33633
0.17650000 0.17650100 7889.38574768 0 -1.64078567 0 1905.67996919 0 319.77981309 0 701.97321394 0 33984
0.17750000 0.17750300 7992.42480244 0 -55.19310331 0 1894.15367905 0 218.41600107 0 640.89162685 0 34069
