### header ###
fiducial parameters:
Omega_m = 0.31
Omega_nu = 0
Omega_de = 0.69
Omega_k = 0
H_0 = 100
w_de = -1
zeff = 0
beta = 0
fgrowth = 0
b_1 = 2
gamma = 0.55
Lx = 3500 Ly = 3500 Lz = 3500
nx = 700 ny = 700 nz = 700
xoffset = -685.467585 yoffset = -31.7331281 zoffset = 572.489161
bins = 400 dk = 0.001
kx_ny = 0.628318531 ky_ny = 0.628318531 kz_ny = 0.628318531
############################
A(data) = 8.0561832 (not used)
A(ran) = 8.0567192 (used)
Ngal = 478645
weighted Ngal = 0
Nran = 23820508
weighted Nran = 0
SN(data) = 3486.35903
SN(ran) = 70.1769461
SN(data+ran) = 3556.53597
############################
13 columns: k_central k_mean P_0(k) sigma^{lin}_{P_0(k)} P^img_1(k) sigma^{lin}_{P_1(k)} P_2(k) sigma^{lin}_{P_2(k)} P^img_3(k) sigma^{lin}_{P_3(k)} P_4(k) sigma^{lin}_{P_4(k)} N_modes
### header ###
0.00050000 0 0 0 0 0 0 0 0 0 0 0 0
0.00150000 0.00179520 10727.63227472 0 -8869.16469856 0 38412.33070734 0 -19113.04710195 0 -35946.74541673 0 3
0.00250000 0.00253879 27504.76208200 0 -14740.36458457 0 8454.22932598 0 29063.52396997 0 41954.47814008 0 6
0.00350000 0.00331552 32388.76455950 0 -20631.61645082 0 3993.95364696 0 -12419.60530258 0 -5838.43687687 0 7
0.00450000 0.00420575 40851.23169515 0 -15975.92531108 0 -11001.79410955 0 -8326.07823853 0 -2369.20070307 0 24
0.00550000 0.00557378 56331.44902410 0 1210.16081338 0 5016.78179673 0 -14184.86604842 0 15765.10824653 0 45
0.00650000 0.00659388 50997.02437297 0 14146.66652779 0 -5687.80897004 0 -3430.48303694 0 30493.18255055 0 40
0.00750000 0.00754703 37292.36505194 0 10647.52400465 0 -17214.69701179 0 14494.44825035 0 16799.70627759 0 57
0.00850000 0.00846663 41733.91742969 0 -12359.26113232 0 -25932.04906476 0 12960.82053971 0 -444.65238516 0 75
0.00950000 0.00948925 52065.83588771 0 -15358.64320244 0 -23735.85343698 0 13451.76742217 0 -15412.89759405 0 112
0.01050000 0.01054430 58022.52519365 0 -11552.97443902 0 -23311.00833369 0 -11441.03323511 0 -5231.15307754 0 105
0.01150000 0.01145670 61750.24479034 0 3516.08318011 0 -30193.23327121 0 -20237.33096403 0 -6306.91801227 0 144
0.01250000 0.01249090 57888.66078659 0 10153.58759449 0 -13500.59637462 0 -29445.85134596 0 11125.47197778 0 169
0.01350000 0.01339930 54055.20048788 0 6588.91905308 0 140.08373191 0 -9231.52867290 0 18937.10786058 0 180
0.01450000 0.01448870 52338.65797124 0 312.22405863 0 8748.66458756 0 -9226.46862045 0 -5309.62264353 0 267
0.01550000 0.01550050 53731.77787993 0 -2854.23496408 0 8260.90653464 0 4514.81795108 0 -8039.52647222 0 238
0.01650000 0.01653350 58469.73639307 0 -6352.10416986 0 15940.71531816 0 -5184.73789190 0 -17157.78526222 0 315
0.01750000 0.01747870 62473.48904750 0 -7498.43303066 0 7472.87810498 0 -4566.75822680 0 -14210.44311875 0 297
0.01850000 0.01844180 79729.37510761 0 -12195.39072500 0 17425.18190659 0 -7888.07921335 0 -36649.39514972 0 388
0.01950000 0.01947590 78849.12528453 0 -4883.72566938 0 7153.10936421 0 -8524.87075832 0 -30176.07116775 0 399
0.02050000 0.02045430 85446.12713473 0 3771.62136460 0 13051.50287998 0 -9865.35283482 0 -37156.61834966 0 462
0.02150000 0.02154770 75563.19144810 0 7558.37859723 0 15710.41096193 0 -12307.66409866 0 -35475.06437945 0 571
0.02250000 0.02255340 77906.31682622 0 8342.52064088 0 23128.75786717 0 -6868.82742450 0 -39182.63234498 0 510
0.02350000 0.02348930 61967.59452653 0 8407.55947687 0 22535.17053365 0 -728.15151151 0 -20312.84421930 0 555
0.02450000 0.02439640 64830.34410839 0 4494.48916271 0 28508.91121980 0 -47.24561000 0 -20346.94697974 0 592
0.02550000 0.02547300 60651.75944508 0 -2066.48334253 0 23133.18679710 0 5537.69039015 0 -18863.47690053 0 837
0.02650000 0.02652900 64709.43432137 0 -566.94399832 0 27863.61612937 0 6748.67055556 0 -14261.04364317 0 723
0.02750000 0.02749970 65913.21747566 0 -1630.56591442 0 20344.17889853 0 1934.65624324 0 -17763.99504604 0 826
0.02850000 0.02848090 64191.69241285 0 1086.67560361 0 24633.48681003 0 5054.05124207 0 -9327.73610325 0 831
0.02950000 0.02946900 64640.01084476 0 1767.48628313 0 16054.87098704 0 1559.79161418 0 -11737.99298674 0 996
0.03050000 0.03053250 59124.22151310 0 3147.61835480 0 15533.80738107 0 2029.00352302 0 -5082.40746593 0 1041
0.03150000 0.03150510 58419.57876165 0 4770.83224553 0 13558.50463343 0 2769.98564453 0 -5740.94505684 0 1036
0.03250000 0.03246190 55400.70939984 0 -262.75180411 0 12537.74700839 0 2251.66797512 0 -13181.93486634 0 1059
0.03350000 0.03345080 53872.06423538 0 -374.11281820 0 15750.60350102 0 -4928.29177678 0 -14118.54282275 0 1302
0.03450000 0.03451200 52392.35874662 0 1192.65546784 0 13434.82676520 0 -4287.35918233 0 -22826.59412287 0 1339
0.03550000 0.03553350 54727.51205087 0 725.79864249 0 17395.61879933 0 -2661.84224803 0 -14830.05041560 0 1365
0.03650000 0.03647120 52154.74665601 0 888.20971739 0 11975.93724710 0 1129.14461268 0 -16769.47883083 0 1308
0.03750000 0.03744890 53465.59919129 0 2703.55169562 0 14366.67362194 0 972.04714646 0 -14930.91929470 0 1579
0.03850000 0.03847530 52203.79705495 0 1523.92835409 0 14038.71136081 0 -1271.28004638 0 -14126.18272688 0 1662
0.03950000 0.03950240 48538.74681673 0 1363.34642724 0 18702.15312793 0 -1892.39317940 0 -10976.50491967 0 1683
0.04050000 0.04050350 48364.57914734 0 3282.06959507 0 20498.41638326 0 -5449.89792666 0 -10160.24206171 0 1822
0.04150000 0.04152450 44087.56151639 0 3938.09376825 0 22170.00526113 0 2661.23327016 0 -6561.60362775 0 1887
0.04250000 0.04250150 44394.59708361 0 756.97498748 0 22056.73537823 0 239.48220627 0 -388.66738918 0 1920
0.04350000 0.04349210 43402.29533336 0 866.06838945 0 20508.71364534 0 6345.60471519 0 -2795.73987206 0 2005
0.04450000 0.04448520 41697.26803454 0 -37.50982551 0 20190.05213706 0 8733.56193650 0 932.70939084 0 2151
0.04550000 0.04548030 42255.53465190 0 163.00787321 0 16819.52573901 0 5550.86645668 0 1021.96229397 0 2274
0.04650000 0.04648670 41231.01243643 0 654.10866099 0 15096.45055074 0 4920.02075014 0 3284.69373605 0 2311
0.04750000 0.04749250 39874.98481589 0 848.66269484 0 13515.87618287 0 4536.17646565 0 2813.34486852 0 2568
0.04850000 0.04851840 38751.14384679 0 1842.49021145 0 13463.39336323 0 -624.73378324 0 4713.23401183 0 2493
0.04950000 0.04949480 38407.68033092 0 1407.20390585 0 14652.33960226 0 162.01468568 0 9572.50091569 0 2644
0.05050000 0.05050630 36035.43473853 0 414.26660416 0 11034.15851500 0 1632.10496757 0 7609.61024416 0 2829
0.05150000 0.05149060 38290.31368784 0 -1597.22714439 0 13470.03675812 0 2028.87065512 0 8383.35537481 0 2784
0.05250000 0.05249300 37929.79879175 0 -175.98574513 0 12412.74046119 0 291.15896066 0 6393.58109863 0 3055
0.05350000 0.05348950 39819.06957555 0 544.14386705 0 13441.69160659 0 2282.65941229 0 6924.20012091 0 3009
0.05450000 0.05448610 37559.31880332 0 311.83984896 0 12535.20037369 0 -1743.54791687 0 5145.60829600 0 3336
0.05550000 0.05550870 37557.32578485 0 1357.93206041 0 13777.40449509 0 134.25526012 0 2910.71489298 0 3349
0.05650000 0.05647670 36691.58070728 0 569.71872292 0 13963.30882879 0 -1565.52707843 0 4139.28898253 0 3324
0.05750000 0.05747970 35579.91929549 0 2575.84350116 0 15671.76854831 0 -1821.54137289 0 988.96344431 0 3639
0.05850000 0.05849280 34490.62397983 0 1379.16877941 0 15152.58723757 0 -1320.24186673 0 4333.86294657 0 3846
0.05950000 0.05951020 33117.54497907 0 300.07328938 0 16459.56445916 0 308.12951291 0 2559.85506412 0 3787
0.06050000 0.06049470 33283.74057460 0 150.82167252 0 15934.95770925 0 1088.44274665 0 1293.11467092 0 3930
0.06150000 0.06148310 33255.61686956 0 162.04015202 0 16101.04258153 0 1110.39916676 0 492.11279826 0 4083
0.06250000 0.06249100 32945.59177463 0 209.43856011 0 14974.21208474 0 816.99141693 0 7.26827261 0 4303
0.06350000 0.06350600 32862.88150824 0 -95.36936608 0 13271.95286712 0 1885.11866200 0 -1240.38826013 0 4470
0.06450000 0.06451750 31466.21845561 0 1029.36635758 0 12602.96300158 0 1948.61844483 0 -161.80763320 0 4479
0.06550000 0.06550280 31556.23645639 0 811.04890020 0 10511.53371123 0 2076.04983117 0 -1851.01590156 0 4636
0.06650000 0.06648880 30122.37039238 0 55.48220171 0 8329.18956180 0 2355.84747934 0 -770.84639601 0 4653
0.06750000 0.06749660 30293.10564108 0 177.76617496 0 7702.01986710 0 1055.70852555 0 -2401.88620593 0 5220
0.06850000 0.06852730 29938.23763064 0 385.44534266 0 6393.49252003 0 724.08575384 0 -935.24606046 0 5029
0.06950000 0.06949320 29971.01171210 0 142.01031643 0 6824.51598057 0 605.76246190 0 -573.06588671 0 5040
0.07050000 0.07048030 28728.36469771 0 642.62887461 0 5420.52304892 0 625.07370361 0 -701.04646036 0 5475
0.07150000 0.07148790 29162.28910735 0 1094.79383216 0 6482.89047062 0 1896.31278239 0 55.60975489 0 5509
0.07250000 0.07249820 27785.22406966 0 543.74194166 0 6329.94844790 0 653.30591744 0 -439.51371921 0 5916
0.07350000 0.07351270 26917.26452712 0 1202.18873951 0 6701.75711531 0 63.50797636 0 -222.56147948 0 5721
0.07450000 0.07449140 26397.41887689 0 533.52107862 0 6331.40999477 0 -1374.86164506 0 -169.74649010 0 6028
0.07550000 0.07549160 25773.16120361 0 493.86886898 0 7739.63255451 0 -802.29069127 0 -1282.04234610 0 6183
0.07650000 0.07648840 25518.71917928 0 1010.67295159 0 8213.64985232 0 -1788.44619401 0 -340.06652662 0 6330
0.07750000 0.07749960 25096.75288044 0 600.22629949 0 9362.99038547 0 -708.52360131 0 -704.13231728 0 6583
0.07850000 0.07848650 24769.12278906 0 780.02424606 0 8880.94565216 0 691.23305887 0 -799.20926327 0 6549
0.07950000 0.07947320 23818.12081038 0 131.32995191 0 8336.29799433 0 1357.69954159 0 -158.70406056 0 6828
0.08050000 0.08048110 24485.33910395 0 -260.92376328 0 7279.66603689 0 2394.84420735 0 178.72725276 0 7147
0.08150000 0.08149960 24183.50752940 0 -229.92236102 0 7177.43526184 0 1600.96959018 0 -611.46581641 0 7386
0.08250000 0.08250610 23859.08841221 0 429.76675167 0 6301.58115171 0 -488.35706568 0 418.67892560 0 7227
0.08350000 0.08350160 23637.97408558 0 1030.94527110 0 6519.11911742 0 -1108.94869221 0 357.83982242 0 7798
0.08450000 0.08449610 23025.23163012 0 392.58256323 0 6545.46017817 0 -630.47146196 0 986.30830082 0 7371
0.08550000 0.08548940 22388.13006005 0 340.86262677 0 7105.08869148 0 69.49898987 0 501.90405510 0 8256
0.08650000 0.08650700 22059.94635243 0 526.20448638 0 7323.99962547 0 955.16628004 0 127.40038383 0 8037
0.08750000 0.08749060 22145.42470003 0 535.50745369 0 7297.06065918 0 616.01100575 0 -1176.98812822 0 8155
0.08850000 0.08849210 21100.41868365 0 372.24380978 0 6448.53304670 0 429.29396340 0 -545.53897998 0 8718
0.08950000 0.08949900 20970.31886703 0 866.29205042 0 7243.52596868 0 -1371.52887529 0 292.89731566 0 8571
0.09050000 0.09049190 20198.13493417 0 891.93444746 0 6985.61830668 0 288.74408662 0 910.78508047 0 8932
0.09150000 0.09150830 20125.72192986 0 117.49397481 0 7430.20536513 0 84.96702764 0 260.84514978 0 9285
0.09250000 0.09250820 19574.43087714 0 -75.68188677 0 6216.77821593 0 613.05026609 0 363.34387509 0 9204
0.09350000 0.09350330 19658.58054576 0 40.02003227 0 7445.93913869 0 986.46995677 0 -751.54069046 0 9349
0.09450000 0.09448040 19387.86220395 0 451.12305178 0 6235.56795114 0 311.44124527 0 -1079.28593402 0 9564
0.09550000 0.09549270 18764.15814691 0 961.81521109 0 6779.91665620 0 -152.18578293 0 -1395.40080759 0 10155
0.09650000 0.09649430 17819.91028638 0 937.67865022 0 5831.23986574 0 -751.48311437 0 -1575.73576192 0 9913
0.09750000 0.09749140 17159.44611095 0 189.60913359 0 5940.10296336 0 382.51781997 0 -776.32276787 0 10476
0.09850000 0.09850240 17596.80294128 0 -394.02417993 0 5768.95803864 0 478.50933999 0 -1584.00678856 0 10575
0.09950000 0.09950330 17931.51932055 0 -443.01035939 0 5531.00270596 0 908.84410193 0 -1830.32172647 0 10882
0.10050000 0.10051200 18181.97530795 0 4.05222729 0 5217.76663684 0 872.34196870 0 -1053.34790590 0 10875
0.10150000 0.10150300 17615.95806322 0 710.34610597 0 5059.68705540 0 699.59377134 0 -501.89298277 0 11118
0.10250000 0.10250800 17585.84133971 0 81.43074854 0 5083.53684306 0 550.34658341 0 224.46924105 0 11575
0.10350000 0.10349800 17356.75493921 0 223.27342997 0 5255.80007259 0 533.87982194 0 197.94991588 0 11364
0.10450000 0.10450100 17244.03867256 0 197.25678834 0 5147.99991816 0 -123.86499051 0 729.28531758 0 12093
0.10550000 0.10551000 16874.77663986 0 646.65255745 0 5287.58871714 0 -408.14582300 0 833.30095139 0 12067
0.10650000 0.10649700 16521.34803165 0 890.96561904 0 5833.60934325 0 -866.21343691 0 595.81508528 0 12054
0.10750000 0.10749900 15856.56564954 0 667.65122147 0 5469.24127812 0 -339.24274565 0 1308.70450426 0 12807
0.10850000 0.10850100 15861.99108870 0 -250.54899493 0 5314.20658601 0 797.04794547 0 840.99400267 0 12736
0.10950000 0.10950300 15747.83541982 0 -440.49251273 0 4564.74306368 0 1113.75408118 0 39.58920811 0 12933
0.11050000 0.11050200 16492.89215686 0 -284.63625411 0 5005.41051914 0 572.79129305 0 -1191.24928259 0 13428
0.11150000 0.11150900 16213.42667844 0 275.30782045 0 4549.52968938 0 -603.70411671 0 -997.58989258 0 13453
0.11250000 0.11250000 15800.76113245 0 579.65613444 0 5327.68160531 0 -638.39924653 0 -936.03440998 0 13668
0.11350000 0.11349100 15452.20434716 0 659.15764110 0 5233.88794177 0 -444.16741733 0 -584.03523891 0 13791
0.11450000 0.11448600 15002.44651302 0 315.61883342 0 5402.15406204 0 497.89919521 0 -641.90142287 0 14205
0.11550000 0.11549300 14760.95910873 0 285.30280807 0 5229.25971000 0 761.90549372 0 -803.46878663 0 14776
0.11650000 0.11649800 14671.16255445 0 98.61056773 0 4977.05429528 0 774.24338527 0 -920.63612786 0 14553
0.11750000 0.11747300 14063.51336840 0 315.19365615 0 4195.15993356 0 540.84542149 0 -930.52039222 0 14568
0.11850000 0.11849100 13883.25592036 0 431.52835855 0 4206.76372997 0 242.73414807 0 -227.61821023 0 16015
0.11950000 0.11950300 13550.08966656 0 221.41992279 0 4143.58504456 0 81.43562036 0 224.03077699 0 15270
0.12050000 0.12050700 13614.41987376 0 -93.73187997 0 4123.33376246 0 180.15447543 0 70.45287065 0 15999
0.12150000 0.12150000 13777.62594159 0 -96.98825070 0 4644.17592193 0 -158.30767133 0 -56.43276080 0 15670
0.12250000 0.12250700 13939.94622343 0 32.30527923 0 4983.05549533 0 -330.35941945 0 300.26262613 0 16887
0.12350000 0.12352200 13965.30184726 0 151.69306448 0 5125.30165228 0 -389.14128468 0 702.54233144 0 16407
0.12450000 0.12449800 13797.55612626 0 80.07815334 0 5283.52517394 0 620.48976114 0 976.35206635 0 16306
0.12550000 0.12549900 13906.50780248 0 -0.45762029 0 5205.17740352 0 636.92994903 0 1228.04261796 0 17523
0.12650000 0.12650100 13729.79349837 0 91.87217229 0 5052.13572988 0 1002.21148096 0 724.66483643 0 17154
0.12750000 0.12750600 13493.39936349 0 346.94686926 0 4520.94094670 0 828.43355740 0 830.27820671 0 18007
0.12850000 0.12850300 13259.99475631 0 421.91204445 0 4177.46635850 0 90.77390839 0 1230.60032499 0 17496
0.12950000 0.12949900 12781.55960090 0 437.86947898 0 4121.40717795 0 -35.32614161 0 1289.31686351 0 18405
0.13050000 0.13049000 12554.57694212 0 316.88550738 0 3903.23808972 0 95.94324468 0 1473.57142081 0 18100
0.13150000 0.13148800 12230.82216442 0 167.59181569 0 4225.71955006 0 346.07326283 0 1179.13615924 0 19059
0.13250000 0.13249300 12247.87354464 0 -30.26077445 0 3732.20388825 0 353.40535633 0 1219.50585553 0 18957
0.13350000 0.13349100 12120.54180923 0 129.54952208 0 3519.48238383 0 224.85677242 0 1100.67323664 0 19468
0.13450000 0.13450700 12047.46446542 0 137.42415949 0 3380.87902175 0 -168.60050448 0 1205.32220743 0 19953
0.13550000 0.13551000 11991.32777859 0 167.05591517 0 3696.34062816 0 -185.85561548 0 802.65607799 0 19956
0.13650000 0.13649900 11770.87779145 0 211.90990301 0 3819.84133918 0 -59.67230159 0 859.65751338 0 19723
0.13750000 0.13749600 11572.12956096 0 279.69578278 0 3571.02405586 0 -224.63421869 0 895.11663362 0 20946
0.13850000 0.13851100 11511.23177446 0 69.68710867 0 3614.66008797 0 194.43666721 0 668.01771542 0 20955
0.13950000 0.13949800 11519.53601807 0 18.48114952 0 3746.87471863 0 177.44839924 0 861.74796831 0 20506
0.14050000 0.14048300 11505.69561205 0 30.99298729 0 3722.36059148 0 189.28360724 0 408.28754876 0 21447
0.14150000 0.14148400 11285.79924115 0 205.29529616 0 3463.89931324 0 302.56234799 0 865.87240931 0 21771
0.14250000 0.14249400 11310.37980225 0 139.22451950 0 3623.46258620 0 147.51436909 0 570.14168572 0 22470
0.14350000 0.14350900 11331.19577291 0 -2.08910410 0 3703.99160461 0 150.62458514 0 839.97534879 0 22519
0.14450000 0.14449900 11111.07795551 0 91.38631868 0 3177.22575136 0 182.76975855 0 642.50375734 0 22218
0.14550000 0.14550500 11078.52532054 0 251.05278571 0 3156.46514233 0 110.00996902 0 853.56441304 0 23559
0.14650000 0.14650700 10896.39664960 0 256.48486826 0 3065.30669209 0 159.44258462 0 918.32201197 0 23044
0.14750000 0.14750500 10530.69990549 0 321.41298100 0 3072.09402721 0 274.13304679 0 385.46638007 0 23649
0.14850000 0.14849900 10216.06872345 0 196.52822937 0 3016.69918614 0 149.86834535 0 382.51671274 0 23640
0.14950000 0.14949500 10023.50992252 0 120.27091388 0 2600.37977296 0 614.79305002 0 320.17841678 0 24457
0.15050000 0.15050000 10005.56168399 0 -70.62083782 0 2267.62319518 0 481.72363588 0 306.49413054 0 24591
0.15150000 0.15149900 10050.71462460 0 -40.69765855 0 2267.00314499 0 126.70614906 0 137.62346133 0 25020
0.15250000 0.15250500 10194.14552031 0 9.79904068 0 2197.30286026 0 -148.08016489 0 311.54975405 0 25297
0.15350000 0.15350100 10074.43154437 0 35.37441695 0 2171.79222388 0 -180.56747314 0 321.06420277 0 25452
0.15450000 0.15450400 10220.15441130 0 65.92008232 0 2583.78235806 0 -307.51499889 0 603.12946306 0 26061
0.15550000 0.15549900 10166.33184036 0 110.25666042 0 2879.15876724 0 -217.97421531 0 518.60222816 0 26128
0.15650000 0.15649500 9995.35300051 0 284.22768533 0 3152.58982864 0 72.51143728 0 604.80581303 0 26331
0.15750000 0.15749700 9814.59729785 0 242.38647707 0 3310.16008313 0 -135.46767969 0 953.55414954 0 27345
0.15850000 0.15849900 9642.01297090 0 266.34588075 0 3284.77124232 0 -20.81608138 0 770.16434081 0 26980
0.15950000 0.15949700 9415.70572393 0 323.02289703 0 3508.28826344 0 154.56522554 0 917.11623580 0 27777
0.16050000 0.16050000 9227.64228689 0 228.90259991 0 3133.49006833 0 340.50720515 0 922.51842308 0 28224
0.16150000 0.16150500 9028.28507853 0 86.82352434 0 2857.33521502 0 269.14496446 0 782.28410755 0 28075
0.16250000 0.16249700 9035.52637896 0 -65.58857691 0 2722.15320131 0 466.44604210 0 544.67423141 0 28590
0.16350000 0.16349900 8932.97450649 0 58.27696722 0 2419.77908284 0 86.55203094 0 322.89777976 0 29163
0.16450000 0.16449100 8800.68236955 0 229.52929349 0 2215.40611134 0 215.67338621 0 454.23880399 0 28996
0.16550000 0.16550500 8680.41477737 0 111.59796185 0 2232.60143178 0 186.53545622 0 476.34912942 0 30777
0.16650000 0.16650700 8467.13965672 0 82.69509731 0 2089.89023719 0 250.12271042 0 489.08451742 0 29211
0.16750000 0.16749900 8566.72414614 0 57.15301553 0 1840.01001069 0 337.99932358 0 392.33343593 0 30922
0.16850000 0.16850800 8366.09362042 0 202.55378853 0 2005.76271322 0 20.59651718 0 648.51713695 0 30867
0.16950000 0.16949900 8342.74208738 0 162.50961860 0 1815.78376398 0 -207.93826009 0 878.45721369 0 30852
0.17050000 0.17049200 8148.84353516 0 88.60340056 0 2046.14348184 0 -28.05173493 0 841.28077588 0 31257
0.17150000 0.17149500 8204.92486036 0 71.47927516 0 2086.62390137 0 -177.69309762 0 750.38806145 0 32608
0.17250000 0.17250900 8114.30895405 0 56.48003962 0 2328.44347541 0 -77.19336983 0 504.56473475 0 32361
0.17350000 0.17350400 8164.00154783 0 78.29816640 0 2370.92798574 0 -102.18881094 0 487.63847180 0 32508
0.17450000 0.17449800 8020.72566468 0 69.71024983 0 2156.18024588 0 40.80627806 0 502.76216027 0 32791
0.17550000 0.17549800 8053.58832474 0 -10.66415464 0 2186.39662031 0 -77.19015886 0 109.04202639 0 33633
0.17650000 0.17650100 8126.78746412 0 91.42252518 0 2391.51143758 0 -58.32125652 0 -22.75418112 0 33984
0.17750000 0.17750300 8014.73553695 0 207.98587109 0 2365.48040193 0 -139.64637508 0 127.41145615 0 34069
0.17850000 0.17849800 7787.38749145 0 199.55983190 0 2285.52714442 0 -51.52484210 0 30.58198260 0 34536
