### header ###
fiducial parameters:
Omega_m = 0.31
Omega_nu = 0
Omega_de = 0.69
Omega_k = 0
H_0 = 100
w_de = -1
zeff = 0
beta = 0
fgrowth = 0
b_1 = 2
gamma = 0.55
Lx = 3500 Ly = 3500 Lz = 3500
nx = 700 ny = 700 nz = 700
xoffset = -685.467585 yoffset = -31.7331281 zoffset = 572.489161
bins = 400 dk = 0.001
kx_ny = 0.628318531 ky_ny = 0.628318531 kz_ny = 0.628318531
############################
A(data) = 7.99230981 (not used)
A(ran) = 7.99310414 (used)
Ngal = 474978
weighted Ngal = 0
Nran = 23820508
weighted Nran = 0
SN(data) = 3488.93227
SN(ran) = 69.6228359
SN(data+ran) = 3558.55511
############################
13 columns: k_central k_mean P_0(k) sigma^{lin}_{P_0(k)} P^img_1(k) sigma^{lin}_{P_1(k)} P_2(k) sigma^{lin}_{P_2(k)} P^img_3(k) sigma^{lin}_{P_3(k)} P_4(k) sigma^{lin}_{P_4(k)} N_modes
### header ###
0.00050000 0 0 0 0 0 0 0 0 0 0 0 0
0.00150000 0.00179520 3240.88054674 0 -4898.52936767 0 19590.26430163 0 -20550.45630990 0 7672.26853031 0 3
0.00250000 0.00253879 9611.09904000 0 -6532.11802676 0 972.19994454 0 3708.99629543 0 2139.90392840 0 6
0.00350000 0.00331552 16234.13192585 0 -9482.48291491 0 12970.45346231 0 -12046.46795619 0 24296.33451930 0 7
0.00450000 0.00420575 29224.18340309 0 -13339.05115552 0 13253.01919168 0 -8444.76248826 0 8143.73919341 0 24
0.00550000 0.00557378 71162.38522568 0 -31492.12769569 0 36959.08807490 0 -23494.25530944 0 -2876.68963881 0 45
0.00650000 0.00659388 66354.00672669 0 -4448.93761841 0 32034.33944206 0 -9556.32424913 0 -2099.24635167 0 40
0.00750000 0.00754703 91463.82495041 0 11888.02298804 0 79256.03322161 0 -44810.91649679 0 136.69670775 0 57
0.00850000 0.00846663 89127.12152069 0 22272.64571220 0 74712.17256254 0 -285.94721737 0 12208.56679154 0 75
0.00950000 0.00948925 74098.54432109 0 9983.19558786 0 73199.58226906 0 38460.82749005 0 458.42857170 0 112
0.01050000 0.01054430 67118.10786242 0 -3136.44637905 0 57984.10422653 0 44032.19989230 0 -32166.10010740 0 105
0.01150000 0.01145670 81121.38778381 0 -6477.44288681 0 59444.98676310 0 34957.65464068 0 -31983.40674789 0 144
0.01250000 0.01249090 76534.45578119 0 -3953.11891303 0 32825.56777360 0 5421.36454560 0 -25030.98327102 0 169
0.01350000 0.01339930 68169.64655045 0 17647.07129596 0 22533.17751518 0 -8205.29024708 0 -19546.97151159 0 180
0.01450000 0.01448870 66145.62557360 0 7678.60190011 0 35243.09917450 0 -15332.84468561 0 -13686.38998508 0 267
0.01550000 0.01550050 60470.61621105 0 993.11445889 0 43908.85419382 0 -12459.68711842 0 7794.32983911 0 238
0.01650000 0.01653350 62688.84576522 0 1717.27329007 0 49296.42600407 0 1852.52173773 0 -14749.11172117 0 315
0.01750000 0.01747870 71598.96699328 0 -2409.00571079 0 44651.14284966 0 14947.52778192 0 1158.13195906 0 297
0.01850000 0.01844180 70636.22835030 0 -9267.74624738 0 30022.49802251 0 25034.08352197 0 7473.96319281 0 388
0.01950000 0.01947590 75217.07057427 0 -8713.31065441 0 25673.39955700 0 36670.10039713 0 6348.28421780 0 399
0.02050000 0.02045430 82505.42838614 0 -2683.80974047 0 8647.67391288 0 26813.95973656 0 -3036.27505642 0 462
0.02150000 0.02154770 80073.06006998 0 3558.51232882 0 2088.86051099 0 3407.92871128 0 -2012.51683136 0 571
0.02250000 0.02255340 72637.66178452 0 8941.45590730 0 2546.38004482 0 -18683.55162223 0 -5438.34949188 0 510
0.02350000 0.02348930 68052.72280036 0 8396.83039412 0 12196.83012723 0 -21350.76394780 0 -3334.18702799 0 555
0.02450000 0.02439640 65186.43007456 0 4245.73831333 0 24446.03235085 0 -18782.53820611 0 11862.00302471 0 592
0.02550000 0.02547300 64094.58812419 0 1854.59226247 0 29837.70092129 0 -644.36833684 0 1437.69708840 0 837
0.02650000 0.02652900 64463.51798715 0 -4092.66342272 0 35991.14543925 0 532.02077861 0 1177.57496144 0 723
0.02750000 0.02749970 68539.24075290 0 340.95120537 0 34032.78334858 0 13786.15163170 0 -8273.13038124 0 826
0.02850000 0.02848090 66119.82705677 0 4837.56514722 0 39023.52303733 0 9988.25564030 0 9098.10715883 0 831
0.02950000 0.02946900 62958.67832105 0 4939.80699459 0 31792.63059127 0 12151.54431872 0 15041.86398938 0 996
0.03050000 0.03053250 58362.44556558 0 995.31342260 0 24525.97453604 0 12001.95721042 0 19740.40502617 0 1041
0.03150000 0.03150510 58490.22019399 0 -307.23819077 0 22287.37190420 0 13451.87814542 0 10481.93738699 0 1036
0.03250000 0.03246190 57659.02076985 0 -946.98161753 0 14609.48970521 0 5205.15525887 0 8823.54672030 0 1059
0.03350000 0.03345080 57446.65357983 0 -248.24595136 0 9781.28067247 0 1650.86148581 0 2148.42961851 0 1302
0.03450000 0.03451200 53511.66006253 0 3916.12627581 0 11988.33825089 0 -6106.57536701 0 3436.05241632 0 1339
0.03550000 0.03553350 51893.88268328 0 3760.90335418 0 13262.43066777 0 -8260.65187117 0 -1262.34468025 0 1365
0.03650000 0.03647120 48603.74136342 0 2842.05540677 0 12641.05179895 0 1730.29434406 0 -4120.15600524 0 1308
0.03750000 0.03744890 46534.87747105 0 2161.91571014 0 10134.39925558 0 -1621.42017412 0 -2779.70714572 0 1579
0.03850000 0.03847530 45970.29962855 0 -139.10604563 0 9452.97516927 0 120.13472428 0 -5769.56701650 0 1662
0.03950000 0.03950240 47272.95864347 0 -583.41518872 0 13873.95516751 0 2826.45450111 0 -5025.76145216 0 1683
0.04050000 0.04050350 45350.58160845 0 1789.17696745 0 9736.02808093 0 -2835.03555284 0 -5669.29604294 0 1822
0.04150000 0.04152450 45883.49260197 0 3467.64175903 0 14228.60173145 0 -795.77684258 0 -4106.69205826 0 1887
0.04250000 0.04250150 42131.41389068 0 1693.25741754 0 15131.77126691 0 -2524.75579445 0 -3960.13876696 0 1920
0.04350000 0.04349210 41250.38900486 0 2162.40289243 0 16076.24057394 0 1053.52727756 0 -2602.58316560 0 2005
0.04450000 0.04448520 42472.55221834 0 177.94665386 0 17651.38950264 0 -1621.55304202 0 -8688.87403353 0 2151
0.04550000 0.04548030 40629.01013604 0 790.12220629 0 19480.86973242 0 -3577.14705148 0 -2635.68941681 0 2274
0.04650000 0.04648670 41392.55765553 0 784.96914632 0 19571.66279594 0 4320.08897449 0 -4023.48353725 0 2311
0.04750000 0.04749250 39748.64958971 0 1111.41782065 0 20281.95243305 0 2152.31600452 0 1925.20047784 0 2568
0.04850000 0.04851840 39979.95045517 0 174.60502623 0 19274.26015131 0 5382.29031132 0 4301.56497507 0 2493
0.04950000 0.04949480 39032.60234368 0 -242.88694615 0 19773.84344712 0 6510.01766642 0 4499.62672143 0 2644
0.05050000 0.05050630 38366.71272909 0 668.74184547 0 15664.90370692 0 6233.19847363 0 5379.41150687 0 2829
0.05150000 0.05149060 38548.63102586 0 -1161.97405577 0 12928.26790475 0 2510.81573750 0 6298.95701073 0 2784
0.05250000 0.05249300 39045.66768697 0 193.49551960 0 13625.38147533 0 1612.94984563 0 1536.49544276 0 3055
0.05350000 0.05348950 37414.38207144 0 1108.74939036 0 10549.05782004 0 -823.19745499 0 3602.51374764 0 3009
0.05450000 0.05448610 36967.17087201 0 1296.12634327 0 10745.66909185 0 -500.27199442 0 287.44087399 0 3336
0.05550000 0.05550870 34877.26956249 0 2036.92023526 0 9441.75890423 0 -2602.25099585 0 1263.80622713 0 3349
0.05650000 0.05647670 35074.46766752 0 1769.64538646 0 10780.97873569 0 -913.68049341 0 -48.52601364 0 3324
0.05750000 0.05747970 32901.63464510 0 924.00211460 0 9696.34486878 0 -1157.34582399 0 -786.77504250 0 3639
0.05850000 0.05849280 32986.89154621 0 827.25214034 0 11656.27922958 0 387.42618157 0 -1893.01322959 0 3846
0.05950000 0.05951020 31807.35678328 0 665.55744485 0 12028.53078998 0 -233.24405847 0 -3863.25592480 0 3787
0.06050000 0.06049470 32259.99342186 0 49.39984152 0 12327.04066710 0 417.22734382 0 -3107.59190058 0 3930
0.06150000 0.06148310 31417.72167291 0 479.44716590 0 12550.48018194 0 58.98216359 0 -3233.49530609 0 4083
0.06250000 0.06249100 30959.77031841 0 611.67840505 0 11228.77676833 0 1168.56208904 0 -2013.02615830 0 4303
0.06350000 0.06350600 31785.65502663 0 -577.85909612 0 10983.83479870 0 948.60149865 0 -3366.65108436 0 4470
0.06450000 0.06451750 30195.55845943 0 263.78928094 0 10447.84569887 0 1173.19032081 0 -2911.64496826 0 4479
0.06550000 0.06550280 31418.27528915 0 298.25078471 0 11663.69768721 0 244.62640838 0 -4145.69985860 0 4636
0.06650000 0.06648880 29909.56030936 0 769.87313866 0 10388.22122973 0 65.28862763 0 -2013.95623359 0 4653
0.06750000 0.06749660 30776.08044967 0 868.53530342 0 12495.89362058 0 -1076.24768809 0 -1978.01546723 0 5220
0.06850000 0.06852730 29682.57765058 0 400.56128050 0 12385.05964915 0 520.61185511 0 -1295.42878681 0 5029
0.06950000 0.06949320 29944.10596280 0 -165.92764527 0 12894.82948380 0 1783.71831131 0 -505.84801720 0 5040
0.07050000 0.07048030 29489.25485925 0 -269.18482483 0 10674.80621301 0 1964.07541028 0 -1453.99555053 0 5475
0.07150000 0.07148790 29494.56957516 0 665.33046219 0 11173.19369774 0 1504.18639894 0 -1480.15945408 0 5509
0.07250000 0.07249820 28515.66533794 0 983.36638412 0 8370.25681455 0 1441.39524489 0 -2011.74176862 0 5916
0.07350000 0.07351270 27502.10472404 0 985.49448495 0 8248.77126664 0 1265.58887142 0 -890.73088576 0 5721
0.07450000 0.07449140 26569.48280457 0 569.77629901 0 7027.69314099 0 1117.00934468 0 -1230.63354197 0 6028
0.07550000 0.07549160 26272.74449943 0 13.21825209 0 6922.63892311 0 712.03020658 0 -711.48101927 0 6183
0.07650000 0.07648840 26472.93213215 0 219.08366226 0 6582.84034675 0 1490.36813756 0 -547.65822295 0 6330
0.07750000 0.07749960 26153.49556113 0 320.44083088 0 6560.19744250 0 -697.91188520 0 -301.40971898 0 6583
0.07850000 0.07848650 25627.11723925 0 1130.94940163 0 7862.63501092 0 -514.64387204 0 2700.57324024 0 6549
0.07950000 0.07947320 24862.46248728 0 1008.80615762 0 8591.45971978 0 -1090.81776032 0 3412.31335191 0 6828
0.08050000 0.08048110 24856.15126213 0 710.28631542 0 9808.33036200 0 -213.34376907 0 3905.46362701 0 7147
0.08150000 0.08149960 24097.69701205 0 433.28332204 0 11163.67149840 0 -852.14383376 0 3161.07122945 0 7386
0.08250000 0.08250610 24216.17088761 0 236.32880816 0 12344.20277056 0 -514.27627085 0 3707.04756626 0 7227
0.08350000 0.08350160 24292.45920561 0 206.48778554 0 12018.01208141 0 1082.08612497 0 4073.71867495 0 7798
0.08450000 0.08449610 23612.50773850 0 363.52324675 0 11736.22141477 0 895.66471369 0 2859.07357002 0 7371
0.08550000 0.08548940 23174.37584543 0 662.61331368 0 10830.79312505 0 1890.99806648 0 3112.60766372 0 8256
0.08650000 0.08650700 22569.16257084 0 950.89789882 0 10485.13728886 0 1712.33503320 0 1688.61811344 0 8037
0.08750000 0.08749060 21399.92506999 0 791.24051110 0 7988.98130942 0 644.21775323 0 1512.42420860 0 8155
0.08850000 0.08849210 20547.02388921 0 947.49980233 0 8235.78342963 0 789.08472946 0 907.36373210 0 8718
0.08950000 0.08949900 20146.31645402 0 301.55919537 0 7629.58471813 0 -196.74303247 0 1565.22812566 0 8571
0.09050000 0.09049190 19806.61752859 0 -104.72271247 0 7092.47731351 0 202.52167879 0 -804.41547040 0 8932
0.09150000 0.09150830 19906.82206820 0 -200.29392704 0 8002.79957080 0 -326.24826525 0 -1521.76925075 0 9285
0.09250000 0.09250820 19582.84584400 0 519.17577458 0 7599.09153558 0 -622.98657039 0 -1886.29232843 0 9204
0.09350000 0.09350330 19207.49403265 0 906.09262921 0 7696.79372978 0 -321.91123561 0 -1903.67587839 0 9349
0.09450000 0.09448040 19104.63213509 0 409.22648190 0 7687.45975996 0 36.81525858 0 -1379.37915358 0 9564
0.09550000 0.09549270 18045.56426618 0 648.26247348 0 7250.21365287 0 258.18004119 0 -1909.87638029 0 10155
0.09650000 0.09649430 18085.64608203 0 517.50163907 0 7021.97982139 0 523.44194134 0 -1508.30530377 0 9913
0.09750000 0.09749140 17089.91191108 0 292.73565972 0 6346.06975283 0 1554.79799568 0 -1279.04174608 0 10476
0.09850000 0.09850240 17374.91355192 0 -75.08619569 0 6219.47986318 0 1590.65018345 0 -1494.90779074 0 10575
0.09950000 0.09950330 16903.34323789 0 20.14565211 0 6001.16683473 0 665.27067164 0 -1417.64510816 0 10882
0.10050000 0.10051200 16913.86194647 0 457.16411220 0 5973.74068616 0 -97.34156858 0 -1795.35532469 0 10875
0.10150000 0.10150300 16654.88026896 0 520.90084279 0 6542.60351836 0 -303.73490719 0 -296.98853968 0 11118
0.10250000 0.10250800 16424.13301974 0 335.57448444 0 6800.17901062 0 -268.06762725 0 1044.64616583 0 11575
0.10350000 0.10349800 16188.40322435 0 -72.95986644 0 6895.55601661 0 695.75831802 0 1513.03318647 0 11364
0.10450000 0.10450100 16581.47075541 0 -265.53649380 0 6887.63930436 0 738.60046444 0 15.37458735 0 12093
0.10550000 0.10551000 16344.41228104 0 319.91157375 0 6571.34727359 0 625.68046701 0 285.50986054 0 12067
0.10650000 0.10649700 16139.24210216 0 562.40766684 0 6528.72989537 0 -116.02357008 0 260.82632682 0 12054
0.10750000 0.10749900 15756.58255642 0 349.85889069 0 6130.22585282 0 210.32213163 0 1578.28239662 0 12807
0.10850000 0.10850100 15311.80726846 0 337.40916866 0 6089.95580745 0 348.11721400 0 757.61607509 0 12736
0.10950000 0.10950300 15102.31888289 0 421.96408437 0 5515.75611468 0 819.08408632 0 648.23257821 0 12933
0.11050000 0.11050200 14808.45938220 0 331.78221319 0 5630.17751936 0 583.37311388 0 841.45904031 0 13428
0.11150000 0.11150900 14577.04779349 0 -76.76343146 0 5320.89427020 0 854.89862818 0 714.09187346 0 13453
0.11250000 0.11250000 14578.04430273 0 -323.06718633 0 4610.72642866 0 467.16463598 0 706.57597937 0 13668
0.11350000 0.11349100 14627.53759467 0 128.98815521 0 4579.03743502 0 760.85473010 0 563.91903918 0 13791
0.11450000 0.11448600 14803.36611279 0 152.77483062 0 4429.80464112 0 173.29295574 0 1319.93184163 0 14205
0.11550000 0.11549300 14654.44334397 0 162.02354354 0 4311.40827183 0 -173.66498585 0 1056.17245596 0 14776
0.11650000 0.11649800 14480.82929082 0 368.77042148 0 4616.58368848 0 -116.40224359 0 1493.71197966 0 14553
0.11750000 0.11747300 14168.47900768 0 276.04191559 0 4469.95289091 0 89.12169608 0 1739.40686739 0 14568
0.11850000 0.11849100 14064.06698464 0 77.94540213 0 4599.29978944 0 103.86338935 0 782.84547442 0 16015
0.11950000 0.11950300 13776.85087885 0 67.36878530 0 4576.05897965 0 243.21911590 0 1057.75247672 0 15270
0.12050000 0.12050700 13975.70983259 0 60.75672508 0 4361.42196304 0 349.26762854 0 229.52818626 0 15999
0.12150000 0.12150000 13714.51369012 0 122.02366290 0 4064.87188742 0 164.29004843 0 343.01176502 0 15670
0.12250000 0.12250700 13713.18501114 0 64.52939832 0 3964.20231017 0 58.01189576 0 203.01550448 0 16887
0.12350000 0.12352200 13743.52318114 0 49.92599839 0 4015.12393201 0 -141.02930845 0 -175.10217361 0 16407
0.12450000 0.12449800 13624.60641259 0 311.82434771 0 4195.77998375 0 -509.41330579 0 45.28292970 0 16306
0.12550000 0.12549900 13248.47953850 0 420.29548502 0 4246.94519674 0 134.23200824 0 132.52133406 0 17523
0.12650000 0.12650100 13191.01417269 0 296.67297842 0 4286.34052844 0 -13.71584237 0 -27.56433119 0 17154
0.12750000 0.12750600 12740.59199907 0 263.17144522 0 4174.11144408 0 637.52121118 0 293.94143589 0 18007
0.12850000 0.12850300 12647.25230085 0 235.25368542 0 3916.90133855 0 454.61415580 0 177.03650876 0 17496
0.12950000 0.12949900 12459.02277893 0 199.94293434 0 3701.19030643 0 855.29833910 0 168.72562175 0 18405
0.13050000 0.13049000 12082.89590484 0 188.94036517 0 3538.29426370 0 416.09021606 0 846.24892803 0 18100
0.13150000 0.13148800 11980.58762352 0 147.06926164 0 3475.20415688 0 -36.64773430 0 101.39260006 0 19059
0.13250000 0.13249300 12036.17069411 0 -14.22361919 0 3496.05334451 0 193.84983399 0 993.59167609 0 18957
0.13350000 0.13349100 11921.35068574 0 -27.37643384 0 3357.40569313 0 -245.55426920 0 615.83606302 0 19468
0.13450000 0.13450700 11930.98360833 0 137.29793498 0 3751.41437181 0 -147.20988016 0 436.10787210 0 19953
0.13550000 0.13551000 11996.53177126 0 144.77618317 0 3553.37477010 0 -123.37116483 0 616.53694118 0 19956
0.13650000 0.13649900 11822.03193212 0 167.54752639 0 3815.70028970 0 300.85831720 0 265.67821956 0 19723
0.13750000 0.13749600 11663.14407097 0 90.52212372 0 3314.26791564 0 -63.26593533 0 287.92362735 0 20946
0.13850000 0.13851100 11901.75267081 0 80.36348715 0 3759.05427593 0 346.40875428 0 95.53168637 0 20955
0.13950000 0.13949800 11398.07261481 0 31.75653481 0 3432.68642958 0 -102.46661557 0 199.05382666 0 20506
0.14050000 0.14048300 11565.92905906 0 345.50635980 0 3432.73071888 0 45.58786153 0 354.83811516 0 21447
0.14150000 0.14148400 11159.35329172 0 285.87635449 0 3434.88982221 0 260.82079066 0 295.24686299 0 21771
0.14250000 0.14249400 11049.68191439 0 124.09972380 0 3493.45134818 0 320.65009782 0 584.37848098 0 22470
0.14350000 0.14350900 10904.65660392 0 96.95481227 0 3247.30249514 0 413.09736666 0 634.55604259 0 22519
0.14450000 0.14449900 10985.50671974 0 62.81983137 0 3250.84563908 0 430.62153515 0 707.66881783 0 22218
0.14550000 0.14550500 10722.51686065 0 162.81189306 0 2996.29289150 0 84.81411883 0 536.49842676 0 23559
0.14650000 0.14650700 10635.79841267 0 307.03999615 0 3190.85578321 0 -3.98250486 0 1047.37549390 0 23044
0.14750000 0.14750500 10288.02776244 0 179.72376199 0 2855.53042608 0 330.76798824 0 936.33004106 0 23649
0.14850000 0.14849900 10297.88213153 0 -26.64455317 0 2876.81143438 0 184.18369443 0 900.54650171 0 23640
0.14950000 0.14949500 10269.96880066 0 113.21562850 0 2757.79501491 0 121.39807654 0 752.55491541 0 24457
0.15050000 0.15050000 10318.42129407 0 145.40398398 0 3109.50741277 0 -481.72806481 0 515.15209174 0 24591
0.15150000 0.15149900 9934.96454095 0 387.73842113 0 2989.48341174 0 -324.66492280 0 573.07474457 0 25020
0.15250000 0.15250500 9752.33761539 0 340.58138972 0 3205.53768592 0 -263.00093142 0 472.92445935 0 25297
0.15350000 0.15350100 9641.65865650 0 19.62071319 0 3168.87721845 0 -51.06412266 0 238.96069977 0 25452
0.15450000 0.15450400 9627.85146746 0 12.29426659 0 3337.81875053 0 194.15543016 0 -144.63888634 0 26061
0.15550000 0.15549900 9555.13951037 0 98.34494266 0 2835.34557793 0 236.20369089 0 18.60925632 0 26128
0.15650000 0.15649500 9475.95024327 0 45.74220974 0 2837.64862150 0 361.03972429 0 257.79583152 0 26331
0.15750000 0.15749700 9429.02573069 0 63.90536209 0 2540.93246101 0 224.66522120 0 464.83169714 0 27345
0.15850000 0.15849900 9275.43044080 0 120.68944776 0 2680.31088582 0 451.82725164 0 48.78997787 0 26980
0.15950000 0.15949700 9348.13132556 0 104.16189922 0 2347.45465713 0 358.99466590 0 572.70825062 0 27777
0.16050000 0.16050000 9256.28639119 0 54.39456724 0 2412.98067540 0 -7.10477867 0 364.63490816 0 28224
0.16150000 0.16150500 9191.73473750 0 184.83142543 0 2557.95062425 0 -123.28701516 0 583.05090923 0 28075
0.16250000 0.16249700 8923.74018759 0 301.43407810 0 2793.37039455 0 -148.49316261 0 492.47597052 0 28590
0.16350000 0.16349900 8731.52462874 0 232.51439226 0 2700.98291626 0 -76.18169151 0 718.41672353 0 29163
0.16450000 0.16449100 8586.86470498 0 199.91857523 0 2886.56615255 0 225.83888763 0 764.29490142 0 28996
0.16550000 0.16550500 8533.97220932 0 -2.96365168 0 2571.28170333 0 425.38764721 0 609.33882281 0 30777
0.16650000 0.16650700 8499.18296474 0 -24.32191159 0 2406.56979933 0 416.46446064 0 796.87300273 0 29211
0.16750000 0.16749900 8577.77432630 0 -59.91899299 0 2125.21095337 0 46.41684649 0 482.50644925 0 30922
0.16850000 0.16850800 8542.91864778 0 26.21893300 0 2059.99496018 0 93.49703596 0 356.16568691 0 30867
0.16950000 0.16949900 8508.47264526 0 157.78173590 0 2034.72791495 0 -220.05581238 0 34.33959747 0 30852
0.17050000 0.17049200 8394.29483173 0 174.84640291 0 2059.43027162 0 -418.39990301 0 482.44555146 0 31257
0.17150000 0.17149500 8304.57578373 0 115.06138505 0 2046.43136228 0 20.43275750 0 62.73712110 0 32608
0.17250000 0.17250900 8259.91002541 0 -33.98694392 0 2160.99670718 0 83.83731834 0 -261.22714498 0 32361
0.17350000 0.17350400 8213.16267003 0 127.46681778 0 2179.65357450 0 118.76064877 0 -224.54453286 0 32508
0.17450000 0.17449800 8127.26357408 0 142.41113458 0 2126.69464489 0 104.77076636 0 -28.94372142 0 32791
0.17550000 0.17549800 8042.41634900 0 71.54039439 0 2056.49610554 0 284.45466799 0 214.99022377 0 33633
0.17650000 0.17650100 8041.91809438 0 -7.19178499 0 1835.52571914 0 406.83485974 0 318.86413182 0 33984
0.17750000 0.17750300 7972.25102662 0 31.29415453 0 1728.16845769 0 258.84438068 0 76.03941214 0 34069
0.17850000 0.17849800 7924.47394503 0 157.76512741 0 1654.02817071 0 153.67722509 0 182.21724954 0 34536
