### header ###
fiducial parameters:
Omega_m = 0.31
Omega_nu = 0
Omega_de = 0.69
Omega_k = 0
H_0 = 100
w_de = -1
zeff = 0
beta = 0
fgrowth = 0
b_1 = 2
gamma = 0.55
Lx = 3500 Ly = 3500 Lz = 3500
nx = 700 ny = 700 nz = 700
xoffset = -685.467585 yoffset = -31.7331281 zoffset = 572.489161
bins = 400 dk = 0.001
kx_ny = 0.628318531 ky_ny = 0.628318531 kz_ny = 0.628318531
############################
A(data) = 8.06447063 (not used)
A(ran) = 8.06967982 (used)
Ngal = 479904
weighted Ngal = 0
Nran = 23820508
weighted Nran = 0
SN(data) = 3479.42682
SN(ran) = 70.2898378
SN(data+ran) = 3549.71666
############################
13 columns: k_central k_mean P_0(k) sigma^{lin}_{P_0(k)} P^img_1(k) sigma^{lin}_{P_1(k)} P_2(k) sigma^{lin}_{P_2(k)} P^img_3(k) sigma^{lin}_{P_3(k)} P_4(k) sigma^{lin}_{P_4(k)} N_modes
### header ###
0.00050000 0 0 0 0 0 0 0 0 0 0 0 0
0.00150000 0.00179520 21292.74496575 0 -7421.21463737 0 53214.81103414 0 -13612.64830179 0 -73918.95121253 0 3
0.00250000 0.00253879 44011.16247514 0 -10215.03899724 0 12075.58817046 0 17945.91334281 0 60649.54498012 0 6
0.00350000 0.00331552 42511.30535521 0 -11744.63638163 0 -8130.56312688 0 -4534.05057929 0 26484.00445697 0 7
0.00450000 0.00420575 42226.41443762 0 -10148.49432508 0 -31272.34204804 0 -20069.91741277 0 -19468.02583563 0 24
0.00550000 0.00557378 64564.27614300 0 -11958.33225063 0 -15691.14511674 0 -27713.91829782 0 -21742.72424638 0 45
0.00650000 0.00659388 61543.74593247 0 -9136.11844993 0 556.97558428 0 -71264.69350701 0 -14759.18753676 0 40
0.00750000 0.00754703 63363.92540941 0 17081.71839072 0 -484.25476934 0 -41401.63696188 0 -9279.54934564 0 57
0.00850000 0.00846663 62981.26586368 0 4196.30038302 0 20526.65081154 0 -21014.49744305 0 13000.79163231 0 75
0.00950000 0.00948925 60053.30028864 0 -8216.53972910 0 18025.52335826 0 15361.07911390 0 -28376.70766147 0 112
0.01050000 0.01054430 69528.55297544 0 -18221.94640054 0 11677.42736999 0 41206.76404507 0 9819.69056726 0 105
0.01150000 0.01145670 94610.91183362 0 -19078.05855552 0 3607.77310193 0 20356.80134883 0 -30916.92042136 0 144
0.01250000 0.01249090 97067.08564814 0 -6890.55132579 0 -15683.39448937 0 23171.82921072 0 -764.27718570 0 169
0.01350000 0.01339930 100575.24104368 0 -1717.76047236 0 -10350.64175929 0 4631.50918234 0 -9633.44299149 0 180
0.01450000 0.01448870 98627.39766158 0 13029.46895359 0 -3247.12533794 0 -15819.25191490 0 1855.81021820 0 267
0.01550000 0.01550050 88994.03217637 0 16627.42090341 0 -1440.79733935 0 -15657.37452605 0 2333.37065996 0 238
0.01650000 0.01653350 71696.73562143 0 16862.37563606 0 25982.64958918 0 -25910.79020111 0 17531.91911784 0 315
0.01750000 0.01747870 60267.66049713 0 14232.25559864 0 29542.06984863 0 -3408.86985889 0 34162.88316520 0 297
0.01850000 0.01844180 65523.91453503 0 -6716.59403056 0 51692.36637158 0 4554.09148721 0 12235.47254085 0 388
0.01950000 0.01947590 66960.65940350 0 -5345.20909550 0 47796.45816089 0 17963.18616953 0 27359.38245713 0 399
0.02050000 0.02045430 73744.67281989 0 -5525.18973543 0 40991.51805060 0 18831.47788181 0 16697.73016601 0 462
0.02150000 0.02154770 78107.16879843 0 -6883.06643421 0 31478.06584317 0 24308.62479985 0 18984.27596431 0 571
0.02250000 0.02255340 79904.31783975 0 -1637.96222740 0 31195.83228354 0 5634.08605002 0 11108.08842781 0 510
0.02350000 0.02348930 78157.43715311 0 7590.08973551 0 19733.20801504 0 10211.36298540 0 9622.35959435 0 555
0.02450000 0.02439640 76097.54184385 0 5531.34594803 0 21762.32226130 0 -12474.85620342 0 16391.91255452 0 592
0.02550000 0.02547300 64714.41686754 0 6786.38289390 0 17259.09703431 0 2731.62003903 0 14394.57588048 0 837
0.02650000 0.02652900 61004.41299056 0 7262.52607807 0 20692.40351408 0 6382.48662916 0 15821.79854960 0 723
0.02750000 0.02749970 61852.22090192 0 -4403.47465270 0 17183.58377905 0 9276.73697513 0 8351.11276494 0 826
0.02850000 0.02848090 58893.25281739 0 2841.12533149 0 23049.92291447 0 6155.69219990 0 9779.06620750 0 831
0.02950000 0.02946900 58349.71239204 0 5933.20490499 0 20048.21565613 0 -269.07742328 0 9549.37082914 0 996
0.03050000 0.03053250 54146.10427464 0 255.50607475 0 26322.34851462 0 -5331.32440018 0 23022.90644191 0 1041
0.03150000 0.03150510 55306.37319239 0 1874.48923017 0 31099.83522737 0 2340.41265854 0 18387.69910308 0 1036
0.03250000 0.03246190 52910.10065514 0 2160.05555957 0 28997.86508379 0 5708.22633700 0 12618.90714931 0 1059
0.03350000 0.03345080 53554.95285257 0 710.08701357 0 25308.12356123 0 5910.11910775 0 9396.81633779 0 1302
0.03450000 0.03451200 52218.96613996 0 -2038.12711867 0 21899.06547282 0 859.48921405 0 11067.22047690 0 1339
0.03550000 0.03553350 53381.33879942 0 779.77954768 0 18629.85084686 0 -9.75826131 0 -354.61666866 0 1365
0.03650000 0.03647120 51730.67661545 0 545.65523939 0 18280.85116858 0 -564.38518405 0 4364.40041842 0 1308
0.03750000 0.03744890 53073.74961595 0 924.53912236 0 17422.52454864 0 -1871.11217110 0 -597.33531548 0 1579
0.03850000 0.03847530 53367.05550040 0 274.85385514 0 16720.53915513 0 1058.15661657 0 -4649.45742087 0 1662
0.03950000 0.03950240 50242.00254359 0 -295.01655863 0 14054.87695505 0 276.97752704 0 911.95985413 0 1683
0.04050000 0.04050350 53295.52828207 0 -403.58402517 0 13232.75683726 0 3316.36058503 0 1727.65913075 0 1822
0.04150000 0.04152450 52015.45680979 0 -2981.56669949 0 11964.75419903 0 6220.45422777 0 -1900.23238538 0 1887
0.04250000 0.04250150 54186.40753698 0 139.30313301 0 13450.21729670 0 1941.13355326 0 -6901.08110669 0 1920
0.04350000 0.04349210 51460.95478287 0 5290.07999023 0 9979.28705720 0 -4807.90238903 0 -8000.57403351 0 2005
0.04450000 0.04448520 47372.05595059 0 7362.24343539 0 16893.04597581 0 -6854.66592105 0 -1279.32962652 0 2151
0.04550000 0.04548030 41242.41693099 0 5876.54781890 0 16240.99676724 0 -3305.56506833 0 145.42169970 0 2274
0.04650000 0.04648670 39594.19065849 0 593.93500453 0 20544.03436151 0 1921.64626158 0 1651.85799504 0 2311
0.04750000 0.04749250 38974.80480813 0 -1127.91558463 0 18927.03204499 0 5359.97957681 0 298.75125379 0 2568
0.04850000 0.04851840 40568.99813552 0 -517.00227722 0 19189.88903619 0 4699.46003975 0 -547.27733497 0 2493
0.04950000 0.04949480 41067.47419886 0 280.83623224 0 17480.54353069 0 4794.87026271 0 316.40607572 0 2644
0.05050000 0.05050630 39504.28338096 0 1501.18579891 0 15761.67582584 0 517.80169907 0 4133.21027620 0 2829
0.05150000 0.05149060 37905.21823065 0 873.82012406 0 12511.06270558 0 703.75585824 0 2345.43949401 0 2784
0.05250000 0.05249300 38391.62545993 0 1065.91388734 0 16635.39297728 0 1090.76572039 0 5944.42117004 0 3055
0.05350000 0.05348950 35478.38607690 0 2072.41810863 0 12438.42825477 0 2219.66895639 0 4630.96663842 0 3009
0.05450000 0.05448610 35088.64024328 0 901.74009832 0 13972.49885839 0 40.26672367 0 1884.22180369 0 3336
0.05550000 0.05550870 33914.42019627 0 1453.61909149 0 14894.49134604 0 862.87955991 0 4468.87887540 0 3349
0.05650000 0.05647670 33000.51050573 0 1183.14434082 0 13845.94218572 0 1354.75430319 0 2855.48613678 0 3324
0.05750000 0.05747970 32018.39529432 0 -259.75341855 0 14084.66150881 0 1285.45262215 0 5832.61283402 0 3639
0.05850000 0.05849280 33646.80210540 0 -1227.73259287 0 15012.96522160 0 236.92228477 0 3591.70715862 0 3846
0.05950000 0.05951020 33976.53593850 0 -1475.44264371 0 13271.06708113 0 2465.93960501 0 2792.17458347 0 3787
0.06050000 0.06049470 35522.45392968 0 -983.65426456 0 10649.80490357 0 2834.62587682 0 1341.81075547 0 3930
0.06150000 0.06148310 35548.03100001 0 -369.44583329 0 9906.78547429 0 1972.35750924 0 2602.00740471 0 4083
0.06250000 0.06249100 34818.36479446 0 1557.69894479 0 8608.00177306 0 1753.11440551 0 809.74568757 0 4303
0.06350000 0.06350600 32316.13010869 0 2098.83667565 0 6723.23742546 0 1552.62782002 0 3009.94506800 0 4470
0.06450000 0.06451750 32053.71601049 0 1260.44024038 0 7268.12867443 0 2042.79963974 0 2178.69028224 0 4479
0.06550000 0.06550280 30130.12101975 0 216.66214482 0 8156.71595810 0 1948.19769649 0 4155.28849189 0 4636
0.06650000 0.06648880 31404.21343663 0 406.20373723 0 8534.84692298 0 288.66436588 0 5000.58298552 0 4653
0.06750000 0.06749660 30788.48145347 0 -592.68493905 0 8583.49871824 0 -1315.08216336 0 6455.65255156 0 5220
0.06850000 0.06852730 32268.85128172 0 209.74858520 0 10310.99176412 0 -1774.83830680 0 8620.88995915 0 5029
0.06950000 0.06949320 31329.69669060 0 1073.81620556 0 12211.55631924 0 -2056.42967159 0 7614.92496008 0 5040
0.07050000 0.07048030 31766.94279769 0 1441.17379840 0 13649.07625044 0 -646.33810343 0 6704.33696699 0 5475
0.07150000 0.07148790 29787.87545960 0 1059.12323053 0 13416.77887575 0 1165.18502997 0 6367.09609766 0 5509
0.07250000 0.07249820 29465.67080738 0 627.00250260 0 12400.67162714 0 930.43292086 0 2809.65778436 0 5916
0.07350000 0.07351270 28638.12525044 0 478.02880109 0 11551.86720654 0 127.98832428 0 1729.48606435 0 5721
0.07450000 0.07449140 28909.17576200 0 -275.17938149 0 10938.79258133 0 11.24361368 0 139.67516312 0 6028
0.07550000 0.07549160 28890.57425630 0 -444.68892383 0 10669.85688381 0 66.84163191 0 -1372.14892548 0 6183
0.07650000 0.07648840 28799.89191604 0 402.71706214 0 11122.37172683 0 -260.38454106 0 -1002.24137624 0 6330
0.07750000 0.07749960 28783.06198231 0 428.67280598 0 11076.20013233 0 -464.62685913 0 -2632.32343006 0 6583
0.07850000 0.07848650 28397.52363213 0 835.31279281 0 11258.89349184 0 1060.39101172 0 -237.07397562 0 6549
0.07950000 0.07947320 27903.03360573 0 1027.82619720 0 12093.96822966 0 198.02742215 0 311.38920534 0 6828
0.08050000 0.08048110 26500.50222095 0 919.64183309 0 11955.56416943 0 1468.44493442 0 960.09900074 0 7147
0.08150000 0.08149960 25792.09487905 0 1064.80665486 0 11297.75735195 0 1069.79362996 0 900.26305019 0 7386
0.08250000 0.08250610 24709.33223504 0 1081.67423449 0 11940.61653092 0 931.13158455 0 2037.34098361 0 7227
0.08350000 0.08350160 23488.60842378 0 1167.58772445 0 10972.98392037 0 171.96649122 0 920.73910048 0 7798
0.08450000 0.08449610 22972.85953373 0 709.22669393 0 10897.42637581 0 -258.13243019 0 621.40212070 0 7371
0.08550000 0.08548940 22039.90544451 0 318.96599721 0 10804.70672778 0 -343.12470273 0 388.27210718 0 8256
0.08650000 0.08650700 22027.50444071 0 610.75497316 0 11002.35879812 0 662.92444601 0 253.69796410 0 8037
0.08750000 0.08749060 21493.92910770 0 341.60115084 0 10281.55045242 0 948.71332913 0 406.96994210 0 8155
0.08850000 0.08849210 21523.04932197 0 163.96341484 0 9549.39297379 0 1262.82079022 0 -397.80094992 0 8718
0.08950000 0.08949900 21045.27850605 0 31.60196516 0 8838.43899719 0 1399.12110873 0 614.63582301 0 8571
0.09050000 0.09049190 21066.86953945 0 96.20421938 0 8505.27274339 0 1493.71197966 0 193.33497089 0 8932
0.09150000 0.09150830 21014.60816630 0 68.88447584 0 7971.19915576 0 654.66559892 0 -127.93849881 0 9285
0.09250000 0.09250820 20812.53823836 0 268.13406120 0 7509.10675178 0 125.50258735 0 -143.04557880 0 9204
0.09350000 0.09350330 20636.37755050 0 104.87329609 0 7154.38268157 0 -358.02473024 0 -1620.51224348 0 9349
0.09450000 0.09448040 20105.90246844 0 741.01090956 0 7137.86277294 0 -501.21424926 0 -544.29002174 0 9564
0.09550000 0.09549270 19554.72213896 0 917.91787212 0 7219.07827548 0 -179.58535793 0 -1812.14096912 0 10155
0.09650000 0.09649430 19190.55337568 0 -8.74546469 0 7328.77179746 0 109.14953866 0 -206.98382569 0 9913
0.09750000 0.09749140 18854.95121042 0 483.30697833 0 8094.00231033 0 936.68878438 0 -580.28504249 0 10476
0.09850000 0.09850240 18733.81997691 0 273.74440819 0 7912.40511098 0 1275.34358959 0 -207.31820990 0 10575
0.09950000 0.09950330 18107.56928517 0 471.06652325 0 7472.56807988 0 308.07193682 0 -143.26923976 0 10882
0.10050000 0.10051200 18240.76935273 0 686.74987455 0 7837.30153173 0 -383.68041408 0 1283.83606272 0 10875
0.10150000 0.10150300 17236.62021493 0 642.78942332 0 8481.36759411 0 -154.11126022 0 760.44173238 0 11118
0.10250000 0.10250800 17214.69701179 0 483.91927790 0 8172.59367189 0 -658.38590006 0 534.13005648 0 11575
0.10350000 0.10349800 16792.39854321 0 159.06391111 0 8172.12863425 0 248.20609099 0 1279.39606047 0 11364
0.10450000 0.10450100 16671.48875619 0 -1.63883694 0 7715.40630780 0 819.62663024 0 -411.62364023 0 12093
0.10550000 0.10551000 16854.40356219 0 -67.67072759 0 7553.15245991 0 814.03510620 0 -288.60125363 0 12067
0.10650000 0.10649700 16510.71859982 0 304.35385015 0 7151.53709409 0 850.52616711 0 -132.74610225 0 12054
0.10750000 0.10749900 16500.53206099 0 452.38529681 0 7315.83932207 0 1021.69102201 0 752.57263113 0 12807
0.10850000 0.10850100 15918.90283826 0 215.82729153 0 6331.68680289 0 828.32726308 0 682.13492957 0 12736
0.10950000 0.10950300 15858.33722151 0 -107.78243871 0 6536.44730576 0 483.05674379 0 720.49389167 0 12933
0.11050000 0.11050200 15907.27689720 0 150.10861480 0 6130.42515466 0 459.63324064 0 1268.84413492 0 13428
0.11150000 0.11150900 15742.29925741 0 300.20947897 0 5881.20926765 0 468.77787371 0 1064.48555744 0 13453
0.11250000 0.11250000 15386.10256799 0 320.51169376 0 5010.47057158 0 910.33111515 0 1983.07551967 0 13668
0.11350000 0.11349100 15140.96129651 0 -8.86980689 0 4574.19882908 0 525.55786261 0 639.57844913 0 13791
0.11450000 0.11448600 14720.43439989 0 436.84639616 0 4499.84816792 0 563.48500404 0 728.60326237 0 14205
0.11550000 0.11549300 14666.95507102 0 201.58053118 0 4362.65099109 0 -18.63837654 0 610.73282851 0 14776
0.11650000 0.11649800 14156.18872714 0 65.02532775 0 4072.65573177 0 -277.90095893 0 768.20121762 0 14553
0.11750000 0.11747300 14382.28559993 0 101.82674592 0 4579.81249776 0 232.61293595 0 916.13633505 0 14568
0.11850000 0.11849100 14328.47410131 0 110.79743276 0 4710.63201549 0 351.88623336 0 955.38772653 0 16015
0.11950000 0.11950300 14032.73230541 0 326.55718311 0 4538.90025756 0 359.15300014 0 1517.51747802 0 15270
0.12050000 0.12050700 13737.76557224 0 553.52766233 0 4634.31048052 0 -57.85234356 0 1135.68835665 0 15999
0.12150000 0.12150000 13228.10646084 0 473.48250452 0 4409.73051622 0 342.82574996 0 1850.48442997 0 15670
0.12250000 0.12250700 13105.09293210 0 -30.46738403 0 4163.78096503 0 718.50751660 0 1511.53842262 0 16887
0.12350000 0.12352200 12856.07634693 0 -171.84026672 0 3442.81760679 0 494.95174235 0 1106.10974813 0 16407
0.12450000 0.12449800 13201.20071153 0 32.41168427 0 3839.61651131 0 146.19786967 0 813.73615343 0 16306
0.12550000 0.12549900 13318.01373836 0 -166.21220402 0 3551.53676418 0 -19.04760966 0 393.43070332 0 17523
0.12650000 0.12650100 13248.47953850 0 113.04179300 0 3676.65403463 0 -498.86470194 0 546.61299548 0 17154
0.12750000 0.12750600 13266.30598146 0 312.48868719 0 4282.69773358 0 -678.16107219 0 127.70265830 0 18007
0.12850000 0.12850300 13027.91882812 0 414.70506822 0 4426.97012597 0 -440.56005391 0 648.24807946 0 17496
0.12950000 0.12949900 12908.00555033 0 473.13040459 0 4966.81239482 0 -477.98561903 0 472.99421500 0 18405
0.13050000 0.13049000 12435.21728057 0 361.04304599 0 4900.24557801 0 104.12502838 0 1211.10196099 0 18100
0.13150000 0.13148800 12345.42072629 0 194.22407857 0 5145.73009157 0 619.67926696 0 431.46413907 0 19059
0.13250000 0.13249300 12160.40217857 0 -72.63201490 0 4435.91656442 0 562.27701341 0 729.13141226 0 18957
0.13350000 0.13349100 12179.33585401 0 -51.77452302 0 4358.77567741 0 985.49669941 0 446.78934385 0 19468
0.13450000 0.13450700 12150.54780949 0 80.98840916 0 3813.61869264 0 515.36135868 0 655.87580403 0 19953
0.13550000 0.13551000 12016.79412568 0 133.39715495 0 3378.87493096 0 709.94196612 0 664.12690048 0 19956
0.13650000 0.13649900 12008.93277506 0 54.15175116 0 3469.62370517 0 181.27388747 0 683.64630191 0 19723
0.13750000 0.13749600 11747.29373959 0 237.26884854 0 2893.24276441 0 -55.21469434 0 643.92765832 0 20946
0.13850000 0.13851100 11613.87222553 0 293.80856799 0 3379.63892137 0 -359.09763852 0 348.96978301 0 20955
0.13950000 0.13949800 11338.61423053 0 404.08449426 0 3298.95489042 0 -133.25210749 0 994.39774134 0 20506
0.14050000 0.14048300 11233.53786801 0 175.73440336 0 3612.99923925 0 369.68056658 0 612.12461974 0 21447
0.14150000 0.14148400 11050.23553063 0 -133.98841710 0 3267.15517354 0 339.63138425 0 794.62089186 0 21771
0.14250000 0.14249400 11129.56873796 0 30.82424506 0 3541.01805560 0 359.25375830 0 404.51188599 0 22470
0.14350000 0.14350900 11089.26547562 0 182.38887058 0 3328.63979326 0 124.23702063 0 1110.26629886 0 22519
0.14450000 0.14449900 10864.08760578 0 252.94061709 0 3401.30746104 0 147.42689773 0 1489.72594272 0 22218
0.14550000 0.14550500 10711.13451074 0 1.81475404 0 3120.48008666 0 324.84872339 0 1608.69807290 0 23559
0.14650000 0.14650700 10745.33692210 0 77.97075776 0 3364.37018544 0 -17.54243783 0 1426.18187059 0 23044
0.14750000 0.14750500 10696.25330618 0 183.00781353 0 3455.25182756 0 14.99281359 0 1545.67440003 0 23649
0.14850000 0.14849900 10663.73388819 0 172.52010746 0 3440.79137134 0 137.25807461 0 1340.94711414 0 23640
0.14950000 0.14949500 10443.54963685 0 123.54167863 0 3402.25968097 0 -9.11437240 0 1555.87201119 0 24457
0.15050000 0.15050000 10289.09070562 0 156.35672769 0 3366.89467550 0 293.79749567 0 1230.33458920 0 24591
0.15150000 0.15149900 10255.59692305 0 107.78874994 0 3293.67339148 0 326.33795108 0 1343.20586840 0 25020
0.15250000 0.15250500 10125.70748060 0 196.19495239 0 3348.13815726 0 184.82921097 0 1032.42010476 0 25297
0.15350000 0.15350100 9783.69443928 0 296.62315296 0 2886.34470605 0 53.82622481 0 1187.23002868 0 25452
0.15450000 0.15450400 9645.32359602 0 269.55131878 0 2987.60111652 0 62.77365977 0 865.01098243 0 26061
0.15550000 0.15549900 9543.60214791 0 -43.05418144 0 2504.08376401 0 194.31597887 0 1376.00209451 0 26128
0.15650000 0.15649500 9640.25247125 0 -39.12073805 0 2952.21396640 0 -24.94395480 0 783.05031243 0 26331
0.15750000 0.15749700 9602.81694104 0 63.21123805 0 2729.23948920 0 -71.71267977 0 641.49728302 0 27345
0.15850000 0.15849900 9480.98815106 0 289.24677017 0 2872.01711773 0 -182.64021235 0 585.16350881 0 26980
0.15950000 0.15949700 9309.24532080 0 162.11101490 0 2809.70207365 0 -158.47154173 0 540.26412443 0 27777
0.16050000 0.16050000 9151.83007885 0 37.04157689 0 3049.47326760 0 60.10832974 0 310.43477094 0 28224
0.16150000 0.16150500 9179.75448204 0 107.60096331 0 2749.39112037 0 73.20533988 0 -113.32303005 0 28075
0.16250000 0.16249700 9015.68477288 0 179.44031048 0 2680.32195815 0 1.14006192 0 -16.06594331 0 28590
0.16350000 0.16349900 8991.31458596 0 -4.02358319 0 2456.10738057 0 -31.84976379 0 -181.93711972 0 29163
0.16450000 0.16449100 8936.01939581 0 70.88579855 0 2428.93589547 0 317.78125846 0 404.80640983 0 28996
0.16550000 0.16550500 9029.38123868 0 146.26541085 0 2411.50805620 0 290.97848177 0 -62.55974246 0 30777
0.16650000 0.16650700 8748.00024807 0 92.66018965 0 2064.05850339 0 333.58035874 0 611.92531789 0 29211
0.16750000 0.16749900 8743.62667976 0 102.28558306 0 2300.14261318 0 238.33400619 0 559.31405928 0 30922
0.16850000 0.16850800 8563.73461843 0 176.76966573 0 2270.70130148 0 191.32202224 0 826.56233450 0 30867
0.16950000 0.16949900 8521.44940995 0 54.30831383 0 2229.41260223 0 215.23602938 0 816.40901264 0 30852
0.17050000 0.17049200 8383.88684641 0 72.42618038 0 2052.10039259 0 126.17799917 0 987.01914408 0 31257
0.17150000 0.17149500 8328.76881346 0 28.15614695 0 1900.58669977 0 98.72439123 0 781.78474570 0 32608
0.17250000 0.17250900 8356.10638344 0 27.16262725 0 1940.97854071 0 95.39959353 0 565.86112495 0 32361
0.17350000 0.17350400 8317.91793514 0 147.23202481 0 1746.49315527 0 -72.12401664 0 157.15061338 0 32508
0.17450000 0.17449800 8131.08352615 0 229.79613652 0 1633.64402072 0 -177.72520736 0 256.99640967 0 32791
0.17550000 0.17549800 8060.97356539 0 184.29441768 0 1836.23434792 0 -206.19436894 0 354.89015509 0 33633
0.17650000 0.17650100 7899.74944371 0 85.19035643 0 1801.10186127 0 91.61883750 0 269.09403177 0 33984
0.17750000 0.17750300 7850.01256062 0 83.66193271 0 2031.53908540 0 179.01513320 0 457.49738918 0 34069
0.17850000 0.17849800 7751.84532878 0 88.52744441 0 1884.56504576 0 345.13211522 0 515.81089507 0 34536
