### header ###
fiducial parameters:
Omega_m = 0.31
Omega_nu = 0
Omega_de = 0.69
Omega_k = 0
H_0 = 100
w_de = -1
zeff = 0
beta = 0
fgrowth = 0
b_1 = 2
gamma = 0.55
Lx = 3500 Ly = 3500 Lz = 3500
nx = 700 ny = 700 nz = 700
xoffset = -685.467585 yoffset = -31.7331281 zoffset = 572.489161
bins = 400 dk = 0.001
kx_ny = 0.628318531 ky_ny = 0.628318531 kz_ny = 0.628318531
############################
A(data) = 8.00434815 (not used)
A(ran) = 8.00345464 (used)
Ngal = 475850
weighted Ngal = 0
Nran = 23820508
weighted Nran = 0
SN(data) = 3486.75323
SN(ran) = 69.7129925
SN(data+ran) = 3556.46622
############################
13 columns: k_central k_mean P_0(k) sigma^{lin}_{P_0(k)} P^img_1(k) sigma^{lin}_{P_1(k)} P_2(k) sigma^{lin}_{P_2(k)} P^img_3(k) sigma^{lin}_{P_3(k)} P_4(k) sigma^{lin}_{P_4(k)} N_modes
### header ###
0.00050000 0 0 0 0 0 0 0 0 0 0 0 0
0.00150000 0.00179520 82438.10865125 0 -52881.31261061 0 27833.27795937 0 35057.19484080 0 -207084.58385066 0 3
0.00250000 0.00253879 123484.10253995 0 -18682.11222001 0 13327.09304472 0 21586.60446643 0 214002.57239735 0 6
0.00350000 0.00331552 103100.83833481 0 19536.23135652 0 15359.63971167 0 -88924.71942300 0 24475.37401162 0 7
0.00450000 0.00420575 69749.22440908 0 27298.26322413 0 -22088.29150397 0 -5709.79860713 0 40414.53920430 0 24
0.00550000 0.00557378 58994.23241973 0 -245.11691237 0 4412.56503138 0 4214.71365919 0 -20107.45259391 0 45
0.00650000 0.00659388 67189.52435750 0 -13815.16112272 0 6978.46558485 0 -16162.60470752 0 56354.92235271 0 40
0.00750000 0.00754703 74787.68581780 0 -6334.28879923 0 50558.22814041 0 -17109.17775627 0 47463.40263035 0 57
0.00850000 0.00846663 78157.88004610 0 3418.72422798 0 62125.59660169 0 10714.93231815 0 82011.04908299 0 75
0.00950000 0.00948925 84164.28409047 0 19075.40119756 0 82932.93084739 0 37630.84602164 0 54468.53037336 0 112
0.01050000 0.01054430 81243.84769631 0 6431.86919785 0 90184.97143386 0 33743.46350107 0 53478.77525782 0 105
0.01150000 0.01145670 91294.52910394 0 -9421.21974169 0 109602.83963806 0 31827.39769120 0 35670.26946601 0 144
0.01250000 0.01249090 85115.72896214 0 5576.26636982 0 100230.00595583 0 44351.96863306 0 44554.37073074 0 169
0.01350000 0.01339930 87456.19698230 0 6416.47866635 0 97290.96805597 0 32070.54594422 0 10278.40591217 0 180
0.01450000 0.01448870 82186.43470812 0 4630.44623916 0 71508.39537626 0 26761.47691692 0 33792.18173027 0 267
0.01550000 0.01550050 79376.38939239 0 133.21446159 0 51868.41633620 0 43997.87568536 0 25214.78386301 0 238
0.01650000 0.01653350 76481.97296155 0 -4650.89682310 0 38671.31238485 0 24645.99853707 0 40046.60585058 0 315
0.01750000 0.01747870 80639.07731471 0 -1052.44218973 0 21724.23346393 0 30492.40748781 0 10604.62981831 0 297
0.01850000 0.01844180 81083.74187943 0 2408.07563551 0 21506.21938825 0 14993.47792992 0 28308.83431033 0 388
0.01950000 0.01947590 83127.58231770 0 3580.56839985 0 27414.52263473 0 -4705.69375863 0 26412.14506890 0 399
0.02050000 0.02045430 69878.99205595 0 3191.44261643 0 30239.18341921 0 -15098.22212271 0 28989.67156343 0 462
0.02150000 0.02154770 73332.11799714 0 15338.04867828 0 50693.31050319 0 -13059.69640035 0 28107.65016837 0 571
0.02250000 0.02255340 64999.30778513 0 2602.63852722 0 53919.23233911 0 3292.83189479 0 37621.43454555 0 510
0.02350000 0.02348930 67872.90824531 0 -4154.32519963 0 57232.95771083 0 11817.82444869 0 13910.93673240 0 555
0.02450000 0.02439640 63063.20106734 0 -1323.72964904 0 43910.51504254 0 13970.72728642 0 27586.14366942 0 592
0.02550000 0.02547300 66902.75114470 0 3286.96356264 0 45355.67487787 0 16279.74990410 0 -2918.21085688 0 837
0.02650000 0.02652900 62782.62835643 0 499.02635788 0 33080.34196768 0 8517.80661509 0 14211.77179773 0 723
0.02750000 0.02749970 61541.42074426 0 1767.81845287 0 23940.91289262 0 10148.02928744 0 -2357.97336570 0 826
0.02850000 0.02848090 59462.37031307 0 2281.17572076 0 25841.69889424 0 1415.12061810 0 4290.61444582 0 831
0.02950000 0.02946900 55296.74026979 0 276.93766667 0 23372.90262943 0 4820.36982677 0 -421.13366001 0 996
0.03050000 0.03053250 58331.99667233 0 -1487.71077961 0 20873.65747136 0 8282.12110900 0 -375.76480907 0 1041
0.03150000 0.03150510 58575.80926484 0 -1321.31588223 0 17171.62566825 0 7361.50158963 0 1267.65939616 0 1036
0.03250000 0.03246190 59370.35929382 0 3427.75924503 0 25675.50329871 0 2768.66803788 0 -5638.91358364 0 1059
0.03350000 0.03345080 55196.53573019 0 5948.38506232 0 20062.38823190 0 -4007.50617254 0 6416.35687078 0 1302
0.03450000 0.03451200 51059.02939195 0 5711.96878279 0 20705.91175036 0 -579.90526175 0 12156.08397190 0 1339
0.03550000 0.03553350 50953.39941318 0 -273.90938583 0 22334.31856144 0 -2746.36837569 0 12288.84114647 0 1365
0.03650000 0.03647120 51196.76911270 0 -2526.41664317 0 22982.60317957 0 3161.89058149 0 -5234.77372776 0 1308
0.03750000 0.03744890 52517.14384732 0 -871.63887607 0 23171.49704097 0 874.86313706 0 -1183.32149802 0 1579
0.03850000 0.03847530 51914.25576095 0 -368.12601218 0 21266.94644892 0 -1348.88597103 0 -11516.10359738 0 1662
0.03950000 0.03950240 51046.84983465 0 1017.76256117 0 19924.09489491 0 3582.17388695 0 -9149.42738437 0 1683
0.04050000 0.04050350 49591.61418374 0 2173.57486817 0 17209.27157263 0 458.61680122 0 -8819.88178079 0 1822
0.04150000 0.04152450 48067.50867245 0 2507.21723193 0 10917.36763281 0 5834.63906946 0 -8245.44956920 0 1887
0.04250000 0.04250150 46248.10425825 0 -98.00801181 0 11627.93407805 0 5879.55949125 0 -4845.36006389 0 1920
0.04350000 0.04349210 46306.01251705 0 626.39906090 0 7791.08564794 0 5022.78299678 0 -6832.80915186 0 2005
0.04450000 0.04448520 45321.23994768 0 163.23485587 0 9586.55169588 0 283.84347566 0 -6744.42985516 0 2151
0.04550000 0.04548030 44832.95042318 0 2064.95536170 0 7911.64112057 0 395.67063463 0 -5158.81757950 0 2274
0.04650000 0.04648670 43066.02882862 0 2110.19688091 0 9551.04275019 0 -3771.61029227 0 -4617.71306562 0 2311
0.04750000 0.04749250 41181.29769799 0 2806.66825665 0 12145.78670981 0 -2788.39892070 0 -3157.02983089 0 2568
0.04850000 0.04851840 40138.50614657 0 1804.24640152 0 13354.55241027 0 -2437.87126160 0 -3525.01854624 0 2493
0.04950000 0.04949480 36984.88659172 0 1713.30939779 0 13329.30750968 0 441.12142077 0 -1482.75037809 0 2644
0.05050000 0.05050630 37743.00867206 0 585.18565346 0 14781.00001665 0 2923.45913884 0 -2305.30231654 0 2829
0.05150000 0.05149060 37049.10607567 0 771.44651602 0 15438.58538763 0 430.55510120 0 864.87700730 0 2784
0.05250000 0.05249300 35895.81272256 0 969.04101027 0 14017.45249716 0 2085.12913752 0 596.31444713 0 3055
0.05350000 0.05348950 36008.08609622 0 712.42438134 0 13759.57805213 0 2265.89591251 0 4523.57616001 0 3009
0.05450000 0.05448610 35284.17749958 0 -264.02069253 0 16800.03844733 0 1943.43659682 0 1046.43545352 0 3336
0.05550000 0.05550870 36169.85276182 0 -863.37560006 0 15262.09253002 0 -216.04763079 0 1219.12939648 0 3349
0.05650000 0.05647670 35104.03077478 0 666.20739032 0 14913.42502148 0 670.85665951 0 1385.13676249 0 3324
0.05750000 0.05747970 35725.74181335 0 1006.10229590 0 14518.58591845 0 1006.56511908 0 1332.86431702 0 3639
0.05850000 0.05849280 34238.61786696 0 -625.83658679 0 11687.72463207 0 1079.77200908 0 -983.71516235 0 3846
0.05950000 0.05951020 35005.59780714 0 345.17861899 0 9500.05469440 0 2842.76403556 0 -3122.82741953 0 3787
0.06050000 0.06049470 33858.39423268 0 97.26738400 0 8859.02244902 0 333.75087254 0 -3231.79016807 0 3930
0.06150000 0.06148310 33411.84737275 0 478.31335984 0 7457.52079045 0 1042.89009511 0 -4646.19108505 0 4083
0.06250000 0.06249100 33868.02715528 0 578.09715111 0 7737.47345117 0 267.75538769 0 -3909.03998792 0 4303
0.06350000 0.06350600 33190.62232287 0 967.30819143 0 8698.90555982 0 -695.73063721 0 -2284.84066028 0 4470
0.06450000 0.06451750 32614.08636956 0 1436.70057917 0 9541.58698479 0 -895.77765141 0 -813.87787919 0 4479
0.06550000 0.06550280 31423.59000506 0 1412.33039224 0 10458.84051742 0 -197.84472879 0 1459.25490482 0 4636
0.06650000 0.06648880 30721.82605806 0 906.96845010 0 11919.24694402 0 712.78644636 0 1789.60878811 0 4653
0.06750000 0.06749660 30057.70801543 0 1102.32965643 0 11813.06334901 0 2702.02371479 0 1665.48802690 0 5220
0.06850000 0.06852730 29044.14740154 0 -399.97444728 0 10080.88670974 0 1915.20216853 0 2711.09194882 0 5029
0.06950000 0.06949320 29042.48655281 0 -31.55878309 0 10229.87591249 0 3114.88856263 0 3501.91060434 0 5040
0.07050000 0.07048030 29278.88068769 0 287.60363716 0 8346.98278778 0 1729.86252339 0 2326.49474624 0 5475
0.07150000 0.07148790 28226.45621368 0 760.70082478 0 8047.77535421 0 172.19568835 0 4032.56284360 0 5509
0.07250000 0.07249820 28067.67907578 0 470.60037837 0 7728.13948135 0 356.22769193 0 2584.69028869 0 5916
0.07350000 0.07351270 27281.54401366 0 656.35523569 0 8790.90550674 0 -1584.88150222 0 3477.85044251 0 5721
0.07450000 0.07449140 27485.16406707 0 858.28454511 0 9904.68173257 0 -539.37501675 0 1539.65105533 0 6028
0.07550000 0.07549160 26663.48684228 0 538.88894169 0 9746.65751276 0 -697.70593996 0 2896.61982348 0 6183
0.07650000 0.07648840 25930.49893928 0 118.25021460 0 9328.40044274 0 952.65729123 0 975.27694361 0 6330
0.07750000 0.07749960 26508.80646456 0 722.51569818 0 9835.35790688 0 -397.23958305 0 303.53449811 0 6583
0.07850000 0.07848650 24966.09944758 0 995.71424076 0 8881.69857025 0 -137.84601506 0 -836.67911769 0 6549
0.07950000 0.07947320 24462.41939158 0 1093.65448994 0 9837.48379325 0 280.64689548 0 519.27653274 0 6828
0.08050000 0.08048110 23679.05241066 0 231.81462133 0 8538.53400715 0 1388.56918318 0 1703.07856966 0 7147
0.08150000 0.08149960 23659.56511898 0 -247.84734767 0 9126.74019081 0 1651.80263342 0 1308.82629984 0 7386
0.08250000 0.08250610 24006.46105555 0 163.26142945 0 8586.88684963 0 1888.68395059 0 2543.50124036 0 7227
0.08350000 0.08350160 23689.79256573 0 439.70084150 0 8211.50182130 0 1540.10502065 0 2541.36428167 0 7798
0.08450000 0.08449610 22419.13256955 0 803.74005859 0 8343.24034200 0 -285.04260843 0 2984.89946926 0 7371
0.08550000 0.08548940 22854.71782791 0 931.58997880 0 8472.29936008 0 849.54515913 0 4067.08635239 0 8256
0.08650000 0.08650700 21401.14302572 0 662.58563287 0 8145.30039121 0 -385.54720805 0 3990.48800929 0 8037
0.08750000 0.08749060 21258.97437505 0 742.27647628 0 8178.67237822 0 -108.76809707 0 4754.31233690 0 8155
0.08850000 0.08849210 20693.06785357 0 -221.86724472 0 8092.10894278 0 1605.33208616 0 3892.66401952 0 8718
0.08950000 0.08949900 20896.24501399 0 -380.63773922 0 7407.36315902 0 1612.88341168 0 2202.00859831 0 8571
0.09050000 0.09049190 21008.73983415 0 -224.69954540 0 6649.42930821 0 867.43692880 0 1065.44663523 0 8932
0.09150000 0.09150830 20477.48968935 0 542.01465899 0 6358.81399870 0 -158.38960653 0 1412.96151476 0 9285
0.09250000 0.09250820 20641.69226641 0 629.33433420 0 6124.76719668 0 -448.36604290 0 2123.29544117 0 9204
0.09350000 0.09350330 19762.66039906 0 300.72655654 0 5892.54732826 0 564.75942863 0 2229.62297641 0 9349
0.09450000 0.09448040 19337.70457252 0 712.84291522 0 5824.20893948 0 398.54611738 0 1402.54245710 0 9564
0.09550000 0.09549270 18952.83056182 0 563.97993696 0 5378.48143158 0 610.77158165 0 1881.40943318 0 10155
0.09650000 0.09649430 18372.19784833 0 541.24513241 0 5584.44881786 0 276.27664887 0 1385.56858316 0 9913
0.09750000 0.09749140 17983.78069369 0 637.77698188 0 5643.59717704 0 -434.63193120 0 1982.79871155 0 10476
0.09850000 0.09850240 17686.37804906 0 630.74494839 0 6173.69580006 0 -394.45378613 0 2787.63493029 0 10575
0.09950000 0.09950330 17278.58432599 0 -207.80539220 0 6377.54837229 0 57.70109560 0 1522.33393932 0 10882
0.10050000 0.10051200 17710.51571717 0 -121.13566245 0 6030.36455528 0 -109.33821107 0 553.66385193 0 10875
0.10150000 0.10150300 17792.22947433 0 -84.00871793 0 6773.71615430 0 -428.19005262 0 -367.45945822 0 11118
0.10250000 0.10250800 17643.74959851 0 112.09621646 0 6385.12184247 0 -507.29184836 0 -409.70591357 0 11575
0.10350000 0.10349800 17348.00780261 0 346.30024549 0 6095.34802964 0 -464.72097389 0 -155.23177949 0 11364
0.10450000 0.10450100 17703.76159903 0 -12.00959711 0 6343.08022513 0 518.97868720 0 -1040.67563015 0 12093
0.10550000 0.10551000 17385.43226049 0 -64.33142515 0 5592.14408361 0 1081.99422467 0 -203.23362928 0 12067
0.10650000 0.10649700 16977.30636768 0 597.41614345 0 5824.44145830 0 742.08381783 0 -1061.23250841 0 12054
0.10750000 0.10749900 17147.82016989 0 546.59085083 0 5761.93818470 0 646.12772926 0 -29.70959412 0 12807
0.10850000 0.10850100 16103.69993949 0 694.32666643 0 5716.75202712 0 916.66559218 0 1313.05592792 0 12736
0.10950000 0.10950300 15719.93316127 0 669.05187056 0 5628.43916436 0 174.29278667 0 2710.22830748 0 12933
0.11050000 0.11050200 15334.94842733 0 451.99776544 0 6102.70005332 0 623.16040589 0 2979.23043895 0 13428
0.11150000 0.11150900 14898.47738298 0 287.81068964 0 5862.97314867 0 642.79828118 0 2943.71042093 0 13453
0.11250000 0.11250000 14427.57140844 0 433.74393075 0 5865.23190293 0 -181.90500998 0 2709.26501522 0 13668
0.11350000 0.11349100 14254.95386452 0 326.57046990 0 5343.81398257 0 589.70094752 0 2643.21859768 0 13791
0.11450000 0.11448600 14208.00720729 0 -391.35685688 0 5215.15356818 0 -15.15070494 0 1685.07496950 0 14205
0.11550000 0.11549300 14389.15044132 0 -174.99034313 0 4846.12405430 0 280.17521444 0 1329.06650961 0 14776
0.11650000 0.11649800 14547.59540947 0 106.11516804 0 4598.27006323 0 -27.66331777 0 428.35724472 0 14553
0.11750000 0.11747300 14404.87314256 0 162.28374317 0 4626.26090038 0 288.63336337 0 156.04116644 0 14568
0.11850000 0.11849100 14122.08596669 0 260.39339892 0 4212.38847098 0 -384.98805564 0 154.93614842 0 16015
0.11950000 0.11950300 14001.61907267 0 361.30435285 0 4566.66964820 0 -297.57648013 0 153.27640693 0 15270
0.12050000 0.12050700 13738.31918848 0 197.86576621 0 5062.32226871 0 -262.45838750 0 -256.27117239 0 15999
0.12150000 0.12150000 14027.19614300 0 -53.27449086 0 5138.22305534 0 119.73612059 0 304.17337126 0 15670
0.12250000 0.12250700 13902.30031904 0 -110.54398725 0 5239.56804441 0 14.33113146 0 397.88620682 0 16887
0.12350000 0.12352200 14162.83212203 0 157.25580047 0 5240.85243409 0 94.90045313 0 87.40393561 0 16407
0.12450000 0.12449800 13876.94469521 0 273.30594413 0 5404.95536022 0 -105.84433898 0 -211.19573806 0 16306
0.12550000 0.12549900 13682.29322490 0 305.94715769 0 5294.85216223 0 354.16159611 0 387.96208209 0 17523
0.12650000 0.12650100 13594.48968909 0 -15.30782123 0 5463.48366921 0 -333.47517166 0 -366.09202611 0 17154
0.12750000 0.12750600 13613.53408777 0 160.92516891 0 5468.82052978 0 252.14894586 0 488.20758930 0 18007
0.12850000 0.12850300 13522.29813127 0 -130.68554260 0 5226.70200297 0 277.60089892 0 75.60139097 0 17496
0.12950000 0.12949900 13489.52404980 0 46.36281354 0 4947.49118802 0 466.21352328 0 -211.58769835 0 18405
0.13050000 0.13049000 13463.39336323 0 298.76011165 0 4779.61259911 0 54.51492341 0 -251.30191301 0 18100
0.13150000 0.13148800 12989.60858424 0 413.17598017 0 4492.89474794 0 651.25864458 0 -337.53650040 0 19059
0.13250000 0.13249300 12820.53418426 0 192.31853147 0 4235.81751030 0 228.73540780 0 363.35716188 0 18957
0.13350000 0.13349100 12641.49469194 0 172.90542437 0 4254.85083666 0 698.20419458 0 560.48551125 0 19468
0.13450000 0.13450700 12529.22131828 0 46.09851715 0 3979.80321584 0 548.65583941 0 644.45802267 0 19953
0.13550000 0.13551000 12363.24716925 0 281.64672641 0 3744.21736067 0 233.42232290 0 592.00842001 0 19956
0.13650000 0.13649900 12093.41461342 0 380.82486151 0 3620.99345777 0 118.28010988 0 865.02869815 0 19723
0.13750000 0.13749600 11814.39202799 0 81.00280319 0 3589.72521248 0 432.96776078 0 1000.43437283 0 20946
0.13850000 0.13851100 11709.09421897 0 131.50600187 0 3491.09294299 0 258.46349271 0 720.97221610 0 20955
0.13950000 0.13949800 11653.17897863 0 165.36184947 0 3235.93121755 0 181.43443618 0 277.93196144 0 20506
0.14050000 0.14048300 11237.85607469 0 277.67286903 0 2904.01613646 0 146.12589956 0 143.35338943 0 21447
0.14150000 0.14148400 11118.38568989 0 255.93235925 0 2874.53053547 0 7.62147978 0 -80.81590234 0 21771
0.14250000 0.14249400 10852.18485660 0 238.69939291 0 3012.66885991 0 -262.87581415 0 -208.66792630 0 22470
0.14350000 0.14350900 10742.24774348 0 312.97254779 0 2919.56168051 0 112.96539396 0 -114.65392350 0 22519
0.14450000 0.14449900 10627.17307164 0 -41.86135989 0 2843.81590642 0 -141.95384757 0 316.00193586 0 22218
0.14550000 0.14550500 10573.39478999 0 -16.39689510 0 2795.41877464 0 276.22018002 0 -150.06764720 0 23559
0.14650000 0.14650700 10685.43564483 0 58.35956676 0 2837.54897057 0 267.11983625 0 101.46335222 0 23044
0.14750000 0.14750500 10554.16216178 0 119.19579114 0 2762.09107693 0 -76.09012339 0 119.37073387 0 23649
0.14850000 0.14849900 10379.67339497 0 321.91898624 0 2808.22945445 0 146.11482724 0 -37.46808285 0 23640
0.14950000 0.14949500 10233.24189924 0 285.66819479 0 2750.54264215 0 -326.85724311 0 49.32731779 0 24457
0.15050000 0.15050000 9963.43148806 0 98.15804181 0 2810.54357034 0 207.92940223 0 393.22475807 0 24591
0.15150000 0.15149900 10041.69067988 0 -18.43863180 0 2870.38948599 0 449.39687634 0 523.26589137 0 25020
0.15250000 0.15250500 10096.06686706 0 -147.37817950 0 2744.87361184 0 727.34987520 0 681.42408631 0 25297
0.15350000 0.15350100 10270.57777853 0 -137.07095232 0 2890.95079317 0 305.23077828 0 503.24712810 0 25452
0.15450000 0.15450400 10153.82011332 0 309.05626650 0 2918.13335060 0 -126.99070781 0 735.70283704 0 26061
0.15550000 0.15549900 9968.12615378 0 402.54101218 0 3099.13264441 0 -488.45560937 0 1210.69228497 0 26128
0.15650000 0.15649500 9579.77543309 0 336.11924282 0 3033.01979292 0 -283.10162989 0 1469.07605694 0 26331
0.15750000 0.15749700 9499.30177631 0 142.21626167 0 3243.64862795 0 -31.94753242 0 1070.76799454 0 27345
0.15850000 0.15849900 9334.61201696 0 37.72418572 0 2992.66116896 0 210.43174764 0 183.97442749 0 26980
0.15950000 0.15949700 9301.83793550 0 213.86084664 0 2918.64267755 0 -3.36419303 0 322.86124108 0 27777
0.16050000 0.16050000 9012.44058171 0 195.02350043 0 2667.93202668 0 187.49099785 0 17.89033027 0 28224
0.16150000 0.16150500 8969.23637027 0 -12.20546654 0 2635.70048913 0 350.76682132 0 281.67772892 0 28075
0.16250000 0.16249700 8940.47047039 0 6.32659353 0 2525.51978486 0 363.18111191 0 102.81151849 0 28590
0.16350000 0.16349900 8984.99228848 0 60.17653526 0 2398.21019409 0 96.24895157 0 -40.93693149 0 29163
0.16450000 0.16449100 8956.96823437 0 99.76552193 0 2690.76316045 0 -212.12802781 0 251.38384822 0 28996
0.16550000 0.16550500 8786.76445726 0 179.90091919 0 2822.26916232 0 -215.64570540 0 635.88915050 0 30777
0.16650000 0.16650700 8794.34899976 0 187.57736199 0 2947.25356488 0 -119.25668892 0 806.63214983 0 29211
0.16750000 0.16749900 8583.56515218 0 133.90869636 0 2955.33636199 0 72.42141928 0 487.32069608 0 30922
0.16850000 0.16850800 8570.71018307 0 174.39686652 0 3334.78493353 0 73.39168710 0 812.78393350 0 30867
0.16950000 0.16949900 8349.26368670 0 188.13762162 0 2927.65554995 0 20.44881237 0 395.35950230 0 30852
0.17050000 0.17049200 8314.14227237 0 48.98595802 0 3043.00702991 0 245.82554116 0 737.14888266 0 31257
0.17150000 0.17149500 8146.92802296 0 64.25834781 0 2669.32713960 0 220.46659563 0 458.74745465 0 32608
0.17250000 0.17250900 8193.62001672 0 24.38690614 0 2592.99453230 0 238.94852021 0 306.48195098 0 32361
0.17350000 0.17350400 8209.75239398 0 27.73130185 0 2490.52016611 0 358.79093512 0 470.34682213 0 32508
0.17450000 0.17449800 8145.89829675 0 95.29252415 0 2588.45487913 0 -92.68598816 0 423.28169103 0 32791
0.17550000 0.17549800 8108.35204329 0 76.36538138 0 2303.90720361 0 -15.27870102 0 656.50914101 0 33633
0.17650000 0.17650100 8067.80518981 0 21.89795824 0 2554.13067219 0 123.86056158 0 467.24989288 0 33984
0.17750000 0.17750300 8101.73079305 0 8.75590589 0 2315.49992770 0 182.22278570 0 518.27559458 0 34069
0.17850000 0.17849800 7948.35694966 0 121.64941832 0 2281.46360121 0 232.68712053 0 387.05636592 0 34536
