### header ###
fiducial parameters:
Omega_m = 0.31
Omega_nu = 0
Omega_de = 0.69
Omega_k = 0
H_0 = 100
w_de = -1
zeff = 0
beta = 0
fgrowth = 0
b_1 = 2
gamma = 0.55
Lx = 3500 Ly = 3500 Lz = 3500
nx = 700 ny = 700 nz = 700
xoffset = -685.467585 yoffset = -31.7331281 zoffset = 572.489161
bins = 400 dk = 0.001
kx_ny = 0.628318531 ky_ny = 0.628318531 kz_ny = 0.628318531
############################
A(data) = 8.06867826 (not used)
A(ran) = 8.06226346 (used)
Ngal = 478437
weighted Ngal = 0
Nran = 23820508
weighted Nran = 0
SN(data) = 3493.596
SN(ran) = 70.2252387
SN(data+ran) = 3563.82124
############################
13 columns: k_central k_mean P_0(k) sigma^{lin}_{P_0(k)} P^img_1(k) sigma^{lin}_{P_1(k)} P_2(k) sigma^{lin}_{P_2(k)} P^img_3(k) sigma^{lin}_{P_3(k)} P_4(k) sigma^{lin}_{P_4(k)} N_modes
### header ###
0.00050000 0 0 0 0 0 0 0 0 0 0 0 0
0.00150000 0.00179520 28951.69348930 0 -36040.97090093 0 23180.57634733 0 -86304.67520117 0 -20397.76895065 0 3
0.00250000 0.00253879 47037.78246432 0 -30004.00724006 0 -20601.27828082 0 5735.81857045 0 15551.74454728 0 6
0.00350000 0.00331552 61926.84837120 0 -24067.13739555 0 -16277.53543914 0 3351.69237353 0 7931.51594361 0 7
0.00450000 0.00420575 59861.85979252 0 1538.83170330 0 -20790.39358872 0 -11784.60747423 0 27439.87825856 0 24
0.00550000 0.00557378 70046.51633046 0 -2299.16824859 0 -28813.62159881 0 11119.16075263 0 25275.79237276 0 45
0.00650000 0.00659388 50670.28006757 0 -210.49707436 0 -23456.16651206 0 -18902.00859090 0 19873.93726348 0 40
0.00750000 0.00754703 64268.53434710 0 5539.15193702 0 -23907.47447167 0 20701.70426693 0 16214.42318767 0 57
0.00850000 0.00846663 59380.65655590 0 -4920.31970291 0 -16846.21004183 0 6240.18511059 0 12104.37621499 0 75
0.00950000 0.00948925 68067.67043887 0 -11365.07708685 0 -11559.72855716 0 -16046.01312718 0 15342.47760821 0 112
0.01050000 0.01054430 69643.26226056 0 -3909.68218276 0 5654.04945167 0 -12220.19273260 0 16926.92728975 0 105
0.01150000 0.01145670 76640.30720646 0 -78.05656827 0 8376.20265298 0 -19232.07459375 0 23046.49049377 0 144
0.01250000 0.01249090 78232.83968512 0 4838.49522250 0 21754.57163393 0 -5953.97658635 0 13504.80385805 0 169
0.01350000 0.01339930 64622.84874129 0 6252.77434391 0 35802.03013135 0 -6458.34312649 0 12310.43217987 0 180
0.01450000 0.01448870 64190.14228738 0 9688.70496466 0 21368.92256050 0 15189.79024896 0 6762.68811878 0 267
0.01550000 0.01550050 54162.26986888 0 2465.30848250 0 27207.02726763 0 23277.68063598 0 17543.65578215 0 238
0.01650000 0.01653350 56583.67658347 0 -415.91084440 0 23945.89543879 0 13075.97271783 0 3097.39428942 0 315
0.01750000 0.01747870 57915.12364291 0 -4817.55745627 0 22240.09307723 0 13063.46099078 0 25502.66430829 0 297
0.01850000 0.01844180 61516.84018317 0 -2555.92438881 0 21018.26203349 0 -5617.43327349 0 16085.09843379 0 388
0.01950000 0.01947590 68731.12414200 0 -3164.90225384 0 33960.59179076 0 -4413.00792437 0 23189.98782342 0 399
0.02050000 0.02045430 67287.07153915 0 1479.05222160 0 30810.40465661 0 2274.46589192 0 16341.97636958 0 462
0.02150000 0.02154770 65814.00944528 0 5280.19240417 0 27149.45117857 0 13350.78781983 0 24740.33474453 0 571
0.02250000 0.02255340 63726.65477047 0 -1072.91491832 0 20290.47812316 0 8380.60943826 0 15206.73090593 0 510
0.02350000 0.02348930 61667.64524720 0 4075.54560855 0 19743.94817011 0 15733.99501379 0 8591.86939580 0 555
0.02450000 0.02439640 56667.38335909 0 5945.94915086 0 3502.50850988 0 7415.22450965 0 6047.32735690 0 592
0.02550000 0.02547300 53447.99419482 0 -4242.89272586 0 -1501.82799375 0 3504.21364790 0 2651.67785384 0 837
0.02650000 0.02652900 59288.31336692 0 -6751.30576887 0 -3473.38829561 0 -860.32960350 0 -2761.89177509 0 723
0.02750000 0.02749970 65030.08884812 0 -2901.02660876 0 2652.91795422 0 -4986.34397580 0 -8345.88662763 0 826
0.02850000 0.02848090 63294.28048630 0 6819.54450673 0 2628.75814147 0 -12337.55937567 0 -2985.10984343 0 831
0.02950000 0.02946900 57785.24527279 0 6798.55137887 0 11938.62351246 0 -9027.48787114 0 5381.91385227 0 996
0.03050000 0.03053250 56545.25561634 0 1646.53220681 0 18128.05308608 0 1541.56656753 0 4649.47956552 0 1041
0.03150000 0.03150510 54375.30139839 0 -1238.79384536 0 20134.13689672 0 4421.76613330 0 3405.06097915 0 1036
0.03250000 0.03246190 59168.28936588 0 143.84057172 0 24163.13445173 0 -1652.94308288 0 -3674.08525527 0 1059
0.03350000 0.03345080 52943.98196908 0 1968.59291881 0 21326.07266345 0 -2188.83253177 0 2200.03772449 0 1302
0.03450000 0.03451200 54026.74461310 0 3247.74538813 0 24309.17841609 0 -4371.35383840 0 1744.96517444 0 1339
0.03550000 0.03553350 51360.52879677 0 741.61767296 0 24891.36125505 0 -1282.24164795 0 -2338.78502679 0 1365
0.03650000 0.03647120 53424.41014296 0 408.84227223 0 30028.25563142 0 -2812.73589066 0 -9372.88904386 0 1308
0.03750000 0.03744890 49895.66022326 0 2418.22895737 0 25734.96168299 0 -826.09397516 0 -1239.50247415 0 1579
0.03850000 0.03847530 51257.44545270 0 276.97863427 0 25375.55401937 0 4285.06721109 0 -3900.50322549 0 1662
0.03950000 0.03950240 50657.21472429 0 -752.19949379 0 23835.83653009 0 4152.73078486 0 -2395.07672617 0 1683
0.04050000 0.04050350 49677.20325459 0 2602.91533534 0 23253.54296788 0 5469.62880949 0 -10561.30381129 0 1822
0.04150000 0.04152450 46829.73348098 0 3204.38616414 0 20468.07821325 0 284.44581013 0 -8733.05260956 0 1887
0.04250000 0.04250150 42680.37975519 0 3973.24839955 0 18356.47514709 0 409.64169408 0 -2929.00637358 0 1920
0.04350000 0.04349210 40619.37721344 0 1323.45284092 0 15596.47673955 0 -289.35527895 0 -9325.96453127 0 2005
0.04450000 0.04448520 39972.08910455 0 -141.86969790 0 13507.90410900 0 7092.74304930 0 -8229.68257866 0 2151
0.04550000 0.04548030 39765.92241642 0 1010.15476678 0 12872.24194117 0 1502.11587420 0 -13293.87607026 0 2274
0.04650000 0.04648670 38913.24268214 0 419.60346472 0 9954.95008725 0 1309.11418028 0 -10303.90547623 0 2311
0.04750000 0.04749250 38031.44273358 0 988.55708999 0 10911.10069696 0 959.12906509 0 -6256.90432107 0 2568
0.04850000 0.04851840 38485.85094414 0 495.37913408 0 8879.97128758 0 -408.36837673 0 -7735.40292643 0 2493
0.04950000 0.04949480 38441.56164487 0 -1592.69856354 0 10841.03502551 0 781.26434644 0 -4499.91460187 0 2644
0.05050000 0.05050630 39668.92885101 0 -343.48898222 0 9616.90093821 0 -192.41153900 0 -8478.12340294 0 2829
0.05150000 0.05149060 39431.20603716 0 1512.16954513 0 12041.48541002 0 -2290.43218431 0 -7116.98036833 0 2784
0.05250000 0.05249300 37653.10139453 0 3053.70289568 0 13697.13014015 0 -4293.41574400 0 -4227.72364085 0 3055
0.05350000 0.05348950 35572.94373085 0 2073.65820901 0 15846.60055720 0 675.06192847 0 1097.20649174 0 3009
0.05450000 0.05448610 35482.37211383 0 -185.31860772 0 15161.99871366 0 1956.64588033 0 -3472.31428010 0 3336
0.05550000 0.05550870 34318.11715915 0 -520.83551607 0 14926.26891827 0 4062.93423058 0 -2903.18571210 0 3349
0.05650000 0.05647670 36219.56750026 0 1064.89301899 0 15406.03275266 0 2177.83771323 0 -3289.31089550 0 3324
0.05750000 0.05747970 34112.28264077 0 867.31624046 0 14925.05096254 0 619.75788047 0 3176.53926722 0 3639
0.05850000 0.05849280 34352.10919635 0 846.28657393 0 15650.95257765 0 -227.55731244 0 1754.73096493 0 3846
0.05950000 0.05951020 33312.30717263 0 720.72862496 0 13956.66543390 0 971.76369494 0 737.74678820 0 3787
0.06050000 0.06049470 32950.35287431 0 411.90819897 0 16059.29991696 0 167.82322728 0 1257.96003962 0 3930
0.06150000 0.06148310 32351.22937837 0 852.63765945 0 14115.55329505 0 -814.36173978 0 2341.03270873 0 4083
0.06250000 0.06249100 32802.20516823 0 169.96129320 0 15628.36503502 0 1240.69828523 0 1577.15301949 0 4303
0.06350000 0.06350600 31545.82847106 0 616.76613830 0 15524.50662822 0 1201.54654467 0 443.21741186 0 4470
0.06450000 0.06451750 31370.44284593 0 920.13565878 0 14966.46145736 0 2155.06194108 0 514.11682937 0 4479
0.06550000 0.06550280 29836.81513530 0 355.07727738 0 13501.59288386 0 1784.24978290 0 194.31265717 0 4636
0.06650000 0.06648880 30008.10400025 0 196.53487276 0 11943.82750512 0 2338.23141055 0 2000.02724897 0 4653
0.06750000 0.06749660 30464.83739902 0 -320.28471110 0 13455.75345911 0 2765.19132788 0 853.83679223 0 5220
0.06850000 0.06852730 30182.38239289 0 -382.77137621 0 11325.43816400 0 153.02174346 0 125.90783444 0 5029
0.06950000 0.06949320 29792.08294304 0 949.47953401 0 10757.82650450 0 458.31452675 0 1273.46129437 0 5040
0.07050000 0.07048030 29612.60055773 0 1324.93653245 0 11346.58630440 0 -564.12609165 0 1570.53176925 0 5475
0.07150000 0.07148790 29023.10998438 0 661.02997123 0 12234.36530836 0 -616.48822295 0 2074.82080312 0 5509
0.07250000 0.07249820 27910.56278660 0 503.18401585 0 11880.27236066 0 59.80195852 0 -90.82284807 0 5916
0.07350000 0.07351270 27954.63063938 0 1070.63955557 0 12551.36596792 0 -125.25235281 0 2424.71733971 0 5721
0.07450000 0.07449140 27302.47070756 0 511.85143172 0 12316.41123527 0 1338.04616503 0 1125.66790269 0 6028
0.07550000 0.07549160 27328.71211738 0 -234.22617368 0 11417.89207624 0 1052.62377586 0 2223.20102801 0 6183
0.07650000 0.07648840 27093.75738473 0 68.74540744 0 11703.22588681 0 1023.26772107 0 926.17339750 0 6330
0.07750000 0.07749960 27036.84563516 0 362.48244822 0 11283.47405294 0 1428.08631046 0 188.66798598 0 6583
0.07850000 0.07848650 26473.04285540 0 544.63990720 0 11502.70608435 0 1212.29777207 0 1692.73701827 0 6549
0.07950000 0.07947320 25985.41767038 0 778.65017055 0 9898.61409857 0 218.73266956 0 1913.18700541 0 6828
0.08050000 0.08048110 25222.64521363 0 323.78578021 0 9711.05998847 0 1551.79739566 0 2387.63612389 0 7147
0.08150000 0.08149960 25214.11952352 0 -83.02283812 0 8678.29996333 0 2169.77706076 0 1940.94532373 0 7386
0.08250000 0.08250610 25188.76389968 0 152.31643637 0 7875.03601471 0 1146.15170360 0 1382.21366874 0 7227
0.08350000 0.08350160 24330.21583325 0 679.26609021 0 7417.78221668 0 -58.01809626 0 1141.03628954 0 7798
0.08450000 0.08449610 24183.39680615 0 786.09077282 0 6693.03212335 0 1226.86895153 0 1074.25909855 0 7371
0.08550000 0.08548940 23629.44839547 0 121.55419632 0 6819.85453182 0 -75.34008410 0 1488.46369770 0 8256
0.08650000 0.08650700 23004.19421296 0 846.75382604 0 6119.18674497 0 29.96160024 0 1667.15994794 0 8037
0.08750000 0.08749060 22749.19857239 0 1023.53124240 0 7377.51217131 0 -50.63684165 0 1895.86988940 0 8155
0.08850000 0.08849210 21618.49276191 0 1050.95960544 0 6741.47354443 0 -11.97150832 0 1744.25654566 0 8718
0.08950000 0.08949900 20503.73109917 0 942.10758015 0 7268.74872462 0 202.19393798 0 1481.18918029 0 8571
0.09050000 0.09049190 19863.08638516 0 698.92389569 0 6628.32545711 0 654.53162379 0 1159.51599966 0 8932
0.09150000 0.09150830 19493.60290596 0 103.69497928 0 7092.70983233 0 501.28732661 0 1056.30089493 0 9285
0.09250000 0.09250820 19137.40621655 0 22.57613814 0 6286.65565786 0 242.06205795 0 1026.29600191 0 9204
0.09350000 0.09350330 19488.28819005 0 -35.54271628 0 6801.70699144 0 -219.38815119 0 574.64037130 0 9349
0.09450000 0.09448040 19421.41134815 0 14.16471442 0 6647.90132739 0 -135.54629320 0 1460.86039192 0 9564
0.09550000 0.09549270 18847.97564579 0 528.09674669 0 7014.01881984 0 183.02331479 0 1321.70341360 0 10155
0.09650000 0.09649430 18822.95219170 0 711.11120362 0 7114.97627754 0 -18.82926342 0 1585.01437011 0 9913
0.09750000 0.09749140 18188.95087258 0 413.32545655 0 7476.89735889 0 759.87925828 0 1908.43697807 0 10476
0.09850000 0.09850240 18142.89000134 0 60.63349011 0 7758.76553179 0 210.12282978 0 1659.53111614 0 10575
0.09950000 0.09950330 18042.68546173 0 15.33993097 0 7043.44905921 0 802.76458677 0 2185.15651993 0 10882
0.10050000 0.10051200 18130.71044404 0 -21.92364603 0 6968.22368439 0 402.84439388 0 962.34668268 0 10875
0.10150000 0.10150300 18057.63310023 0 580.31715223 0 6704.50305186 0 36.77251940 0 903.74086742 0 11118
0.10250000 0.10250800 17356.53349272 0 508.08684128 0 6272.43879279 0 -325.14878339 0 902.93923110 0 11575
0.10350000 0.10349800 17004.98717973 0 710.83550273 0 6631.37034643 0 143.48072116 0 1393.77317585 0 11364
0.10450000 0.10450100 16299.56936553 0 329.79030196 0 6189.44064595 0 514.08139793 0 789.27517344 0 12093
0.10550000 0.10551000 16139.90644164 0 285.51761117 0 6737.64252004 0 815.42136127 0 378.03020673 0 12067
0.10650000 0.10649700 15820.58059387 0 278.53983207 0 6325.82954306 0 361.60552009 0 923.82163571 0 12054
0.10750000 0.10749900 15504.90861329 0 317.89751787 0 5540.65777320 0 740.82710897 0 802.08585326 0 12807
0.10850000 0.10850100 15402.82177847 0 16.92460210 0 5564.70686271 0 59.79431861 0 783.35147966 0 12736
0.10950000 0.10950300 15380.01278934 0 -83.53592966 0 5456.26451343 0 7.04678183 0 -620.31924734 0 12933
0.11050000 0.11050200 15484.09264264 0 139.95750741 0 5443.13273620 0 -33.69895276 0 -657.98618914 0 13428
0.11150000 0.11150900 15142.73286848 0 412.58361079 0 5262.39917818 0 -1135.55548875 0 -1304.46380386 0 13453
0.11250000 0.11250000 15039.31735467 0 487.95624753 0 5347.15782467 0 -227.99577650 0 -675.72294626 0 13668
0.11350000 0.11349100 14631.96652459 0 232.08367883 0 6040.48466016 0 -22.97064507 0 -607.67354516 0 13791
0.11450000 0.11448600 14602.95703357 0 -15.78326686 0 5153.38106802 0 936.07869928 0 -393.79830450 0 14205
0.11550000 0.11549300 14936.78762685 0 -252.44236247 0 6121.13547414 0 932.96737601 0 -423.87516764 0 14776
0.11650000 0.11649800 14862.49232732 0 177.73074352 0 5482.31769373 0 675.13611305 0 1161.54223510 0 14553
0.11750000 0.11747300 14843.11575888 0 127.34945113 0 5340.03831981 0 931.52354485 0 1574.58424013 0 14568
0.11850000 0.11849100 14750.10823041 0 20.98570940 0 5500.02234112 0 300.76641691 0 2019.01628603 0 16015
0.11950000 0.11950300 14572.50814032 0 54.76526868 0 4923.14314574 0 380.94997878 0 1361.58592760 0 15270
0.12050000 0.12050700 14342.86812358 0 237.20352182 0 4871.77863091 0 -209.72644055 0 964.64197562 0 15999
0.12150000 0.12150000 14126.29345013 0 502.29712263 0 4758.66376056 0 -161.29277010 0 868.99701937 0 15670
0.12250000 0.12250700 13750.94163877 0 486.54120441 0 4559.59443264 0 -237.39396581 0 -5.93283952 0 16887
0.12350000 0.12352200 13401.72051399 0 104.29476712 0 4552.56350638 0 -105.05233558 0 132.64534409 0 16407
0.12450000 0.12449800 13448.77789447 0 57.12500254 0 4766.35902631 0 370.99042261 0 -633.86402229 0 16306
0.12550000 0.12549900 13488.41681732 0 -85.31503081 0 4738.68928658 0 28.55342197 0 -1030.18681685 0 17523
0.12650000 0.12650100 13329.30750968 0 298.09909386 0 4591.18377535 0 11.65661140 0 -735.43267231 0 17154
0.12750000 0.12750600 13071.21161816 0 379.22933950 0 4526.89785745 0 -165.90550062 0 -139.94864955 0 18007
0.12850000 0.12850300 13061.68941881 0 62.76037298 0 4699.32717185 0 477.83282094 0 177.24245400 0 17496
0.12950000 0.12949900 12779.45585919 0 -29.75654078 0 4016.97301026 0 993.04691771 0 -96.10888666 0 18405
0.13050000 0.13049000 12835.92471576 0 30.08184568 0 4046.35896032 0 703.18784798 0 -480.04950037 0 18100
0.13150000 0.13148800 12594.43731147 0 157.91681826 0 3207.02137745 0 532.49024518 0 -594.86397258 0 19059
0.13250000 0.13249300 12355.93943487 0 289.43610692 0 3188.65239057 0 140.08041021 0 -569.89588011 0 18957
0.13350000 0.13349100 12252.63464431 0 112.39516923 0 2763.41975591 0 -194.56510618 0 -155.13877196 0 19468
0.13450000 0.13450700 12309.21422414 0 -85.73422903 0 3110.95788732 0 -94.09106618 0 -525.45710445 0 19953
0.13550000 0.13551000 12223.84659979 0 96.00381030 0 3072.92445157 0 -436.01929350 0 -268.56145294 0 19956
0.13650000 0.13649900 12356.16088137 0 186.81780050 0 3553.10903430 0 -19.59723987 0 -225.52775530 0 19723
0.13750000 0.13749600 12087.87845101 0 374.29551156 0 3735.07162037 0 -124.47618284 0 183.35437730 0 20946
0.13850000 0.13851100 11788.03989492 0 369.17566857 0 3720.75510438 0 7.60158281 0 34.39396258 0 20955
0.13950000 0.13949800 11490.85869679 0 324.62284796 0 3661.91677030 0 319.69455619 0 521.27619460 0 20506
0.14050000 0.14048300 11327.32045922 0 80.87547145 0 3684.23857713 0 224.87670260 0 224.92431360 0 21447
0.14150000 0.14148400 11254.13239217 0 104.86377389 0 3472.86789634 0 588.61143075 0 333.54824900 0 21771
0.14250000 0.14249400 11059.02695654 0 238.13913327 0 3088.50321259 0 379.44746430 0 -26.44015805 0 22470
0.14350000 0.14350900 10817.65027549 0 316.26767165 0 2594.93218915 0 -68.65992909 0 -34.13675248 0 22519
0.14450000 0.14449900 10531.02100291 0 192.46468616 0 2919.59489748 0 70.70432315 0 362.78361545 0 22218
0.14550000 0.14550500 10634.03791303 0 39.64733782 0 2954.48379298 0 -101.33945290 0 -8.79079478 0 23559
0.14650000 0.14650700 10463.22515805 0 -2.05709401 0 2754.09685842 0 432.68873819 0 694.65330001 0 23044
0.14750000 0.14750500 10663.86675609 0 -97.88987011 0 3083.43208782 0 370.16442717 0 530.94676310 0 23649
0.14850000 0.14849900 10657.28979514 0 -34.04573797 0 2783.26136199 0 475.38472993 0 675.34316552 0 23640
0.14950000 0.14949500 10622.25695942 0 245.05269289 0 2843.99306362 0 220.08349319 0 633.58389247 0 24457
0.15050000 0.15050000 10397.85415232 0 251.52446674 0 2378.16928617 0 -22.96876277 0 731.01149301 0 24591
0.15150000 0.15149900 10227.21855454 0 94.87000423 0 2607.89788151 0 -45.06115104 0 751.01586226 0 25020
0.15250000 0.15250500 10094.07384859 0 107.21232471 0 2526.91489779 0 -132.00425649 0 370.45562932 0 25297
0.15350000 0.15350100 9873.76780168 0 372.72656314 0 2569.56549299 0 -236.05310727 0 -41.23023737 0 25452
0.15450000 0.15450400 9613.51280682 0 337.89635096 0 2471.15467000 0 -195.65573017 0 96.61389539 0 26061
0.15550000 0.15549900 9415.12996304 0 142.13321923 0 2438.51345643 0 161.18426131 0 190.48384725 0 26128
0.15650000 0.15649500 9295.16132363 0 -33.74003108 0 2237.75006282 0 45.77708756 0 -148.95709302 0 26331
0.15750000 0.15749700 9353.02529313 0 37.10169962 0 2484.29751956 0 286.61930749 0 -454.07161188 0 27345
0.15850000 0.15849900 9289.64730587 0 204.17256242 0 2502.97653153 0 -123.19290040 0 -330.76245207 0 26980
0.15950000 0.15949700 9043.75311630 0 278.32060004 0 2610.48880552 0 -250.08174282 0 -33.12330259 0 27777
0.16050000 0.16050000 9006.45045398 0 211.06729909 0 2795.45199161 0 -245.69045880 0 110.10939850 0 28224
0.16150000 0.16150500 8860.50614055 0 116.30259266 0 2995.63962433 0 -117.54380027 0 245.52105223 0 28075
0.16250000 0.16249700 8889.09488323 0 157.54589538 0 3221.89150968 0 98.22425431 0 360.00224746 0 28590
0.16350000 0.16349900 8758.08713598 0 133.18235185 0 3292.87618409 0 263.91550545 0 209.78623111 0 29163
0.16450000 0.16449100 8624.39988612 0 129.97248488 0 3010.37688867 0 205.61196465 0 722.02076526 0 28996
0.16550000 0.16550500 8562.33950551 0 20.33620682 0 2997.90945092 0 338.14326380 0 713.92911028 0 30777
0.16650000 0.16650700 8468.56798662 0 27.62467536 0 2735.71679922 0 569.79401472 0 1025.07140278 0 29211
0.16750000 0.16749900 8447.49735249 0 52.57483066 0 2671.26479645 0 306.86837512 0 616.74842258 0 30922
0.16850000 0.16850800 8452.03700566 0 38.11149564 0 2281.46360121 0 334.23916207 0 599.07809941 0 30867
0.16950000 0.16949900 8245.13954410 0 29.76251984 0 2170.13137516 0 266.40345683 0 755.20452274 0 30852
0.17050000 0.17049200 8406.95049900 0 9.70825869 0 1930.72556793 0 -133.95852182 0 564.92108457 0 31257
0.17150000 0.17149500 8268.05925648 0 154.27513063 0 2204.47772674 0 -147.18330658 0 420.91664245 0 32608
0.17250000 0.17250900 8183.96494948 0 104.19367679 0 2084.28764084 0 -135.53632811 0 258.25533300 0 32361
0.17350000 0.17350400 8220.42611511 0 65.99559557 0 1983.26374919 0 72.09179617 0 371.07346504 0 32508
0.17450000 0.17449800 8113.73319316 0 43.42532577 0 2184.50325277 0 -71.77158454 0 -62.98768781 0 32791
0.17550000 0.17549800 8143.75026574 0 80.08767554 0 2229.99943545 0 41.95193151 0 73.79029080 0 33633
0.17650000 0.17650100 8016.03099896 0 153.21329468 0 2115.57803077 0 20.60426781 0 19.79011976 0 33984
0.17750000 0.17750300 8007.15099445 0 75.13591043 0 2255.90867553 0 64.36065609 0 493.72271429 0 34069
0.17850000 0.17849800 8001.79198924 0 -51.70864269 0 2166.04568730 0 120.25541262 0 54.86026923 0 34536
