### header ###
fiducial parameters:
Omega_m = 0.31
Omega_nu = 0
Omega_de = 0.69
Omega_k = 0
H_0 = 100
w_de = -1
zeff = 0
beta = 0
fgrowth = 0
b_1 = 2
gamma = 0.55
Lx = 3500 Ly = 3500 Lz = 3500
nx = 700 ny = 700 nz = 700
xoffset = -685.467585 yoffset = -31.7331281 zoffset = 572.489161
bins = 400 dk = 0.001
kx_ny = 0.628318531 ky_ny = 0.628318531 kz_ny = 0.628318531
############################
A(data) = 8.01739506 (not used)
A(ran) = 8.00977294 (used)
Ngal = 476153
weighted Ngal = 0
Nran = 23820508
weighted Nran = 0
SN(data) = 3495.00826
SN(ran) = 69.7680272
SN(data+ran) = 3564.77629
############################
13 columns: k_central k_mean P_0(k) sigma^{lin}_{P_0(k)} P^img_1(k) sigma^{lin}_{P_1(k)} P_2(k) sigma^{lin}_{P_2(k)} P^img_3(k) sigma^{lin}_{P_3(k)} P_4(k) sigma^{lin}_{P_4(k)} N_modes
### header ###
0.00050000 0 0 0 0 0 0 0 0 0 0 0 0
0.00150000 0.00179520 20721.19155861 0 -10308.87695008 0 31361.14209309 0 -1528.35728402 0 -11084.72582244 0 3
0.00250000 0.00253879 43957.24025327 0 -20381.93552616 0 9240.12079696 0 5963.18876060 0 34961.64067761 0 6
0.00350000 0.00331552 43072.00788402 0 -5053.71907233 0 292.23740510 0 5383.15395265 0 16839.78809343 0 7
0.00450000 0.00420575 48621.23563663 0 591.40830000 0 -5223.87856014 0 1364.13256231 0 817.98128277 0 24
0.00550000 0.00557378 51214.48483241 0 311.35488113 0 6824.70421009 0 10263.69079249 0 9137.10388684 0 45
0.00650000 0.00659388 48922.40287170 0 -6502.87601691 0 -12824.63094445 0 30664.36069225 0 9068.77657039 0 40
0.00750000 0.00754703 44156.76354651 0 -10202.82622296 0 -3091.17164287 0 10172.11159392 0 -5697.68548378 0 57
0.00850000 0.00846663 67308.10895631 0 -13316.90650588 0 -20871.99662264 0 16645.24734637 0 -4636.51387316 0 75
0.00950000 0.00948925 71242.32741087 0 -8205.27917476 0 -9434.16328940 0 -6381.63406015 0 -13691.59397775 0 112
0.01050000 0.01054430 78462.14753212 0 -2733.22552613 0 -18844.21105535 0 -20125.38976012 0 22759.93872746 0 105
0.01150000 0.01145670 84748.45994790 0 -2923.25983699 0 -7286.85197570 0 -22413.59640714 0 21857.98714774 0 144
0.01250000 0.01249090 77722.29478774 0 4695.38542422 0 -4269.57702867 0 -3261.51936020 0 6347.88561410 0 169
0.01350000 0.01339930 76307.14095266 0 2564.12898150 0 9446.42035298 0 1690.11287729 0 -9524.67954480 0 180
0.01450000 0.01448870 76284.22124029 0 3752.07871129 0 -3238.27855041 0 -3718.52956709 0 767.76496802 0 267
0.01550000 0.01550050 68298.30696484 0 3556.90684172 0 9377.97124095 0 1634.25299858 0 7250.08078498 0 238
0.01650000 0.01653350 72081.72035537 0 -2713.43928168 0 -6349.53539050 0 -8686.91423204 0 7499.62884174 0 315
0.01750000 0.01747870 71627.97648430 0 -1269.04343676 0 9386.25333991 0 7636.10631745 0 16323.92848013 0 297
0.01850000 0.01844180 75583.01090953 0 -3989.43613843 0 -1498.17412656 0 -3433.37291371 0 -2566.17736159 0 388
0.01950000 0.01947590 79300.76541388 0 -2408.97249382 0 3738.30473922 0 7353.77310690 0 16290.15788943 0 399
0.02050000 0.02045430 82025.99672150 0 2587.41408060 0 3349.38932997 0 -2791.74276280 0 1801.00221035 0 462
0.02150000 0.02154770 76235.72445758 0 3604.53998309 0 9376.03358410 0 -2809.25918066 0 -51.93274654 0 571
0.02250000 0.02255340 69195.94033789 0 8811.41145230 0 7917.27693390 0 -5547.30116809 0 -282.47825801 0 510
0.02350000 0.02348930 66552.20134094 0 6748.64841091 0 6471.72956720 0 -5908.48040367 0 7320.85508522 0 555
0.02450000 0.02439640 63917.43092710 0 589.79727674 0 11173.96876048 0 9869.84819869 0 13157.57575174 0 592
0.02550000 0.02547300 65248.65654004 0 -4672.38820557 0 1631.57349598 0 10976.88137871 0 -536.03117466 0 837
0.02650000 0.02652900 69428.12698934 0 -6480.15560639 0 3816.63036499 0 2958.52519154 0 -5648.71259110 0 723
0.02750000 0.02749970 70116.05053032 0 941.24061711 0 3649.43826023 0 -4486.06312352 0 -10152.86789338 0 826
0.02850000 0.02848090 72054.26098982 0 2200.73528095 0 9302.82337240 0 -13434.27314896 0 -4721.99222076 0 831
0.02950000 0.02946900 69056.65049167 0 6842.02132611 0 19593.36455258 0 -9336.09570848 0 -3254.07875793 0 996
0.03050000 0.03053250 63783.78796653 0 6691.81416762 0 26391.43982148 0 -10541.84973658 0 -137.02555579 0 1041
0.03150000 0.03150510 60624.85369578 0 4856.04485734 0 29486.15460830 0 397.10671516 0 -7181.41022645 0 1036
0.03250000 0.03246190 55286.66445421 0 1912.12406223 0 27060.87258002 0 -1214.74475585 0 -7802.71158900 0 1059
0.03350000 0.03345080 57814.25476381 0 230.19584744 0 32349.67925289 0 6359.57798911 0 -9273.10525259 0 1302
0.03450000 0.03451200 54323.92581123 0 1023.99960174 0 27085.78531086 0 3094.86979936 0 -7613.25303903 0 1339
0.03550000 0.03553350 54512.15533315 0 2271.02239890 0 22497.74607576 0 6894.31591623 0 -8504.32052346 0 1365
0.03650000 0.03647120 51555.18026708 0 1419.11772736 0 17315.56589089 0 6376.33041656 0 -3767.87891881 0 1308
0.03750000 0.03744890 50340.65695772 0 830.05676021 0 14957.60359751 0 4052.03906296 0 -11238.63113742 0 1579
0.03850000 0.03847530 48437.21359815 0 4240.76683949 0 16928.03452224 0 4205.24682147 0 -5929.96071382 0 1662
0.03950000 0.03950240 44305.90776181 0 3962.85148654 0 10172.45483599 0 5084.00188070 0 -3836.35017549 0 1683
0.04050000 0.04050350 42746.48153436 0 -304.49557591 0 12043.14625875 0 138.86245448 0 3202.70317077 0 1822
0.04150000 0.04152450 42644.06252978 0 -750.50099916 0 10790.36806714 0 5755.09548796 0 2490.96305910 0 1887
0.04250000 0.04250150 42170.05630430 0 1149.16337595 0 12465.22328083 0 3583.89009730 0 2260.82478774 0 1920
0.04350000 0.04349210 41699.70394600 0 403.68367610 0 11453.76640865 0 1773.43212155 0 9751.57362498 0 2005
0.04450000 0.04448520 40705.85207028 0 110.76532302 0 9715.45570142 0 3339.11421253 0 7866.04528696 0 2151
0.04550000 0.04548030 41972.85819928 0 -23.21578634 0 10700.09540289 0 1059.09554972 0 6308.65636727 0 2274
0.04650000 0.04648670 41232.89473165 0 1249.88831483 0 10561.10450944 0 967.02031099 0 7060.64437965 0 2311
0.04750000 0.04749250 40549.28939734 0 911.40291619 0 10397.31160840 0 -2714.14791047 0 6555.27025796 0 2568
0.04850000 0.04851840 37855.61421546 0 2246.39754851 0 10483.36571689 0 -769.78788176 0 6202.16274716 0 2493
0.04950000 0.04949480 38042.73650490 0 612.67048535 0 12574.17495705 0 -558.07838783 0 1914.79249251 0 2644
0.05050000 0.05050630 37091.18090998 0 1044.00286376 0 11320.01272484 0 562.33016056 0 -1755.36208745 0 2829
0.05150000 0.05149060 36529.48187193 0 878.04643044 0 12571.62832234 0 -976.02543276 0 -1163.76777239 0 2784
0.05250000 0.05249300 36936.50053227 0 831.11638170 0 13207.95482967 0 -378.96028201 0 -86.29227420 0 3055
0.05350000 0.05348950 35943.20227279 0 675.48710575 0 12989.83003074 0 -405.93910866 0 1441.14058142 0 3009
0.05450000 0.05448610 35055.75543857 0 578.59319126 0 13958.87989887 0 1797.13796899 0 3335.07281397 0 3336
0.05550000 0.05550870 36118.36645142 0 -904.19593997 0 13011.53178738 0 4751.24530293 0 3959.09796843 0 3349
0.05650000 0.05647670 35882.63665603 0 -1842.04731845 0 11765.34162905 0 5189.56542553 0 5813.01481909 0 3324
0.05750000 0.05747970 38245.69221882 0 -696.35622356 0 10095.30287665 0 2360.90753178 0 5624.07666838 0 3639
0.05850000 0.05849280 37856.38927820 0 238.05387637 0 10104.42647230 0 1843.15455094 0 2561.11730915 0 3846
0.05950000 0.05951020 36601.45198325 0 2572.00140445 0 10909.68343939 0 -1405.10016414 0 5330.75971161 0 3787
0.06050000 0.06049470 34376.24686445 0 2258.45531023 0 9209.15150444 0 -886.27538225 0 5259.79718185 0 3930
0.06150000 0.06148310 33031.18084548 0 1627.87533949 0 10280.75324504 0 755.68395441 0 4228.13331687 0 4083
0.06250000 0.06249100 32092.24770086 0 -182.06002253 0 10170.74969796 0 840.39277543 0 5492.68138976 0 4303
0.06350000 0.06350600 32272.28370241 0 -146.39274259 0 9118.33629628 0 1632.04960594 0 1329.03329263 0 4470
0.06450000 0.06451750 32647.85696026 0 -361.02643750 0 8661.64718681 0 340.31343946 0 3518.14263253 0 4479
0.06550000 0.06550280 31830.05504916 0 757.10564091 0 6549.96661437 0 329.11046121 0 1465.87615507 0 4636
0.06650000 0.06648880 31548.37510577 0 674.21821732 0 7292.49886136 0 1630.34446792 0 2035.01579539 0 4653
0.06750000 0.06749660 30100.89008223 0 507.15565876 0 6267.13514920 0 112.33094975 0 423.40570107 0 5220
0.06850000 0.06852730 29831.05752640 0 1285.61870702 0 6045.93224397 0 -639.56294787 0 -1522.97613416 0 5029
0.06950000 0.06949320 29036.72894391 0 711.46662524 0 8463.92868252 0 -2171.23860764 0 -803.80095637 0 5040
0.07050000 0.07048030 28236.64275251 0 914.64932183 0 9340.52463841 0 -2091.83896636 0 -1957.84169141 0 5475
0.07150000 0.07148790 27975.44661004 0 1266.39715113 0 10458.56370930 0 -2813.32272387 0 -793.01761923 0 5509
0.07250000 0.07249820 27412.97250925 0 360.80166931 0 11071.91514263 0 -999.79217799 0 -1320.07578185 0 5916
0.07350000 0.07351270 27225.85021982 0 45.12116304 0 10443.18425013 0 1464.59176539 0 -893.05607397 0 5721
0.07450000 0.07449140 27242.68015354 0 -169.77527814 0 9595.26561551 0 2817.44162870 0 -2309.94162064 0 6028
0.07550000 0.07549160 26753.50484305 0 826.47707760 0 8489.42824658 0 1911.49293972 0 -1787.16180433 0 6183
0.07650000 0.07648840 25993.94336050 0 1165.86044178 0 6854.88736755 0 947.90504942 0 -2537.30073847 0 6330
0.07750000 0.07749960 25343.55500065 0 -189.59806126 0 6095.09336617 0 828.43687909 0 -2151.87311153 0 6583
0.07850000 0.07848650 25150.89654880 0 -323.06607909 0 6590.88992690 0 674.62900057 0 -1320.19757743 0 6549
0.07950000 0.07947320 25667.64194809 0 351.50645262 0 6579.43007071 0 -415.70822085 0 -1518.09323891 0 6828
0.08050000 0.08048110 25399.69168748 0 494.13681924 0 8002.50061803 0 -668.72523698 0 46.67926059 0 7147
0.08150000 0.08149960 24935.09693809 0 1099.65458276 0 8265.26903062 0 -655.40301576 0 1274.62388847 0 7386
0.08250000 0.08250610 24343.83479277 0 812.23585342 0 9742.42788468 0 381.86676728 0 3022.75574782 0 7227
0.08350000 0.08350160 23702.52573928 0 680.21498844 0 9950.27756617 0 1234.07703499 0 2975.59871641 0 7798
0.08450000 0.08449610 23304.58638529 0 380.90679671 0 10053.47163348 0 712.66465079 0 1863.59406255 0 7371
0.08550000 0.08548940 22620.20598825 0 583.25242554 0 9461.62265495 0 898.21799180 0 2192.86285801 0 8256
0.08650000 0.08650700 22526.86629003 0 450.20626329 0 9022.73784379 0 -1044.25863446 0 427.81912974 0 8037
0.08750000 0.08749060 21881.01758336 0 509.24389922 0 8068.22593815 0 89.84715480 0 1566.64538324 0 8155
0.08850000 0.08849210 21610.74213454 0 316.39057446 0 8457.98284409 0 -501.56413473 0 -1102.58542714 0 8718
0.08950000 0.08949900 20969.54380429 0 280.77644168 0 7520.87663307 0 1170.44438425 0 -1345.58641824 0 8571
0.09050000 0.09049190 20883.06894746 0 129.09002060 0 6525.37498095 0 1679.29521594 0 -1796.81687157 0 8932
0.09150000 0.09150830 20142.55186359 0 131.83706438 0 5413.01601269 0 1796.85008854 0 -1968.98045018 0 9285
0.09250000 0.09250820 19981.33881423 0 544.75948831 0 4929.95262550 0 586.59294594 0 -2746.30194174 0 9204
0.09350000 0.09350330 19745.60901884 0 424.85285392 0 5112.15880272 0 96.67855777 0 -1265.78817327 0 9349
0.09450000 0.09448040 19236.28207718 0 484.07539768 0 5399.51884874 0 -1190.07561616 0 -1422.42835248 0 9564
0.09550000 0.09549270 18932.56820740 0 676.02189903 0 5887.75301161 0 -920.72138476 0 -434.57546234 0 10155
0.09650000 0.09649430 18215.74589864 0 958.07608700 0 6660.29125886 0 -367.10514383 0 -388.35957855 0 9913
0.09750000 0.09749140 18360.90407702 0 402.58973041 0 7727.63015440 0 -80.82309935 0 71.37231650 0 10476
0.09850000 0.09850240 17794.22249280 0 90.10480780 0 7857.35351198 0 65.90513468 0 -329.40498505 0 10575
0.09950000 0.09950330 17940.26645716 0 28.12968409 0 8188.65961520 0 484.65115857 0 65.46866363 0 10882
0.10050000 0.10051200 17887.78363752 0 -80.95497074 0 7875.33496748 0 477.76970869 0 123.45974343 0 10875
0.10150000 0.10150300 17733.87832254 0 381.06070203 0 7396.05831538 0 663.70615214 0 29.12552899 0 11118
0.10250000 0.10250800 17444.22630528 0 384.94044465 0 6976.70508520 0 737.62499263 0 231.94195307 0 11575
0.10350000 0.10349800 16982.62108359 0 453.66415033 0 6686.08977569 0 665.60616308 0 -573.95720886 0 11364
0.10450000 0.10450100 16630.85332410 0 428.80235218 0 5843.66301419 0 120.25541262 0 -1639.35734032 0 12093
0.10550000 0.10551000 16188.51394760 0 400.11949474 0 5988.09041912 0 186.67939644 0 -698.79213502 0 12067
0.10650000 0.10649700 15386.65618423 0 469.61826316 0 5909.49905756 0 -346.25484896 0 -948.33022669 0 12054
0.10750000 0.10749900 15402.60033197 0 334.62226451 0 6141.28710531 0 639.49651392 0 -280.33797762 0 12807
0.10850000 0.10850100 15318.00777036 0 277.09489368 0 5976.20981459 0 176.54157584 0 -642.97876008 0 12736
0.10950000 0.10950300 15164.54534837 0 -24.75041056 0 6392.97212076 0 162.30478059 0 251.66619250 0 12933
0.11050000 0.11050200 15341.14892923 0 -196.26138634 0 6362.20213009 0 424.51957694 0 741.97863075 0 13428
0.11150000 0.11150900 15491.40037702 0 -31.55346838 0 6240.58371429 0 231.40051638 0 381.63203399 0 13453
0.11250000 0.11250000 15342.80977795 0 375.61533268 0 6247.00566268 0 -1.38020958 0 875.81092806 0 13668
0.11350000 0.11349100 15212.70996133 0 388.26324932 0 6692.58923036 0 -275.88247411 0 536.11310986 0 13791
0.11450000 0.11448600 14705.81893113 0 389.35830225 0 6302.64409489 0 397.06242586 0 333.74976531 0 14205
0.11550000 0.11549300 14590.99892276 0 -32.67121957 0 5448.90141743 0 267.80189146 0 265.18328664 0 14776
0.11650000 0.11649800 14688.65682766 0 -115.60503620 0 5740.70146570 0 764.01255714 0 -399.80171902 0 14553
0.11750000 0.11747300 14670.27676847 0 -43.38612974 0 5269.87299743 0 104.01408369 0 -395.03508318 0 14568
0.11850000 0.11849100 14982.62705160 0 -145.28218841 0 5074.55718763 0 758.14422498 0 -449.86523568 0 16015
0.11950000 0.11950300 14657.10070193 0 57.12876713 0 5028.68454591 0 -162.46090037 0 12.76351171 0 15270
0.12050000 0.12050700 14836.02947100 0 154.32384886 0 4739.24290283 0 162.40775321 0 -431.93803457 0 15999
0.12150000 0.12150000 14614.14008163 0 215.95462326 0 5185.51295464 0 273.98246317 0 318.52310422 0 15670
0.12250000 0.12250700 14494.89114334 0 385.07995594 0 4412.22178931 0 593.26955781 0 521.95382088 0 16887
0.12350000 0.12352200 14153.30992268 0 181.51415691 0 4471.61373963 0 669.16037934 0 1054.45070945 0 16407
0.12450000 0.12449800 13841.73470229 0 291.69043225 0 4268.30371131 0 387.01096939 0 611.40491863 0 16306
0.12550000 0.12549900 13677.53212523 0 363.28740623 0 3753.75063234 0 235.42641369 0 582.85382185 0 17523
0.12650000 0.12650100 13278.48553876 0 257.14920775 0 3766.74954168 0 400.36419312 0 851.72197819 0 17154
0.12750000 0.12750600 13080.40164776 0 66.25634882 0 3293.79518705 0 340.86927017 0 764.69682681 0 18007
0.12850000 0.12850300 13192.67502142 0 -18.05829744 0 3573.24959315 0 74.53036499 0 -364.39242425 0 17496
0.12950000 0.12949900 12948.41953592 0 201.84848144 0 3429.54188933 0 -200.95826653 0 -22.42666175 0 18405
0.13050000 0.13049000 12907.45193409 0 120.34842015 0 3802.36921062 0 49.13864538 0 373.79282802 0 18100
0.13150000 0.13148800 12958.93824450 0 8.65626604 0 3771.61029227 0 -265.46009476 0 624.88436686 0 19059
0.13250000 0.13249300 12968.68189034 0 47.13278301 0 3637.73481289 0 397.79209206 0 509.90159532 0 18957
0.13350000 0.13349100 12823.30226547 0 175.71890210 0 3744.38344555 0 302.59777943 0 1117.87298602 0 19468
0.13450000 0.13450700 12527.44974631 0 422.56752608 0 3794.58536627 0 638.99604484 0 1612.86126703 0 19953
0.13550000 0.13551000 12438.09608503 0 206.04489255 0 3516.44856683 0 543.82941303 0 1395.71083269 0 19956
0.13650000 0.13649900 12177.45355880 0 163.11859646 0 3405.18277473 0 155.59384451 0 1054.68322828 0 19723
0.13750000 0.13749600 11878.50078869 0 311.50767922 0 3394.94087427 0 -224.56114134 0 965.33399592 0 20946
0.13850000 0.13851100 11554.41384125 0 347.90905429 0 3315.46372672 0 -472.65318739 0 542.01908792 0 20955
0.13950000 0.13949800 11553.30660877 0 143.57705039 0 3214.97130667 0 -302.81811870 0 626.38688134 0 20506
0.14050000 0.14048300 11351.23668083 0 -85.06125312 0 3230.99296068 0 107.42834577 0 -309.79257610 0 21447
0.14150000 0.14148400 11542.56645369 0 32.99741025 0 2846.29610718 0 214.50193425 0 -939.80785828 0 21771
0.14250000 0.14249400 11291.66757330 0 166.13801944 0 2984.06904490 0 -237.30317275 0 -1205.01218234 0 22470
0.14350000 0.14350900 11205.41416297 0 272.25407327 0 2899.04466262 0 -301.23145455 0 -1410.06056565 0 22519
0.14450000 0.14449900 10923.97781073 0 130.25261470 0 3135.84847351 0 -93.69810938 0 -1240.68721290 0 22218
0.14550000 0.14550500 10910.13740470 0 219.07148270 0 3158.90105379 0 117.60359083 0 -1254.70477612 0 23559
0.14650000 0.14650700 10618.47022433 0 224.90991958 0 3023.34258103 0 359.42316487 0 -963.24686269 0 23044
0.14750000 0.14750500 10595.30692081 0 131.51375250 0 2793.83543219 0 474.33396630 0 -1084.29394654 0 23649
0.14850000 0.14849900 10441.10265306 0 110.99341291 0 2959.83172587 0 487.28526464 0 -785.74531629 0 23640
0.14950000 0.14949500 10286.96481926 0 331.78553489 0 2929.63749609 0 318.52531869 0 81.74874571 0 24457
0.15050000 0.15050000 10081.94965292 0 292.29387396 0 2722.50751571 0 291.75797344 0 378.74437168 0 24591
0.15150000 0.15149900 9776.53064512 0 212.82779873 0 2693.30979516 0 225.15018902 0 692.35579261 0 25020
0.15250000 0.15250500 9795.84077960 0 97.08258690 0 2912.91828561 0 338.57065554 0 875.44775581 0 25297
0.15350000 0.15350100 9587.29354164 0 169.18512323 0 2903.08606118 0 -121.19656023 0 582.10865439 0 25452
0.15450000 0.15450400 9503.06636675 0 253.59166979 0 2977.14884189 0 -139.06950695 0 1003.99301802 0 26061
0.15550000 0.15549900 9241.98094753 0 210.45278506 0 2827.71674613 0 -207.05468857 0 888.83419651 0 26128
0.15650000 0.15649500 9202.00985493 0 67.46810405 0 3054.78798352 0 107.66662220 0 1005.20322313 0 26331
0.15750000 0.15749700 9169.36864136 0 -63.43013791 0 2905.07907964 0 249.28453543 0 872.88561985 0 27345
0.15850000 0.15849900 9188.39089540 0 -136.31139084 0 2664.21172554 0 173.25863153 0 431.47631863 0 26980
0.15950000 0.15949700 9318.01460206 0 45.19235809 0 2583.64949016 0 261.37440690 0 657.00739562 0 27777
0.16050000 0.16050000 9191.71259285 0 256.21359630 0 2390.97996599 0 132.92104498 0 443.64480360 0 28224
0.16150000 0.16150500 9052.83242265 0 158.86571650 0 2535.00876723 0 -186.43801976 0 638.13683244 0 28075
0.16250000 0.16249700 8854.16169843 0 261.53827731 0 2603.42466228 0 -161.37359807 0 635.31449684 0 28590
0.16350000 0.16349900 8804.59090021 0 116.88388972 0 2648.13470990 0 -215.88818931 0 268.08645021 0 29163
0.16450000 0.16449100 8685.68520399 0 23.01460220 0 2722.25285224 0 -43.49319912 0 269.32655059 0 28996
0.16550000 0.16550500 8726.67495047 0 113.80135449 0 2694.14021952 0 14.93368738 0 207.42118253 0 30777
0.16650000 0.16650700 8725.66736891 0 -18.18585062 0 2807.83085076 0 291.46566406 0 313.55163038 0 29211
0.16750000 0.16749900 8608.59967860 0 127.92299756 0 2449.01002036 0 191.16479523 0 92.08332152 0 30922
0.16850000 0.16850800 8563.69032914 0 30.00002120 0 2381.11452457 0 265.54645889 0 251.95628741 0 30867
0.16950000 0.16949900 8475.12280291 0 181.67913455 0 2516.25224899 0 160.28408131 0 294.43747604 0 30852
0.17050000 0.17049200 8416.42840905 0 85.23353850 0 2267.74499076 0 237.88446980 0 294.37989995 0 31257
0.17150000 0.17149500 8297.83273791 0 7.66587980 0 2232.88931223 0 100.01143826 0 263.69959511 0 32608
0.17250000 0.17250900 8319.47913294 0 -12.81045837 0 1772.28059977 0 300.92918008 0 26.93697327 0 32361
0.17350000 0.17350400 8266.78593912 0 -13.24637580 0 1999.62864527 0 198.26326267 0 152.57220707 0 32508
0.17450000 0.17449800 8343.47286082 0 -25.87558021 0 1666.24094498 0 171.82697993 0 -312.03361464 0 32791
0.17550000 0.17549800 8418.96397143 0 -91.49239155 0 1742.13065929 0 62.33220618 0 49.78493698 0 33633
0.17650000 0.17650100 8319.22446946 0 210.87906957 0 1607.28081532 0 -136.13312641 0 -214.37128081 0 33984
0.17750000 0.17750300 8362.39546393 0 152.65082058 0 1718.21443768 0 -164.12728525 0 -145.03195387 0 34069
0.17850000 0.17849800 8166.54818254 0 109.41294927 0 1905.86819871 0 -280.73768854 0 1.14929624 0 34536
