### header ###
fiducial parameters:
Omega_m = 0.31
Omega_nu = 0
Omega_de = 0.69
Omega_k = 0
H_0 = 100
w_de = -1
zeff = 0
beta = 0
fgrowth = 0
b_1 = 2
gamma = 0.55
Lx = 3500 Ly = 3500 Lz = 3500
nx = 700 ny = 700 nz = 700
xoffset = -685.467585 yoffset = -31.7331281 zoffset = 572.489161
bins = 400 dk = 0.001
kx_ny = 0.628318531 ky_ny = 0.628318531 kz_ny = 0.628318531
############################
A(data) = 8.00443702 (not used)
A(ran) = 7.99711833 (used)
Ngal = 475500
weighted Ngal = 0
Nran = 23820508
weighted Nran = 0
SN(data) = 3494.14172
SN(ran) = 69.657801
SN(data+ran) = 3563.79952
############################
13 columns: k_central k_mean P_0(k) sigma^{lin}_{P_0(k)} P^img_1(k) sigma^{lin}_{P_1(k)} P_2(k) sigma^{lin}_{P_2(k)} P^img_3(k) sigma^{lin}_{P_3(k)} P_4(k) sigma^{lin}_{P_4(k)} N_modes
### header ###
0.00050000 0 0 0 0 0 0 0 0 0 0 0 0
0.00150000 0.00179520 39603.71285783 0 -26484.44734996 0 111892.48568731 0 -66328.54037960 0 -64154.71084796 0 3
0.00250000 0.00253879 80919.42857912 0 -35654.76821126 0 37486.90579900 0 46272.02047986 0 81662.82446744 0 6
0.00350000 0.00331552 78073.95182398 0 -12174.02113810 0 17106.40967506 0 32569.13273080 0 16249.63318060 0 7
0.00450000 0.00420575 76167.74038320 0 15015.95474930 0 -8304.94117045 0 -1387.55052930 0 4487.34751320 0 24
0.00550000 0.00557378 89935.17978595 0 -6568.99994073 0 31797.72386068 0 -9759.15816748 0 10697.06158589 0 45
0.00650000 0.00659388 56586.88755766 0 4141.53666447 0 16333.89357247 0 2302.23528257 0 57406.12887099 0 40
0.00750000 0.00754703 73862.92524895 0 19942.80712386 0 43088.83781775 0 30380.57700715 0 3841.02269656 0 57
0.00850000 0.00846663 65201.15626657 0 2458.01182044 0 30859.12288581 0 22800.68488280 0 38390.07533446 0 75
0.00950000 0.00948925 77176.53989742 0 -7155.73350520 0 50344.64299465 0 16126.06603562 0 -18185.85062163 0 112
0.01050000 0.01054430 83813.40211697 0 -8554.97640950 0 24794.69985939 0 -4107.40068705 0 15426.29510708 0 105
0.01150000 0.01145670 97471.00405752 0 -7704.21218741 0 50969.23283767 0 -17825.33572554 0 19480.31611618 0 144
0.01250000 0.01249090 100585.75975226 0 1185.25915486 0 51814.82628407 0 -17490.73006952 0 12828.61698138 0 169
0.01350000 0.01339930 106267.52323294 0 11933.19807330 0 66668.68219803 0 14894.26989955 0 -3524.29884513 0 180
0.01450000 0.01448870 91788.79768384 0 16492.11709413 0 61048.37012009 0 -5719.49796367 0 9493.33379323 0 267
0.01550000 0.01550050 88351.83733688 0 6842.77424420 0 65329.92740421 0 14671.60544744 0 9111.39394861 0 238
0.01650000 0.01653350 85412.79943702 0 -4416.26318787 0 65505.86664558 0 19486.40589483 0 -17803.63396889 0 315
0.01750000 0.01747870 95012.28360829 0 -856.56058413 0 62565.72151324 0 17086.59021364 0 -14454.80932749 0 297
0.01850000 0.01844180 80142.81571634 0 1553.19250859 0 28925.89497247 0 9392.22132299 0 -13376.91850640 0 388
0.01950000 0.01947590 82489.15206866 0 5363.69987795 0 33383.17005147 0 11213.05406709 0 -16340.64769061 0 399
0.02050000 0.02045430 78762.20753470 0 907.92952790 0 34361.96356544 0 -2443.36313471 0 -31861.83262138 0 462
0.02150000 0.02154770 71811.44490655 0 3918.87221236 0 22956.25104650 0 -571.25445437 0 -26879.50789949 0 571
0.02250000 0.02255340 72532.80686848 0 4003.70836512 0 17039.20066341 0 7050.61285337 0 -25467.45431537 0 510
0.02350000 0.02348930 67601.52556400 0 -1858.64473336 0 12643.81988016 0 -5899.55610987 0 -22229.90653840 0 555
0.02450000 0.02439640 74345.67861104 0 -1369.19261475 0 18073.13435498 0 -7196.81183027 0 -33243.65875875 0 592
0.02550000 0.02547300 73336.65765032 0 764.07124046 0 21731.20902856 0 -1134.40396697 0 -25974.12389907 0 837
0.02650000 0.02652900 71924.38261970 0 6577.28203970 0 23182.68008904 0 -3672.59049142 0 -23773.72078786 0 723
0.02750000 0.02749970 68025.70632781 0 4236.73651326 0 25897.83558107 0 136.15637829 0 -13910.60456266 0 826
0.02850000 0.02848090 68111.07395216 0 1907.37403488 0 32238.18094197 0 3700.47060531 0 -9398.21145072 0 831
0.02950000 0.02946900 62093.26541322 0 2421.62816109 0 25653.24792583 0 12200.92688741 0 -12616.58196110 0 996
0.03050000 0.03053250 62828.57850443 0 1068.84141002 0 27903.47649872 0 2432.19115896 0 -15298.52047868 0 1041
0.03150000 0.03150510 59778.48518664 0 4203.44203253 0 27969.35683139 0 1822.72611165 0 -11642.21737706 0 1036
0.03250000 0.03246190 57190.88287652 0 3365.28918840 0 22360.67069450 0 -1190.42993055 0 -9530.16034558 0 1059
0.03350000 0.03345080 53275.70882065 0 1450.27524940 0 21306.36392527 0 2978.46644854 0 -7656.84478184 0 1302
0.03450000 0.03451200 53479.88249030 0 -221.97021734 0 17065.99568948 0 6646.41763586 0 -14758.41247402 0 1339
0.03550000 0.03553350 53027.13512847 0 -823.35800370 0 15426.40583033 0 5624.33133185 0 -15707.64288072 0 1365
0.03650000 0.03647120 50957.49617337 0 3461.59626968 0 4123.80987243 0 5142.95093804 0 -12663.30717184 0 1308
0.03750000 0.03744890 51084.93863203 0 -926.98499891 0 7376.95855507 0 3092.11279048 0 -14396.12600596 0 1579
0.03850000 0.03847530 51093.90721513 0 -2840.51635363 0 4870.32815635 0 -1874.45601320 0 -13391.31252866 0 1662
0.03950000 0.03950240 51268.40705427 0 2941.13056925 0 6614.41861714 0 -2302.81104346 0 -13951.12927149 0 1683
0.04050000 0.04050350 49196.66435746 0 3082.92276088 0 9394.83439165 0 -3807.87215606 0 -8569.99048196 0 1822
0.04150000 0.04152450 46755.43818144 0 1668.82079667 0 6785.02099794 0 -1572.79052351 0 -7675.21376871 0 1887
0.04250000 0.04250150 46372.22501947 0 1835.24891102 0 13626.82087756 0 3283.84116704 0 -5121.74743601 0 1920
0.04350000 0.04349210 43553.54329039 0 2364.74962849 0 12304.34240122 0 1025.74460013 0 -7685.99821309 0 2005
0.04450000 0.04448520 41912.18185927 0 2189.28649709 0 13585.85327573 0 2194.45727278 0 -2062.79625836 0 2151
0.04550000 0.04548030 38370.80948927 0 2677.57602159 0 10491.90247933 0 918.87562821 0 -2559.50074973 0 2274
0.04650000 0.04648670 39109.00138493 0 58.52509802 0 12453.70806302 0 419.22036228 0 -1672.91755685 0 2311
0.04750000 0.04749250 37655.09441300 0 -478.10520013 0 10155.15986462 0 1605.63103893 0 -522.73331255 0 2568
0.04850000 0.04851840 38195.31314090 0 199.51664984 0 5956.06925575 0 2047.85969218 0 -2337.54492641 0 2493
0.04950000 0.04949480 38218.56502302 0 447.67623707 0 8109.35962485 0 2050.38418224 0 669.16480827 0 2644
0.05050000 0.05050630 37203.12211390 0 882.04686140 0 8515.53678850 0 28.31558843 0 948.50516943 0 2829
0.05150000 0.05149060 36531.03199741 0 1765.96937463 0 7720.61030047 0 -456.69353840 0 -1125.76755361 0 2784
0.05250000 0.05249300 35106.68813274 0 1456.52004059 0 11671.66976108 0 -1599.48589865 0 2774.28170656 0 3055
0.05350000 0.05348950 34990.20727565 0 1954.69715116 0 13105.53582509 0 -2566.87491806 0 4648.13981422 0 3009
0.05450000 0.05448610 34587.50682199 0 3.96155602 0 16240.99676724 0 -2162.59112195 0 5512.33476631 0 3336
0.05550000 0.05550870 35224.49766881 0 -735.28208870 0 17440.57243809 0 64.96243694 0 5573.29898676 0 3349
0.05650000 0.05647670 35749.21514196 0 -455.47447544 0 15982.34725948 0 820.74161334 0 3258.82878527 0 3324
0.05750000 0.05747970 36451.08981222 0 288.54921370 0 16606.49420950 0 219.52323355 0 4196.17858745 0 3639
0.05850000 0.05849280 35199.03132172 0 574.72230650 0 16688.20796666 0 477.46521976 0 1741.49953678 0 3846
0.05950000 0.05951020 35308.09372119 0 365.80193120 0 15390.42077467 0 2345.74951910 0 1142.89644011 0 3787
0.06050000 0.06049470 35241.88121877 0 266.48207034 0 14131.60816604 0 1175.03939905 0 -1090.35715161 0 3930
0.06150000 0.06148310 33732.28045300 0 1451.10567376 0 11758.03389467 0 2167.27471535 0 175.52513642 0 4083
0.06250000 0.06249100 32392.86131969 0 1302.80295514 0 11951.13523950 0 1368.52827526 0 -320.93244210 0 4303
0.06350000 0.06350600 31938.45310913 0 549.06330097 0 9624.18652794 0 1824.87414266 0 -1805.48650190 0 4470
0.06450000 0.06451750 29997.58529167 0 1256.83066249 0 9818.24009271 0 1749.57126157 0 -1282.21950330 0 4479
0.06550000 0.06550280 29635.74171660 0 865.70410997 0 9678.54057048 0 10.77853175 0 -3019.61120757 0 4636
0.06650000 0.06648880 27957.62016708 0 1145.73095526 0 9613.63460239 0 -59.15157016 0 681.35100897 0 4653
0.06750000 0.06749660 28920.35881006 0 344.59621470 0 10459.40520599 0 -132.77378306 0 -1667.53640699 0 5220
0.06850000 0.06852730 27881.44257233 0 -129.01805048 0 9603.93524585 0 -365.33910802 0 1542.46342584 0 5029
0.06950000 0.06949320 28743.53378271 0 838.08087401 0 11769.77055897 0 -496.38450118 0 -51.00211764 0 5040
0.07050000 0.07048030 28349.02684942 0 247.80638007 0 11086.38667117 0 -1293.85651668 0 377.24296443 0 5475
0.07150000 0.07148790 28233.54250156 0 837.83396117 0 14142.34832111 0 -1052.70571106 0 784.02135532 0 5509
0.07250000 0.07249820 27542.51870963 0 615.69212280 0 13836.19853988 0 -882.75327572 0 902.75210881 0 5916
0.07350000 0.07351270 27717.46144177 0 280.67679076 0 14364.01626398 0 1298.01971081 0 648.19271784 0 5721
0.07450000 0.07449140 27017.91195972 0 237.59658935 0 13924.88786167 0 433.45605030 0 311.39031257 0 6028
0.07550000 0.07549160 27011.82218107 0 186.89973571 0 14705.70820789 0 1497.48764242 0 -1054.07314318 0 6183
0.07650000 0.07648840 26635.03096749 0 883.44086710 0 15079.50989376 0 855.23190515 0 196.75631926 0 6330
0.07750000 0.07749960 25668.08484108 0 1096.68830694 0 14120.42511797 0 2621.50576871 0 1992.64200831 0 6583
0.07850000 0.07848650 25396.03782029 0 84.37742634 0 13744.29824388 0 2008.98475974 0 4353.20629802 0 6549
0.07950000 0.07947320 25306.79488225 0 -601.13755182 0 11713.74459539 0 3149.12419097 0 5651.69104648 0 6828
0.08050000 0.08048110 25803.27792712 0 -241.30471094 0 11863.99604318 0 2964.69247647 0 4030.35945096 0 7147
0.08150000 0.08149960 25603.97608038 0 383.48775563 0 10460.65637869 0 1407.19283353 0 4045.03028135 0 7386
0.08250000 0.08250610 24556.09125955 0 741.50362801 0 9148.80733418 0 -114.42583361 0 3825.00104255 0 7227
0.08350000 0.08350160 24466.95904476 0 297.45800625 0 9141.79855257 0 -777.42114249 0 2967.64878719 0 7798
0.08450000 0.08449610 23900.72035353 0 568.87611900 0 9348.80673738 0 -658.47669313 0 979.55750438 0 7371
0.08550000 0.08548940 23443.98695476 0 638.79563576 0 8929.44243487 0 -105.79440279 0 1799.97248414 0 8256
0.08650000 0.08650700 23001.20468526 0 577.77605369 0 7815.88765553 0 434.76590633 0 128.07468841 0 8037
0.08750000 0.08749060 22669.14566395 0 409.81552958 0 7690.53786626 0 1159.98103730 0 1761.71760189 0 8155
0.08850000 0.08849210 22182.62771142 0 -103.46146395 0 6961.60243415 0 1847.47275762 0 33.22594304 0 8718
0.08950000 0.08949900 22262.90206636 0 437.35350864 0 6947.98347462 0 900.90524503 0 312.39014350 0 8571
0.09050000 0.09049190 21722.35116871 0 163.52384355 0 6444.09304445 0 288.06646034 0 -600.30934193 0 8932
0.09150000 0.09150830 21260.41377728 0 923.50828892 0 6365.71205706 0 205.78358568 0 93.11581581 0 9285
0.09250000 0.09250820 20569.05781560 0 662.02980216 0 6266.42652041 0 -285.83649412 0 899.97738421 0 9204
0.09350000 0.09350330 19732.10078256 0 469.81313608 0 6071.75290545 0 295.07967088 0 -535.65582284 0 9349
0.09450000 0.09448040 20061.83461566 0 517.35880608 0 7481.13805929 0 -799.93228608 0 49.85579985 0 9564
0.09550000 0.09549270 19222.66311765 0 540.55532658 0 7187.53322208 0 -292.36916577 0 299.36687505 0 10155
0.09650000 0.09649430 18764.71176315 0 515.81643123 0 8165.40773308 0 -535.70454107 0 553.51991171 0 9913
0.09750000 0.09749140 18675.91171811 0 238.35393637 0 8163.63616111 0 766.90021945 0 533.18447994 0 10476
0.09850000 0.09850240 18366.66168592 0 560.33603486 0 8383.42180876 0 877.75522830 0 1013.60268873 0 10575
0.09950000 0.09950330 17762.66636707 0 626.86077684 0 7726.47863262 0 1151.72108299 0 1287.54529154 0 10882
0.10050000 0.10051200 17610.64334731 0 255.09639873 0 7210.19827098 0 1293.14788789 0 2413.12461563 0 10875
0.10150000 0.10150300 17060.79169681 0 -114.69156940 0 6463.95679518 0 1571.50613384 0 2712.30990455 0 11118
0.10250000 0.10250800 17228.64814106 0 66.53791804 0 6028.67048958 0 1507.08734804 0 1211.15732261 0 11575
0.10350000 0.10349800 16951.39712760 0 -121.43129352 0 4458.74769820 0 876.36675877 0 1522.12356514 0 11364
0.10450000 0.10450100 16902.90034490 0 140.14352246 0 4995.68901795 0 -141.61724890 0 1480.69092567 0 12093
0.10550000 0.10551000 16581.47075541 0 400.58010345 0 3930.90782944 0 -200.87965302 0 1380.84070046 0 12067
0.10650000 0.10649700 16543.49268128 0 128.01932679 0 4185.15055193 0 -107.16006334 0 2031.94876142 0 12054
0.10750000 0.10749900 16288.05414772 0 108.03876303 0 3497.45952977 0 462.86414502 0 1452.72223318 0 12807
0.10850000 0.10850100 16163.26904701 0 197.10620472 0 3818.25799674 0 649.94878855 0 429.70253219 0 12736
0.10950000 0.10950300 15969.61408593 0 545.10494484 0 3922.55929653 0 -347.58574240 0 146.62415418 0 12933
0.11050000 0.11050200 15643.86628977 0 545.71945887 0 4091.05793562 0 -1192.37865972 0 602.05212585 0 13428
0.11150000 0.11150900 15278.47957075 0 304.34056336 0 4818.13321716 0 -377.18871004 0 1351.77584781 0 13453
0.11250000 0.11250000 15075.08096384 0 108.40392831 0 4865.48955041 0 31.41905035 0 1136.21982824 0 13668
0.11350000 0.11349100 15300.18132740 0 -54.90566576 0 4740.62694343 0 732.47636159 0 809.95384727 0 13791
0.11450000 0.11448600 15166.64909009 0 -76.39870908 0 4627.66708563 0 688.17820445 0 234.72996446 0 14205
0.11550000 0.11549300 15031.12383431 0 415.07820557 0 4504.54283365 0 463.72003573 0 333.86159579 0 14776
0.11650000 0.11649800 14790.52221600 0 478.09855674 0 4228.31047407 0 34.32365332 0 1286.30519116 0 14553
0.11750000 0.11747300 14206.78925156 0 271.43915016 0 4072.66680409 0 303.06503154 0 1155.03170811 0 14568
0.11850000 0.11849100 14174.12589334 0 233.10676164 0 3972.57298773 0 305.00601008 0 1417.41258933 0 16015
0.11950000 0.11950300 13899.08934485 0 385.83508849 0 4446.25811580 0 149.43320298 0 1561.21994408 0 15270
0.12050000 0.12050700 13510.45074371 0 180.04153771 0 4107.01315568 0 10.50391595 0 1337.31539160 0 15999
0.12150000 0.12150000 13639.88622084 0 -122.34476032 0 4566.07174266 0 63.27811489 0 1461.00433215 0 15670
0.12250000 0.12250700 13786.59452469 0 -82.79098364 0 4401.48163423 0 -303.72494210 0 267.08883374 0 16887
0.12350000 0.12352200 13787.70175717 0 170.54591195 0 4852.55707502 0 -574.04025129 0 623.61990737 0 16407
0.12450000 0.12449800 13761.46034735 0 282.88682679 0 4721.42753219 0 -362.41047810 0 327.83382216 0 16306
0.12550000 0.12549900 13487.08813834 0 52.85152806 0 4438.76215190 0 -80.61604688 0 299.95481550 0 17523
0.12650000 0.12650100 13585.52110598 0 2.86431078 0 4379.86845619 0 875.59391050 0 -39.74233836 0 17154
0.12750000 0.12750600 13378.69007837 0 103.19152068 0 4053.11307846 0 930.07639200 0 145.76937070 0 18007
0.12850000 0.12850300 13286.90050562 0 380.18709560 0 3468.21751992 0 706.60255295 0 577.73840778 0 17496
0.12950000 0.12949900 13026.92231888 0 301.62009315 0 3451.04434413 0 466.67302476 0 324.50658855 0 18405
0.13050000 0.13049000 12690.98798388 0 350.39368398 0 3265.53861411 0 -253.59609872 0 1460.19605243 0 18100
0.13150000 0.13148800 12393.36389276 0 229.18715865 0 3439.40733074 0 31.67061357 0 924.45940162 0 19059
0.13250000 0.13249300 12343.42770783 0 217.50474874 0 3757.27163163 0 52.35659514 0 1282.30808190 0 18957
0.13350000 0.13349100 12307.11048242 0 13.20939423 0 3817.06218566 0 3.40644502 0 577.31544497 0 19468
0.13450000 0.13450700 12043.69987499 0 82.70107637 0 3457.84275156 0 -107.13083240 0 690.34616565 0 19953
0.13550000 0.13551000 12050.45399313 0 169.67451999 0 3681.09403688 0 -97.24446429 0 774.08283656 0 19956
0.13650000 0.13649900 12195.39072500 0 -142.27826669 0 3587.42216892 0 513.60971690 0 595.43530454 0 19723
0.13750000 0.13749600 11993.09935056 0 60.84807176 0 3355.50125327 0 518.02203834 0 1177.19850239 0 20946
0.13850000 0.13851100 11945.04546085 0 159.40936765 0 3056.13880714 0 249.43290458 0 633.14875010 0 20955
0.13950000 0.13949800 11928.21552713 0 251.73151922 0 3290.62850215 0 301.53040732 0 1134.59219649 0 20506
0.14050000 0.14048300 11558.17843169 0 258.28301381 0 3028.44692277 0 434.01188101 0 1556.70243555 0 21447
0.14150000 0.14148400 11413.68459281 0 177.78278345 0 3131.68527938 0 56.17532924 0 1863.09580793 0 21771
0.14250000 0.14249400 11398.29406131 0 128.56408517 0 3188.41987175 0 -144.83818819 0 1713.23189151 0 22470
0.14350000 0.14350900 11289.34238509 0 184.65758993 0 3610.90656986 0 73.64380394 0 1398.95502386 0 22519
0.14450000 0.14449900 10996.33545342 0 410.16762951 0 3366.29676996 0 -516.24603744 0 1582.98813467 0 22218
0.14550000 0.14550500 10777.85634009 0 416.46778233 0 3971.32181503 0 -471.64782030 0 1687.69911048 0 23559
0.14650000 0.14650700 10531.04314756 0 270.41053119 0 4044.95277507 0 65.13594027 0 1862.03286475 0 23044
0.14750000 0.14750500 10419.01336505 0 -2.44727167 0 4141.89097886 0 337.07146276 0 1518.96795257 0 23649
0.14850000 0.14849900 10334.80833480 0 59.56312847 0 3716.31510213 0 578.12151022 0 1264.38198802 0 23640
0.14950000 0.14949500 10286.24511815 0 128.13337173 0 3503.30571727 0 102.02416547 0 1085.38124884 0 24457
0.15050000 0.15050000 10028.79142146 0 122.09674024 0 3306.98232591 0 70.24371444 0 639.37139665 0 24591
0.15150000 0.15149900 9973.79518409 0 230.20027637 0 3318.82971347 0 -146.47135610 0 655.60010314 0 25020
0.15250000 0.15250500 9887.19853168 0 135.21965962 0 3022.27963785 0 -273.48863749 0 603.41955797 0 25297
0.15350000 0.15350100 9759.99966417 0 -38.88711200 0 3073.23447666 0 339.52619717 0 430.27386415 0 25452
0.15450000 0.15450400 9926.57171874 0 -24.56528129 0 3044.95575908 0 194.20525562 0 274.78077779 0 26061
0.15550000 0.15549900 9766.64305906 0 59.43402516 0 2991.78645530 0 522.80528266 0 151.92115437 0 26128
0.15650000 0.15649500 9693.05638831 0 255.77402501 0 2963.91741373 0 73.84188783 0 324.24195999 0 26331
0.15750000 0.15749700 9417.26692173 0 197.80708289 0 2757.06424147 0 284.38491234 0 701.43731342 0 27345
0.15850000 0.15849900 9372.32435529 0 105.11256903 0 2869.45941070 0 275.23695757 0 910.02884068 0 26980
0.15950000 0.15949700 9195.98651023 0 135.47764478 0 2626.06756654 0 225.09372017 0 959.05598775 0 27777
0.16050000 0.16050000 9147.08005150 0 104.63214086 0 2392.03183685 0 346.44529295 0 747.48821958 0 28224
0.16150000 0.16150500 8966.09183002 0 170.86147321 0 2496.88675288 0 29.43898650 0 975.33119800 0 28075
0.16250000 0.16249700 8912.57928417 0 200.33710911 0 2404.11174322 0 -150.40313864 0 539.52227867 0 28590
0.16350000 0.16349900 8663.73985620 0 179.41262966 0 2454.86728019 0 -125.72403385 0 825.53703722 0 29163
0.16450000 0.16449100 8595.86650506 0 208.48966187 0 2373.48569277 0 -225.36609936 0 599.33608457 0 28996
0.16550000 0.16550500 8461.21596294 0 78.68857657 0 2481.55158300 0 59.94589874 0 491.74076815 0 30777
0.16650000 0.16650700 8417.19239946 0 68.43936838 0 2528.13285352 0 -1.51359788 0 291.52545462 0 29211
0.16750000 0.16749900 8436.63540184 0 65.99360255 0 2576.57427460 0 74.42395995 0 259.79549338 0 30922
0.16850000 0.16850800 8389.09083907 0 186.82333667 0 2524.97724094 0 5.60601771 0 210.37860048 0 30867
0.16950000 0.16949900 8265.59012804 0 99.77316183 0 2537.34502777 0 6.92642566 0 458.87146469 0 30852
0.17050000 0.17049200 8283.25048613 0 -12.10227247 0 2832.76572625 0 -41.99500285 0 472.55132201 0 31257
0.17150000 0.17149500 8270.91591628 0 88.81842510 0 2959.43312218 0 -58.55665414 0 453.93542229 0 32608
0.17250000 0.17250900 8283.06225661 0 63.99338708 0 2966.38654216 0 138.98646452 0 651.28300369 0 32361
0.17350000 0.17350400 8189.16894214 0 77.45689116 0 3059.26120274 0 -11.92710829 0 575.96683581 0 32508
0.17450000 0.17449800 8127.29679106 0 224.63532592 0 2964.23851115 0 120.88210621 0 594.67463582 0 32791
0.17550000 0.17549800 8075.21257511 0 39.26578550 0 2767.83761352 0 307.24815586 0 760.34872485 0 33633
0.17650000 0.17650100 7954.53530691 0 -113.49022216 0 2406.10476169 0 370.79333522 0 804.21727579 0 33984
0.17750000 0.17750300 8011.57992438 0 38.82532842 0 2263.93611102 0 497.67331979 0 332.49527091 0 34069
0.17850000 0.17849800 7912.19473681 0 73.97907394 0 2030.37649129 0 336.18899847 0 578.79360034 0 34536
