### header ###
fiducial parameters:
Omega_m = 0.31
Omega_nu = 0
Omega_de = 0.69
Omega_k = 0
H_0 = 100
w_de = -1
zeff = 0
beta = 0
fgrowth = 0
b_1 = 2
gamma = 0.55
Lx = 3500 Ly = 3500 Lz = 3500
nx = 700 ny = 700 nz = 700
xoffset = -685.467585 yoffset = -31.7331281 zoffset = 572.489161
bins = 400 dk = 0.001
kx_ny = 0.628318531 ky_ny = 0.628318531 kz_ny = 0.628318531
############################
A(data) = 7.99755943 (not used)
A(ran) = 7.98932396 (used)
Ngal = 475375
weighted Ngal = 0
Nran = 23820508
weighted Nran = 0
SN(data) = 3492.26549
SN(ran) = 69.5899091
SN(data+ran) = 3561.8554
############################
13 columns: k_central k_mean P_0(k) sigma^{lin}_{P_0(k)} P^img_1(k) sigma^{lin}_{P_1(k)} P_2(k) sigma^{lin}_{P_2(k)} P^img_3(k) sigma^{lin}_{P_3(k)} P_4(k) sigma^{lin}_{P_4(k)} N_modes
### header ###
0.00050000 0 0 0 0 0 0 0 0 0 0 0 0
0.00150000 0.00179520 10991.77365559 0 -31006.49552914 0 -30254.46322746 0 -14737.48578011 0 16607.49071874 0 3
0.00250000 0.00253879 18466.31260929 0 -34957.65464068 0 -18442.61783418 0 -23052.02665618 0 -19906.48989845 0 6
0.00350000 0.00331552 35775.01365879 0 -23597.89226974 0 -25711.93124736 0 7992.29193454 0 -15339.93097350 0 7
0.00450000 0.00420575 56161.93173112 0 -16733.49377517 0 -12436.76740605 0 -26026.38527221 0 -13326.20725873 0 24
0.00550000 0.00557378 53748.49709040 0 8830.90981631 0 -15187.90795374 0 -27007.28252790 0 9992.76207650 0 45
0.00650000 0.00659388 55938.60293953 0 18040.91388976 0 17517.30364908 0 -24668.58607970 0 11186.25904103 0 40
0.00750000 0.00754703 38084.47916946 0 7544.91465025 0 4757.13577973 0 -14736.93216387 0 12216.64958865 0 57
0.00850000 0.00846663 39834.12793731 0 225.04832364 0 19674.19252376 0 13387.32649173 0 -5033.55636883 0 75
0.00950000 0.00948925 44686.68501233 0 -11087.49390365 0 539.97070783 0 7851.04228683 0 -13248.14736876 0 112
0.01050000 0.01054430 56137.90478627 0 -9239.89935046 0 14688.43538117 0 -2541.92897024 0 -12962.03849544 0 105
0.01150000 0.01145670 56713.22278384 0 -1647.01938910 0 9357.87497140 0 -10383.21653891 0 -23256.86466533 0 144
0.01250000 0.01249090 67977.09882185 0 -3187.08012045 0 9544.72045272 0 -10341.42958504 0 -5759.64621346 0 169
0.01350000 0.01339930 57646.28759631 0 1995.78654856 0 7858.95899908 0 -1879.39427007 0 -16213.98029468 0 180
0.01450000 0.01448870 67493.01678078 0 333.52388988 0 13962.42304281 0 10820.73945412 0 -3802.13669180 0 267
0.01550000 0.01550050 71192.94484218 0 -3322.18462789 0 25994.93986973 0 1115.65852105 0 7959.13032171 0 238
0.01650000 0.01653350 69980.08238155 0 -1880.32434535 0 25973.23811308 0 -1060.92359054 0 -379.58254667 0 315
0.01750000 0.01747870 71886.95816181 0 7724.85100087 0 33756.30739786 0 -1532.71978000 0 9578.95608106 0 297
0.01850000 0.01844180 71037.15723198 0 8281.41248021 0 30688.71980685 0 -4820.94558766 0 12147.77972828 0 388
0.01950000 0.01947590 65302.35731541 0 1199.25457343 0 50297.58561418 0 -7672.58962773 0 11360.31598718 0 399
0.02050000 0.02045430 67290.39323660 0 -2512.70910504 0 52997.79346770 0 4579.21459222 0 2055.20064354 0 462
0.02150000 0.02154770 70653.94407001 0 1033.46754669 0 55461.93935609 0 10608.44977037 0 -6749.64492015 0 571
0.02250000 0.02255340 69181.43559238 0 4016.57440656 0 42300.15612092 0 9776.85174254 0 -11651.07523692 0 510
0.02350000 0.02348930 65574.95795245 0 35.64779265 0 40202.50418402 0 8510.65389325 0 -9021.44238179 0 555
0.02450000 0.02439640 65202.92783854 0 3383.97927270 0 35681.12034433 0 7081.56000124 0 -6653.96896139 0 592
0.02550000 0.02547300 64195.56772654 0 -1716.18820224 0 29512.83891111 0 9464.47931476 0 -9754.48564641 0 837
0.02650000 0.02652900 63225.18917943 0 -2746.62303916 0 20305.97937791 0 15949.68390126 0 -7934.60512224 0 723
0.02750000 0.02749970 68275.60869896 0 -341.51810840 0 13547.32158536 0 2331.48836474 0 -22043.44858845 0 826
0.02850000 0.02848090 65079.02852382 0 858.94999183 0 6904.38065949 0 3125.30762029 0 -16125.95531237 0 831
0.02950000 0.02946900 62933.87631346 0 2255.47685486 0 10376.41813147 0 -9248.98972914 0 -14028.74626847 0 996
0.03050000 0.03053250 61072.95068119 0 4307.84298324 0 10869.94486561 0 -4893.03749456 0 -9281.59772573 0 1041
0.03150000 0.03150510 58701.14798178 0 1459.24383250 0 13519.53005006 0 2248.46807325 0 -16335.77586769 0 1036
0.03250000 0.03246190 55131.87335324 0 5293.26881978 0 17885.01555631 0 980.76438779 0 -16100.37824204 0 1059
0.03350000 0.03345080 53876.27171881 0 3987.98566388 0 13392.53048439 0 5543.71373485 0 -9263.47233000 0 1302
0.03450000 0.03451200 51271.61802847 0 -1950.21285961 0 12858.06936540 0 -971.72051287 0 -9843.65107817 0 1339
0.03550000 0.03553350 52716.33497081 0 -716.68058300 0 17897.97017635 0 -1169.93505731 0 -5237.99577428 0 1365
0.03650000 0.03647120 51662.47109457 0 1563.22403487 0 17823.56415357 0 1072.59603537 0 -4770.10147210 0 1308
0.03750000 0.03744890 50343.31431568 0 2688.41582759 0 19241.48606984 0 292.92721094 0 5625.21711784 0 1579
0.03850000 0.03847530 49596.26456016 0 1189.96489291 0 18465.75899305 0 4617.70199329 0 10902.27605408 0 1662
0.03950000 0.03950240 48577.83212334 0 -165.42496172 0 19727.78257588 0 8539.26478059 0 10349.91098585 0 1683
0.04050000 0.04050350 49852.03526347 0 -1997.21487846 0 20848.41257077 0 3363.71691828 0 7212.14700015 0 1822
0.04150000 0.04152450 50049.67626149 0 1506.45622553 0 21350.54250130 0 -1165.76079086 0 976.34763742 0 1887
0.04250000 0.04250150 49381.90435167 0 4406.47525273 0 21049.70743598 0 -3678.01593058 0 5162.94755666 0 1920
0.04350000 0.04349210 44079.70016577 0 2457.36962560 0 21960.18470581 0 -6102.08000313 0 2145.60617568 0 2005
0.04450000 0.04448520 42649.26652245 0 2455.83057245 0 17525.05427646 0 596.48496093 0 795.48342597 0 2151
0.04550000 0.04548030 42714.48251563 0 284.66614939 0 18130.37827429 0 1875.78469218 0 -7857.79640497 0 2274
0.04650000 0.04648670 41087.07221378 0 131.68869523 0 15783.48830573 0 3211.99285129 0 -7758.20084323 0 2311
0.04750000 0.04749250 41131.47223631 0 569.22157553 0 13822.13668736 0 3022.45679505 0 -10292.88851304 0 2568
0.04850000 0.04851840 39733.03761171 0 326.13200584 0 11873.07534953 0 811.51172338 0 -8802.28785665 0 2493
0.04950000 0.04949480 39800.57879311 0 1517.15209130 0 14435.76492881 0 934.93492813 0 -5595.21111758 0 2644
0.05050000 0.05050630 39305.31370397 0 2084.48694268 0 14480.60784432 0 -595.84608779 0 -2871.21991035 0 2829
0.05150000 0.05149060 37878.53392784 0 1623.04780587 0 12838.36062722 0 -1089.62084201 0 -3023.44223195 0 2784
0.05250000 0.05249300 36438.13519218 0 904.73626942 0 15582.08271728 0 1472.74099645 0 -1333.47329488 0 3055
0.05350000 0.05348950 35506.95267493 0 239.36594686 0 12359.81474856 0 1815.29658169 0 -4846.66659822 0 3009
0.05450000 0.05448610 35502.96663800 0 534.66595701 0 13295.20474924 0 2597.52311316 0 -3994.30796135 0 3336
0.05550000 0.05550870 34423.96858442 0 725.65248780 0 10894.83545180 0 3071.75078514 0 -5162.79254411 0 3349
0.05650000 0.05647670 33881.31394506 0 107.81698437 0 10532.36075422 0 -192.97622757 0 -3640.50289410 0 3324
0.05750000 0.05747970 33961.92046974 0 379.57811774 0 9518.41260895 0 -378.16639632 0 -3885.25663421 0 3639
0.05850000 0.05849280 33479.83144713 0 -262.49603341 0 10817.52847992 0 -1097.34711027 0 -3599.40242437 0 3846
0.05950000 0.05951020 34191.33903998 0 359.51395793 0 11210.17526264 0 -1961.31840140 0 -6001.46578750 0 3787
0.06050000 0.06049470 33178.33204232 0 760.16492426 0 13086.04853341 0 -399.18831222 0 -6002.25192256 0 3930
0.06150000 0.06148310 32497.82695897 0 1331.26990225 0 12383.62024692 0 -955.45858941 0 -5799.68374001 0 4083
0.06250000 0.06249100 32078.40729484 0 1018.56641195 0 11562.05374538 0 -41.73391743 0 -5548.65199172 0 4303
0.06350000 0.06350600 31410.96755477 0 548.69791425 0 10696.38617408 0 1942.30721969 0 -4633.39147756 0 4470
0.06450000 0.06451750 31300.02286009 0 147.26192009 0 10881.39364947 0 2736.94582727 0 -2247.75944446 0 4479
0.06550000 0.06550280 31088.65217930 0 350.14677113 0 10477.18735964 0 1830.87534271 0 -2011.54246678 0 4636
0.06650000 0.06648880 30797.11786682 0 799.38088430 0 11429.40729405 0 570.74512743 0 492.20026963 0 4653
0.06750000 0.06749660 29972.56183758 0 570.35095266 0 11943.27388888 0 652.49542326 0 1785.75561908 0 5220
0.06850000 0.06852730 30185.15047410 0 32.03035341 0 12133.05353627 0 367.22472494 0 -328.14274002 0 5029
0.06950000 0.06949320 29691.98912667 0 157.17607973 0 14061.07745694 0 626.52639263 0 2171.48219878 0 5040
0.07050000 0.07048030 30342.59893302 0 -152.32861593 0 10818.45855520 0 551.47485331 0 603.58453561 0 5475
0.07150000 0.07148790 28959.44411667 0 -217.72508800 0 11718.50569506 0 422.46012453 0 65.54849510 0 5509
0.07250000 0.07249820 30195.55845943 0 852.43835760 0 10853.53568023 0 -297.69495400 0 -2467.11327144 0 5916
0.07350000 0.07351270 28206.30458251 0 1175.20548393 0 10882.46766498 0 -1188.13795931 0 -2315.73244652 0 5721
0.07450000 0.07449140 27708.49285866 0 1634.69589158 0 10388.43160390 0 327.22373706 0 -1418.64161739 0 6028
0.07550000 0.07549160 27391.16002936 0 -311.88745996 0 11009.58902622 0 56.37119867 0 -1614.17887369 0 6183
0.07650000 0.07648840 27200.60531923 0 -33.47728481 0 11416.12050427 0 1983.33018314 0 -2293.24455481 0 6330
0.07750000 0.07749960 26881.72236445 0 534.41572246 0 10772.05444189 0 1416.48251405 0 -1462.23336020 0 6583
0.07850000 0.07848650 26802.00162576 0 324.74353630 0 10711.47775281 0 1484.01262312 0 349.24659113 0 6549
0.07950000 0.07947320 26511.57454577 0 -282.33653225 0 9915.32223672 0 1109.02619849 0 -796.53197513 0 6828
0.08050000 0.08048110 26184.71951712 0 790.99691995 0 9450.07422017 0 220.33372773 0 -1135.19010203 0 7147
0.08150000 0.08149960 25997.81867418 0 318.07246060 0 9099.85658615 0 1207.11592405 0 -886.65405576 0 7386
0.08250000 0.08250610 24961.44907116 0 524.55692445 0 8505.69349174 0 -474.75250018 0 -691.65048552 0 7227
0.08350000 0.08350160 24322.68665237 0 1318.93533240 0 8263.80748375 0 571.01639938 0 -1571.43969989 0 7798
0.08450000 0.08449610 24104.56185344 0 617.65635322 0 7835.72926161 0 494.02277429 0 -949.49392803 0 7371
0.08550000 0.08548940 22613.89476311 0 845.02322167 0 7733.99674117 0 331.10347968 0 142.76434175 0 8256
0.08650000 0.08650700 22640.35761942 0 678.50763596 0 8462.62214819 0 1232.12830582 0 323.55104692 0 8037
0.08750000 0.08749060 22095.04562211 0 338.28720402 0 8278.32330158 0 1256.47634810 0 882.62040783 0 8155
0.08850000 0.08849210 21591.47628935 0 585.33291538 0 7139.11394564 0 1156.06143431 0 987.75656091 0 8718
0.08950000 0.08949900 20421.02083277 0 824.42869751 0 6805.29442469 0 210.43728381 0 1086.34343386 0 8571
0.09050000 0.09049190 19885.23103480 0 845.31774551 0 7109.58405535 0 387.41289478 0 -75.79659606 0 8932
0.09150000 0.09150830 19533.13110557 0 110.40004703 0 6956.74168356 0 -386.16061484 0 -368.66744886 0 9285
0.09250000 0.09250820 19289.87212930 0 496.27377793 0 7682.70973261 0 -1201.39153212 0 -160.16560743 0 9204
0.09350000 0.09350330 18716.32570370 0 776.14561067 0 7700.30365675 0 -1047.86378342 0 -749.52663458 0 9349
0.09450000 0.09448040 18779.21650867 0 520.88866323 0 8241.99500385 0 -392.15849319 0 96.31461045 0 9564
0.09550000 0.09549270 18066.82312983 0 145.08620826 0 8250.46533234 0 516.39219212 0 -156.02455795 0 10155
0.09650000 0.09649430 18308.53198062 0 289.96757851 0 8719.84332605 0 1154.15699445 0 67.97366640 0 9913
0.09750000 0.09749140 17590.82388588 0 682.15707422 0 7808.32525768 0 1036.70509447 0 -22.81131431 0 10476
0.09850000 0.09850240 17528.70814365 0 68.58574452 0 6415.86968849 0 1581.40479222 0 296.80363186 0 10575
0.09950000 0.09950330 17212.70399332 0 -491.05871294 0 5313.09935353 0 1222.18535813 0 265.83766104 0 10882
0.10050000 0.10051200 17281.90602344 0 88.84333784 0 5083.22681797 0 599.92070332 0 -638.94511215 0 10875
0.10150000 0.10150300 17130.99023616 0 375.79027541 0 5232.60355210 0 189.66670968 0 -1529.05484048 0 11118
0.10250000 0.10250800 16371.31803035 0 866.64747204 0 4429.94858134 0 -128.45114745 0 -325.44330723 0 11575
0.10350000 0.10349800 16032.72633740 0 710.34832044 0 4458.06121406 0 -254.39662780 0 -344.89627471 0 11364
0.10450000 0.10450100 15237.95486192 0 328.86908453 0 5028.76205218 0 310.71379353 0 -225.80567065 0 12093
0.10550000 0.10551000 15333.61974835 0 92.42069526 0 4383.21229828 0 518.70520078 0 43.10910017 0 12067
0.10650000 0.10649700 15078.18121478 0 -296.19243953 0 4218.84363635 0 890.54376347 0 139.21123271 0 12054
0.10750000 0.10749900 15748.16758956 0 -475.79662041 0 4305.07490204 0 760.93777253 0 -473.69620039 0 12807
0.10850000 0.10850100 15874.61353899 0 -257.92648495 0 3953.71681857 0 -72.76720798 0 -338.00707420 0 12736
0.10950000 0.10950300 16008.92083904 0 404.31922754 0 4015.06857039 0 -389.82112543 0 -260.96362365 0 12933
0.11050000 0.11050200 15649.40245218 0 200.35039590 0 3856.43537271 0 -553.51548278 0 204.89226354 0 13428
0.11150000 0.11150900 15448.99337296 0 422.42912202 0 4528.49227223 0 -248.07765203 0 -566.14900539 0 13453
0.11250000 0.11250000 15327.08707671 0 403.39690289 0 4834.34310069 0 -209.56367738 0 -16.57106277 0 13668
0.11350000 0.11349100 14867.91776648 0 377.02705410 0 5174.54028075 0 98.01055845 0 244.12704653 0 13791
0.11450000 0.11448600 14589.67024379 0 468.31283606 0 5421.03237586 0 373.82715222 0 1212.39742299 0 14205
0.11550000 0.11549300 14465.10658958 0 208.72328792 0 5587.01759722 0 -103.13959147 0 1094.70746803 0 14776
0.11650000 0.11649800 14303.11847748 0 271.88979378 0 6047.75917757 0 512.46594574 0 1457.30617566 0 14553
0.11750000 0.11747300 14325.92746661 0 -31.70460561 0 6131.47702552 0 -77.75152573 0 2184.09357675 0 14568
0.11850000 0.11849100 14320.28058095 0 -25.74691979 0 6313.69427506 0 105.77735141 0 2008.07682911 0 16015
0.11950000 0.11950300 14398.34047092 0 96.22248871 0 6453.34950800 0 485.32214145 0 2052.51006861 0 15270
0.12050000 0.12050700 14304.66860295 0 151.22470514 0 5946.30346526 0 517.60239723 0 2314.62521404 0 15999
0.12150000 0.12150000 14219.96531809 0 10.17689484 0 5636.24515336 0 666.46537548 0 2891.27189059 0 15670
0.12250000 0.12250700 14092.41213618 0 20.22027958 0 5303.54393721 0 870.43420713 0 2321.89973144 0 16887
0.12350000 0.12352200 13953.67590620 0 89.67210135 0 5004.00433389 0 623.17922884 0 2039.61081019 0 16407
0.12450000 0.12449800 13988.44300613 0 73.39788761 0 4549.62934031 0 409.57526013 0 1633.00182588 0 16306
0.12550000 0.12549900 13759.24588239 0 95.22232561 0 4245.06290152 0 -258.13021573 0 1389.44389684 0 17523
0.12650000 0.12650100 13630.03185175 0 484.65005133 0 3973.80201579 0 -118.80272361 0 962.95787501 0 17154
0.12750000 0.12750600 13390.42674268 0 175.26493679 0 3930.84139549 0 -164.52367448 0 358.94926937 0 18007
0.12850000 0.12850300 13049.95275450 0 146.46803440 0 3501.33484345 0 161.09900441 0 455.78117883 0 17496
0.12950000 0.12949900 13043.30935961 0 166.66284764 0 3225.81111266 0 287.64903370 0 -265.52320701 0 18405
0.13050000 0.13049000 12810.23692218 0 186.36604965 0 2928.74063778 0 459.09734012 0 -192.23216734 0 18100
0.13150000 0.13148800 12622.67173975 0 258.80119861 0 2780.43791916 0 25.85465351 0 -364.04364601 0 19059
0.13250000 0.13249300 12434.99583408 0 205.05724118 0 2632.34557471 0 -43.99798641 0 -594.83961346 0 18957
0.13350000 0.13349100 12271.01470351 0 242.66882135 0 2995.91643245 0 -116.92596455 0 7.39397672 0 19468
0.13450000 0.13450700 12153.20516744 0 64.32666405 0 2982.68500430 0 74.24514190 0 -387.99529906 0 19953
0.13550000 0.13551000 12207.12738931 0 -127.96175070 0 3551.71392138 0 -69.39723520 0 -155.18749019 0 19956
0.13650000 0.13649900 12208.23462179 0 -80.51074907 0 3081.47228633 0 421.79689227 0 -79.52475854 0 19723
0.13750000 0.13749600 12347.74591451 0 311.55639744 0 3382.22984538 0 515.06019145 0 469.65923076 0 20946
0.13850000 0.13851100 12223.07153705 0 26.18073348 0 3419.54358002 0 -139.86892881 0 707.26246351 0 20955
0.13950000 0.13949800 12263.81769238 0 248.95568738 0 3690.36157276 0 161.25069526 0 844.85049340 0 20506
0.14050000 0.14048300 11925.00455293 0 275.32553617 0 3777.65578163 0 66.77198699 0 982.58799968 0 21447
0.14150000 0.14148400 11791.91520861 0 222.41089586 0 3810.10876567 0 76.83850182 0 1193.49696453 0 21771
0.14250000 0.14249400 11432.06465200 0 349.34402759 0 3662.83577326 0 32.54887038 0 1377.69616021 0 22470
0.14350000 0.14350900 11512.44973019 0 124.21155428 0 3876.29912344 0 474.72260490 0 1240.59863431 0 22519
0.14450000 0.14449900 11144.95926946 0 168.42777621 0 3655.41731563 0 139.88664453 0 1074.49161738 0 22218
0.14550000 0.14550500 10984.79809095 0 205.92974037 0 3328.46263606 0 391.11880189 0 895.09891790 0 23559
0.14650000 0.14650700 10842.26405356 0 90.68665847 0 2888.06091640 0 26.05118728 0 542.33907810 0 23044
0.14750000 0.14750500 10694.94677185 0 262.17493599 0 2884.21881968 0 78.57043487 0 38.55527442 0 23649
0.14850000 0.14849900 10499.04412884 0 169.77859984 0 2852.57411535 0 -340.97556449 0 183.12850187 0 23640
0.14950000 0.14949500 10372.71997498 0 65.01071228 0 2440.36253468 0 54.93722188 0 -164.68533042 0 24457
0.15050000 0.15050000 10343.66619466 0 36.16896698 0 2725.68527293 0 2.40462107 0 -440.59327088 0 24591
0.15150000 0.15149900 10292.81100676 0 245.62623931 0 2789.76081666 0 -320.79625251 0 -626.46106591 0 25020
0.15250000 0.15250500 10002.35070980 0 373.12516683 0 3014.55115512 0 -171.11281498 0 -479.73836804 0 25297
0.15350000 0.15350100 9745.83816072 0 376.87536325 0 2910.60416973 0 -118.83151165 0 -161.68473040 0 25452
0.15450000 0.15450400 9586.33024939 0 84.90391539 0 3133.82223807 0 116.51628853 0 48.41938716 0 26061
0.15550000 0.15549900 9574.64894670 0 -76.86950433 0 3121.70911472 0 540.57414953 0 -137.75632923 0 26128
0.15650000 0.15649500 9679.24919926 0 -88.33423234 0 3028.92303274 0 534.27621117 0 307.50835549 0 26331
0.15750000 0.15749700 9607.83270418 0 -9.41445455 0 2916.08497051 0 281.65890597 0 287.41762211 0 27345
0.15850000 0.15849900 9686.49049969 0 42.87613846 0 2696.62042028 0 246.95381106 0 426.45280486 0 26980
0.15950000 0.15949700 9504.12930993 0 218.78028056 0 2641.31415781 0 27.61304942 0 824.45970002 0 27777
0.16050000 0.16050000 9453.14125414 0 60.41901918 0 2683.24505190 0 160.92959784 0 482.71460896 0 28224
0.16150000 0.16150500 9302.73479381 0 216.77729700 0 2499.26730271 0 10.38409125 0 617.07727063 0 28075
0.16250000 0.16249700 9161.51836307 0 256.87018517 0 2433.76342909 0 -287.31132779 0 340.39205297 0 28590
0.16350000 0.16349900 8978.70320799 0 169.99118848 0 2670.63367393 0 -0.05822548 0 25.54806084 0 29163
0.16450000 0.16449100 8883.76909499 0 148.87847951 0 2577.79223033 0 -234.94587479 0 -74.04495427 0 28996
0.16550000 0.16550500 8732.69829517 0 203.34103083 0 2533.89046242 0 -128.88628982 0 -299.80866081 0 30777
0.16650000 0.16650700 8581.94859276 0 283.48583956 0 2656.46109816 0 -144.15170405 0 -15.01938717 0 29211
0.16750000 0.16749900 8417.59100315 0 143.23823725 0 2739.93535497 0 22.07500471 0 -313.36672255 0 30922
0.16850000 0.16850800 8335.65579950 0 48.56454533 0 2579.33128348 0 244.50018388 0 -232.99160946 0 30867
0.16950000 0.16949900 8362.16294511 0 -17.85766691 0 2458.17790531 0 284.15350075 0 -210.55243598 0 30852
0.17050000 0.17049200 8327.27404961 0 -8.63563830 0 2351.48498336 0 298.57963276 0 -327.80946305 0 31257
0.17150000 0.17149500 8407.37124735 0 -22.07932292 0 2252.63126738 0 269.41512918 0 97.65026500 0 32608
0.17250000 0.17250900 8354.64483656 0 10.70398179 0 2108.10421152 0 268.26139294 0 2.41933619 0 32361
0.17350000 0.17350400 8389.78839553 0 53.34723604 0 2132.43010915 0 74.94602006 0 164.26679654 0 32508
0.17450000 0.17449800 8334.89180908 0 88.13493049 0 2304.43867521 0 -27.85110440 0 -8.74395885 0 32791
0.17550000 0.17549800 8096.71502991 0 297.79128323 0 2369.77646396 0 -171.83694502 0 417.16312433 0 33633
0.17650000 0.17650100 8138.49091145 0 208.00358681 0 2621.81579381 0 -193.65606831 0 146.54332621 0 33984
0.17750000 0.17750300 7827.80147704 0 83.88802959 0 2333.29315368 0 189.90365743 0 770.14330339 0 34069
0.17850000 0.17849800 7917.46516342 0 -7.13106437 0 2431.36073460 0 365.98573179 0 354.94330225 0 34536
