### header ###
fiducial parameters:
Omega_m = 0.31
Omega_nu = 0
Omega_de = 0.69
Omega_k = 0
H_0 = 100
w_de = -1
zeff = 0
beta = 0
fgrowth = 0
b_1 = 2
gamma = 0.55
Lx = 3500 Ly = 3500 Lz = 3500
nx = 700 ny = 700 nz = 700
xoffset = -685.467585 yoffset = -31.7331281 zoffset = 572.489161
bins = 400 dk = 0.001
kx_ny = 0.628318531 ky_ny = 0.628318531 kz_ny = 0.628318531
############################
A(data) = 8.04674318 (not used)
A(ran) = 8.04147246 (used)
Ngal = 477574
weighted Ngal = 0
Nran = 23820508
weighted Nran = 0
SN(data) = 3491.49666
SN(ran) = 70.0441415
SN(data+ran) = 3561.5408
############################
13 columns: k_central k_mean P_0(k) sigma^{lin}_{P_0(k)} P^img_1(k) sigma^{lin}_{P_1(k)} P_2(k) sigma^{lin}_{P_2(k)} P^img_3(k) sigma^{lin}_{P_3(k)} P_4(k) sigma^{lin}_{P_4(k)} N_modes
### header ###
0.00050000 0 0 0 0 0 0 0 0 0 0 0 0
0.00150000 0.00179520 42286.09426840 0 -41328.67034133 0 11006.65486015 0 -46589.02113942 0 -3554.96918487 0 3
0.00250000 0.00253879 64946.49279574 0 -27554.69826693 0 13641.87923931 0 -68477.34645716 0 35763.94133397 0 6
0.00350000 0.00331552 73636.27475991 0 854.78679770 0 6564.08382851 0 15232.52942276 0 -11210.72887888 0 7
0.00450000 0.00420575 69005.71779750 0 19345.23375339 0 42447.41804100 0 -31745.46248754 0 49945.81785469 0 24
0.00550000 0.00557378 65709.70814549 0 5808.89591426 0 66336.18028373 0 4100.62442426 0 -4404.85869330 0 45
0.00650000 0.00659388 57387.08447231 0 -3593.12441620 0 78716.47883320 0 1808.07742591 0 5479.27280440 0 40
0.00750000 0.00754703 71386.37835676 0 -1116.79897051 0 69688.21589933 0 15490.07169804 0 -49492.18470687 0 57
0.00850000 0.00846663 91965.62271119 0 -15720.59750076 0 66895.44341032 0 -1523.62940132 0 -19916.78716053 0 75
0.00950000 0.00948925 91518.30078852 0 -3966.27283491 0 58611.57287400 0 16324.92498936 0 -40885.22373234 0 112
0.01050000 0.01054430 98585.10138077 0 7915.51643425 0 51105.31170970 0 6961.98996552 0 -18391.02080052 0 105
0.01150000 0.01145670 89656.15720052 0 21104.62616708 0 58044.78056653 0 3198.46247036 0 -53078.84288537 0 144
0.01250000 0.01249090 71390.58584019 0 18173.00672484 0 37805.78875378 0 -8733.70587673 0 -46770.27509670 0 169
0.01350000 0.01339930 64292.89346170 0 8912.46856092 0 49846.49910106 0 -8103.79024547 0 -43186.16355290 0 180
0.01450000 0.01448870 64502.49257051 0 -5953.34546384 0 52028.41142983 0 -24156.82322659 0 -54473.95581252 0 267
0.01550000 0.01550050 69830.38455000 0 -8212.64227076 0 55648.72947578 0 -4236.41541584 0 -51764.11503641 0 238
0.01650000 0.01653350 79782.96515973 0 -7155.71136055 0 46327.71427370 0 -4575.47214643 0 -62362.21218307 0 315
0.01750000 0.01747870 80744.81801673 0 6533.16989762 0 39920.49207089 0 -1743.10502387 0 -46056.99593188 0 297
0.01850000 0.01844180 86351.73258164 0 956.86920359 0 19950.55775123 0 9944.75247609 0 -65646.04227778 0 388
0.01950000 0.01947590 72110.84056965 0 932.68724619 0 21321.09011728 0 7617.52695641 0 -48798.61428023 0 399
0.02050000 0.02045430 72524.05973188 0 7013.77522870 0 18267.01076255 0 5201.15814961 0 -44683.36331488 0 462
0.02150000 0.02154770 67812.78552154 0 4290.83589232 0 16219.84862683 0 1559.39301048 0 -28079.19429359 0 571
0.02250000 0.02255340 66109.30834820 0 551.09839427 0 16808.56413744 0 10339.22619240 0 -12116.22360255 0 510
0.02350000 0.02348930 68609.21784575 0 -62.60702128 0 25130.30202464 0 2219.50287152 0 -2335.87300537 0 555
0.02450000 0.02439640 72162.21615680 0 -872.60438280 0 28351.35203763 0 -2200.15952006 0 -4059.16964014 0 592
0.02550000 0.02547300 71941.65544642 0 3317.15779242 0 40644.17922104 0 333.61025402 0 5001.63485638 0 837
0.02650000 0.02652900 71098.83008122 0 2097.78480479 0 45391.77065678 0 -3294.78062396 0 5208.02299100 0 723
0.02750000 0.02749970 70439.03024528 0 2215.02965230 0 46748.79478655 0 5704.93785653 0 4646.87756919 0 826
0.02850000 0.02848090 71345.41075493 0 489.57391418 0 43658.84109941 0 9084.22246351 0 -1919.77503868 0 831
0.02950000 0.02946900 66863.44439159 0 2869.37083210 0 35141.67667916 0 7043.50442083 0 -4116.11460668 0 996
0.03050000 0.03053250 65999.80305574 0 2408.55174548 0 33375.64087059 0 8698.45159450 0 -8457.13027508 0 1041
0.03150000 0.03150510 61943.89975142 0 3119.49464976 0 30147.61529296 0 5484.47679707 0 -4539.80818819 0 1036
0.03250000 0.03246190 64110.53227193 0 -773.88574918 0 27644.05192822 0 669.72506791 0 -13675.20693701 0 1059
0.03350000 0.03345080 60963.99900497 0 -2491.33951814 0 31130.28412062 0 3186.41578096 0 1576.73227115 0 1302
0.03450000 0.03451200 64074.32576978 0 2504.29413818 0 36710.40365947 0 2127.56935855 0 667.39655800 0 1339
0.03550000 0.03553350 62734.24229698 0 3460.25651837 0 37411.83543673 0 1918.16955158 0 5613.07077751 0 1365
0.03650000 0.03647120 59593.46663892 0 5194.21580195 0 39367.09727646 0 5821.45193060 0 10903.75974561 0 1308
0.03750000 0.03744890 55428.27948864 0 5916.39711592 0 36055.36492320 0 4012.76552682 0 8079.37576924 0 1579
0.03850000 0.03847530 50371.21657422 0 3491.27010019 0 31876.89098314 0 5449.10071927 0 4919.25675973 0 1662
0.03950000 0.03950240 47654.40023347 0 233.59283670 0 25723.33574193 0 2675.02938689 0 4511.46303666 0 1683
0.04050000 0.04050350 47772.65266253 0 -813.73393897 0 23656.46486803 0 4462.15797424 0 -5695.30493394 0 1822
0.04150000 0.04152450 47066.23833910 0 434.46806079 0 20081.54335383 0 1410.03842100 0 -7278.99062508 0 1887
0.04250000 0.04250150 45622.51790600 0 2968.51242853 0 16646.68674859 0 -1263.44084041 0 -11300.08254017 0 1920
0.04350000 0.04349210 44834.50054866 0 1073.64015560 0 16190.83913581 0 -2698.48057085 0 -12140.58271715 0 2005
0.04450000 0.04448520 43710.65957956 0 1065.01702903 0 16859.16466186 0 -4996.40871906 0 -13690.59746851 0 2151
0.04550000 0.04548030 43118.17947852 0 1514.19578057 0 23689.90328898 0 -4002.20252895 0 -13589.95003591 0 2274
0.04650000 0.04648670 42209.80595040 0 1517.14101898 0 24268.10009101 0 -1255.92273185 0 -13947.03251131 0 2311
0.04750000 0.04749250 40847.68855121 0 1481.14489099 0 24123.05263589 0 1354.16746997 0 -9691.76092631 0 2568
0.04850000 0.04851840 40290.41844308 0 966.85533335 0 22812.86444010 0 4756.69288674 0 -12230.60071792 0 2493
0.04950000 0.04949480 39140.22534092 0 614.20621680 0 23997.60319569 0 3166.17557119 0 -8744.12493438 0 2644
0.05050000 0.05050630 38026.23874092 0 1406.01916710 0 18655.09574745 0 6697.00708796 0 -6451.47828511 0 2829
0.05150000 0.05149060 37134.69514652 0 465.20040556 0 18244.75538967 0 6216.72285430 0 -3368.17906518 0 2784
0.05250000 0.05249300 36581.96469157 0 -47.75250103 0 15825.00952380 0 3727.67530739 0 -722.45147870 0 3055
0.05350000 0.05348950 36357.97156049 0 644.10260105 0 15472.02380858 0 3377.55732430 0 3783.14765474 0 3009
0.05450000 0.05448610 36151.25125613 0 1082.28431958 0 14679.57752131 0 1373.89835280 0 6729.91403732 0 3336
0.05550000 0.05550870 35294.69620816 0 -322.66415370 0 14466.65671505 0 2460.28164703 0 9124.81360629 0 3349
0.05650000 0.05647670 35959.14642052 0 43.75915636 0 17871.61804328 0 2160.36558467 0 9788.72127475 0 3324
0.05750000 0.05747970 35370.09874017 0 1549.19539933 0 18071.03061326 0 1813.63573297 0 9750.38888622 0 3639
0.05850000 0.05849280 34328.08225149 0 683.59979814 0 16825.94768741 0 1432.06127507 0 10875.89070404 0 3846
0.05950000 0.05951020 32994.31000384 0 770.66259542 0 15384.88461226 0 3543.79720913 0 12852.09031000 0 3787
0.06050000 0.06049470 33345.08125409 0 -531.75393558 0 14554.01735787 0 2411.10945251 0 8961.49681522 0 3930
0.06150000 0.06148310 33653.99911653 0 -541.08790540 0 9347.75486652 0 3756.82873864 0 6554.08551920 0 4083
0.06250000 0.06249100 33850.53288206 0 -1294.42120525 0 8627.75480054 0 296.58329259 0 5409.17391598 0 4303
0.06350000 0.06350600 34222.12010298 0 620.24838446 0 6620.94021646 0 -2463.50369355 0 -890.92797314 0 4470
0.06450000 0.06451750 32975.26560515 0 2266.75955385 0 9171.08485171 0 -4311.17575301 0 -1667.55855164 0 4479
0.06550000 0.06550280 31982.85313165 0 1957.80847443 0 10175.32256811 0 -2578.46764214 0 -3453.19237514 0 4636
0.06650000 0.06648880 29566.09679349 0 1135.89873082 0 11805.09127514 0 -2086.98928809 0 -3323.73475336 0 4653
0.06750000 0.06749660 29656.77913375 0 1152.10861435 0 12146.00815631 0 1641.80432411 0 -5052.02500663 0 5220
0.06850000 0.06852730 29260.38990524 0 -31.63263550 0 12769.60149010 0 2107.31807646 0 -4164.65567869 0 5029
0.06950000 0.06949320 29271.57295331 0 -126.39723120 0 11366.18431933 0 916.25259446 0 -4718.50443844 0 5040
0.07050000 0.07048030 29312.31910864 0 85.75072679 0 11838.64041934 0 1387.06334701 0 -1495.89322765 0 5475
0.07150000 0.07148790 29122.87163100 0 166.12141095 0 10591.74163222 0 322.84906153 0 -1320.41902392 0 5509
0.07250000 0.07249820 29569.52921418 0 -152.99406265 0 10384.57843486 0 786.34986523 0 -2333.42602158 0 5916
0.07350000 0.07351270 28931.20968839 0 323.77360065 0 10920.78898118 0 1010.10826302 0 -1192.46723832 0 5721
0.07450000 0.07449140 28981.25659657 0 834.55212409 0 10766.72865365 0 -107.14644438 0 -499.85788947 0 6028
0.07550000 0.07549160 28026.37930421 0 636.07295109 0 11077.52881131 0 -1.16315879 0 -566.85652695 0 6183
0.07650000 0.07648840 27659.22101322 0 883.17070237 0 11425.97487335 0 955.03119768 0 820.76597246 0 6330
0.07750000 0.07749960 27269.69662610 0 613.58727385 0 12280.42617961 0 519.00858248 0 33.99580178 0 6583
0.07850000 0.07848650 26353.12957761 0 701.93999697 0 10864.50835413 0 970.66421309 0 623.62876523 0 6549
0.07950000 0.07947320 25857.97521172 0 794.95084714 0 10611.97076966 0 1436.13589060 0 462.49432937 0 6828
0.08050000 0.08048110 24887.15377162 0 413.66648415 0 9018.02103342 0 1163.42453032 0 2057.17151736 0 7147
0.08150000 0.08149960 25016.47852550 0 15.11837375 0 7860.25446108 0 2393.81448114 0 937.18039560 0 7386
0.08250000 0.08250610 24232.89009809 0 472.75948171 0 7195.94818894 0 1364.64188925 0 -611.42595604 0 7227
0.08350000 0.08350160 23503.99895528 0 847.91863461 0 6084.45286202 0 814.19565491 0 -622.70201164 0 7798
0.08450000 0.08449610 22625.07781117 0 642.02654014 0 5951.45209630 0 -792.47839701 0 -603.84362801 0 7371
0.08550000 0.08548940 22015.98922290 0 890.87482598 0 6403.69013119 0 -32.92787605 0 1201.23651957 0 8256
0.08650000 0.08650700 21934.38618899 0 800.41946837 0 6766.65201107 0 78.24214044 0 821.67168863 0 8037
0.08750000 0.08749060 21281.45119443 0 426.47273504 0 6871.48478245 0 -561.80422514 0 1819.57049907 0 8155
0.08850000 0.08849210 20840.44049690 0 202.70658662 0 7673.06573770 0 176.46517680 0 1569.97815301 0 8718
0.08950000 0.08949900 20874.10036435 0 287.31797118 0 8342.88602760 0 -334.39196015 0 1194.36060586 0 8571
0.09050000 0.09049190 20508.82436859 0 311.38477641 0 8660.61746060 0 968.70773329 0 2542.31650161 0 8932
0.09150000 0.09150830 20221.49753954 0 366.12413585 0 8088.63223279 0 653.71116453 0 2620.17708973 0 9285
0.09250000 0.09250820 20170.45412213 0 713.03889537 0 7938.80153335 0 256.38411011 0 2877.32076132 0 9204
0.09350000 0.09350330 19382.76893453 0 408.76476596 0 7773.04883081 0 920.71695583 0 2794.53298865 0 9349
0.09450000 0.09448040 19112.49348571 0 492.36746173 0 7896.98136251 0 276.60106799 0 3413.89669436 0 9564
0.09550000 0.09549270 18760.94717271 0 528.38573437 0 7404.09682320 0 557.47716060 0 3337.20977266 0 10155
0.09650000 0.09649430 18644.24486913 0 47.70942969 0 7898.01108871 0 353.53158083 0 2975.14475110 0 9913
0.09750000 0.09749140 18399.98938363 0 -3.58284930 0 8016.26351778 0 -647.15745547 0 2257.73560912 0 10476
0.09850000 0.09850240 18483.25326626 0 257.49355705 0 8072.21197509 0 -332.64585453 0 1639.15803848 0 10575
0.09950000 0.09950330 18130.26755104 0 462.62387557 0 7835.21993467 0 80.14890549 0 918.23232614 0 10882
0.10050000 0.10051200 17887.00857478 0 207.42782592 0 7631.99848495 0 -4.36649309 0 1664.15934792 0 10875
0.10150000 0.10150300 17636.77403388 0 35.20091362 0 7169.55176657 0 1157.19081145 0 963.30997494 0 11118
0.10250000 0.10250800 17541.55204044 0 248.85492923 0 6287.99540916 0 1372.59181847 0 -770.94493971 0 11575
0.10350000 0.10349800 17074.41065634 0 230.87236649 0 5285.93894075 0 1154.59988744 0 102.09059942 0 11364
0.10450000 0.10450100 16736.15113313 0 240.91939403 0 4575.18426599 0 539.71161543 0 -693.16739402 0 12093
0.10550000 0.10551000 16458.45722668 0 214.09779439 0 4214.07146435 0 636.09398851 0 411.88273263 0 12067
0.10650000 0.10649700 16478.38741135 0 170.46397675 0 4065.38121436 0 627.63030342 0 -329.32526431 0 12054
0.10750000 0.10749900 15874.28136925 0 326.55718311 0 4228.50977592 0 296.49360676 0 929.25039657 0 12807
0.10850000 0.10850100 15921.33874972 0 389.99496092 0 4583.18955683 0 328.99088010 0 1057.32397774 0 12736
0.10950000 0.10950300 15642.42688754 0 245.44576042 0 4867.05074821 0 268.37654512 0 1930.79200188 0 12933
0.11050000 0.11050200 15597.47324878 0 328.42508431 0 5157.01279056 0 -266.07128709 0 3008.35065323 0 13428
0.11150000 0.11150900 15581.63982429 0 -108.77031153 0 5564.05359554 0 469.39903113 0 3240.69231722 0 13453
0.11250000 0.11250000 15531.92508585 0 -89.43659300 0 5364.70745951 0 99.13517448 0 3037.65909702 0 13668
0.11350000 0.11349100 15559.71662115 0 419.20375380 0 5468.69873420 0 274.76638377 0 1963.37785382 0 13791
0.11450000 0.11448600 14832.26488056 0 814.04950022 0 5074.18072859 0 -779.16835535 0 2095.41532728 0 14205
0.11550000 0.11549300 14235.57729609 0 694.77288112 0 4995.52293308 0 -267.09879883 0 1328.61254429 0 14776
0.11650000 0.11649800 13761.79251710 0 287.41651487 0 5070.48257210 0 -344.25850880 0 1295.20734031 0 14553
0.11750000 0.11747300 13854.80004557 0 -193.12127502 0 4758.65268823 0 507.44353921 0 489.43993905 0 14568
0.11850000 0.11849100 13843.39555101 0 -74.06997772 0 5145.38684950 0 5.31251252 0 123.37005759 0 16015
0.11950000 0.11950300 14026.75325001 0 1.44442906 0 4773.36780792 0 -173.34721013 0 615.50610774 0 15270
0.12050000 0.12050700 14030.73928694 0 215.13527123 0 5207.29221756 0 178.20685349 0 598.37722124 0 15999
0.12150000 0.12150000 13807.74266509 0 230.28885497 0 5210.51426408 0 238.88983689 0 494.83659017 0 15670
0.12250000 0.12250700 13898.64645185 0 169.37999615 0 5122.96539174 0 308.64991218 0 233.35921065 0 16887
0.12350000 0.12352200 13352.55939180 0 348.51249599 0 5120.38554006 0 432.05983014 0 688.52808992 0 16407
0.12450000 0.12449800 13366.17835133 0 344.83980585 0 4731.48120313 0 147.26967072 0 279.99805725 0 16306
0.12550000 0.12549900 12850.09729153 0 226.00386527 0 4504.57605062 0 601.96244002 0 829.84306435 0 17523
0.12650000 0.12650100 12730.73762998 0 213.34044737 0 4355.46505229 0 153.40706036 0 489.95701662 0 17154
0.12750000 0.12750600 12719.77602841 0 28.60357960 0 4488.15579291 0 324.68263852 0 387.40846585 0 18007
0.12850000 0.12850300 12579.82184271 0 -1.31116256 0 4413.17400924 0 -429.60398850 0 -140.52883937 0 17496
0.12950000 0.12949900 12760.74363024 0 89.43969325 0 4771.54087432 0 -498.54471175 0 -316.62973668 0 18405
0.13050000 0.13049000 12521.91358390 0 266.33480842 0 5301.29625527 0 -629.39633922 0 289.53797231 0 18100
0.13150000 0.13148800 12682.35157053 0 255.22262323 0 5174.27454495 0 -88.09418434 0 111.60903417 0 19059
0.13250000 0.13249300 12362.36138327 0 -60.05241450 0 5180.19823873 0 379.99997331 0 425.06876425 0 18957
0.13350000 0.13349100 12543.61534055 0 -9.85385976 0 5130.49457262 0 879.39836130 0 -321.43955458 0 19468
0.13450000 0.13450700 12339.55239414 0 52.50429995 0 4856.24415918 0 636.07295109 0 -28.89312089 0 19953
0.13550000 0.13551000 12315.19327954 0 169.32795622 0 4401.89131025 0 262.11514543 0 47.51433532 0 19956
0.13650000 0.13649900 12058.09389725 0 214.47093174 0 4241.36474503 0 413.98315264 0 357.35817629 0 19723
0.13750000 0.13749600 11877.50427946 0 90.54061451 0 4009.07844266 0 279.43558315 0 314.05209946 0 20946
0.13850000 0.13851100 11802.21247069 0 175.86948572 0 3774.83233880 0 536.73537451 0 -37.37795412 0 20955
0.13950000 0.13949800 11709.42638871 0 260.51519450 0 3468.08465202 0 347.97991717 0 219.45679960 0 20506
0.14050000 0.14048300 11343.15388371 0 106.77197835 0 3073.14589806 0 563.51047039 0 254.55385481 0 21447
0.14150000 0.14148400 11274.94836283 0 2.61530527 0 2688.44904457 0 602.97002158 0 201.78979812 0 21771
0.14250000 0.14249400 11287.90298287 0 -60.24020113 0 2517.44806007 0 450.15422336 0 29.90424559 0 22470
0.14350000 0.14350900 11258.45059885 0 188.37456937 0 2288.27308097 0 75.35093498 0 130.94574224 0 22519
0.14450000 0.14449900 11115.72833194 0 123.42099029 0 2242.37829460 0 -350.68820782 0 266.98253942 0 22218
0.14550000 0.14550500 10977.30212705 0 202.00017229 0 2314.39269522 0 -403.19981550 0 71.70182889 0 23559
0.14650000 0.14650700 10872.38077707 0 269.06081479 0 3142.66902560 0 -495.87628147 0 59.25908243 0 23044
0.14750000 0.14750500 10850.49079090 0 203.23916544 0 3206.55633980 0 -256.00765106 0 -30.57688933 0 23649
0.14850000 0.14849900 10696.06507666 0 117.99444389 0 3596.52361992 0 -569.62350092 0 315.91778619 0 23640
0.14950000 0.14949500 10659.50426011 0 180.31723860 0 3665.24954007 0 53.75060083 0 327.23259492 0 24457
0.15050000 0.15050000 10515.73012234 0 130.22493389 0 3890.52706083 0 517.65554439 0 583.26571233 0 24591
0.15150000 0.15149900 10328.03207201 0 187.08575076 0 3664.70699615 0 338.77770801 0 107.87035297 0 25020
0.15250000 0.15250500 10348.78160872 0 199.27084423 0 3498.47818365 0 115.64600380 0 433.28332204 0 25297
0.15350000 0.15350100 10055.64180915 0 159.16909820 0 3354.44938241 0 205.31633358 0 396.37704895 0 25452
0.15450000 0.15450400 9915.02328395 0 109.17456211 0 3092.69962369 0 247.92042501 0 603.05195678 0 26061
0.15550000 0.15549900 9867.39014258 0 41.50793128 0 3352.21277279 0 333.10867770 0 244.79581495 0 26128
0.15650000 0.15649500 9740.19127507 0 123.96464144 0 2851.82119727 0 98.64345253 0 -63.27800417 0 26331
0.15750000 0.15749700 9504.73828780 0 391.15201887 0 2801.41997469 0 -123.21947398 0 135.11004360 0 27345
0.15850000 0.15849900 9314.74826623 0 256.79157166 0 2824.97080958 0 -187.04367593 0 71.32559129 0 26980
0.15950000 0.15949700 9226.35789721 0 165.80695693 0 3174.07013879 0 52.52500520 0 383.01164566 0 27777
0.16050000 0.16050000 8987.12924717 0 24.28326918 0 2804.38735774 0 400.02427275 0 73.07391138 0 28224
0.16150000 0.16150500 9095.07334183 0 49.88425573 0 2801.92930163 0 487.34505520 0 253.69796410 0 28075
0.16250000 0.16249700 8929.81889391 0 71.13559020 0 2348.14114126 0 428.98726001 0 322.58664743 0 28590
0.16350000 0.16349900 9012.50701566 0 -20.67446635 0 2476.83477263 0 173.13794319 0 -25.82199016 0 29163
0.16450000 0.16449100 8804.29194744 0 184.45385915 0 2142.56128636 0 -110.06832017 0 260.68349383 0 28996
0.16550000 0.16550500 8815.04317484 0 275.39086289 0 2479.99038521 0 -382.35837850 0 62.58875195 0 30777
0.16650000 0.16650700 8326.60971012 0 265.18771557 0 2208.75164412 0 -115.88848771 0 461.06710670 0 29211
0.16750000 0.16749900 8361.98578791 0 170.32557269 0 2484.22001329 0 106.73710053 0 191.70733914 0 30922
0.16850000 0.16850800 8299.44929734 0 18.46775201 0 2493.74221263 0 219.72142817 0 84.53343540 0 30867
0.16950000 0.16949900 8340.10687407 0 -61.34544059 0 2513.79419288 0 48.87180235 0 -60.60758087 0 30852
0.17050000 0.17049200 8406.05364069 0 -13.89853573 0 2550.15570758 0 -25.25431206 0 280.91595297 0 31257
0.17150000 0.17149500 8396.12176533 0 -2.21935893 0 2691.98111618 0 -302.00319559 0 111.04656007 0 32608
0.17250000 0.17250900 8494.00111673 0 127.05382006 0 3057.15746103 0 -171.11392221 0 -18.89248639 0 32361
0.17350000 0.17350400 8350.24912361 0 171.77826170 0 3007.25449307 0 -414.61206069 0 159.57434529 0 32508
0.17450000 0.17449800 8261.12798114 0 230.29106944 0 3072.33761835 0 3.73683212 0 -161.69248102 0 32791
0.17550000 0.17549800 8230.24726722 0 27.95573787 0 3023.78547402 0 173.35385352 0 128.77335211 0 33633
0.17650000 0.17650100 8080.48300172 0 41.06459539 0 2798.48580861 0 287.60142270 0 -321.44619797 0 33984
0.17750000 0.17750300 8077.96958399 0 42.80937234 0 2647.90219108 0 303.86777509 0 -410.12998361 0 34069
0.17850000 0.17849800 7980.34489606 0 9.62887012 0 2394.32380808 0 306.71889873 0 -423.04142158 0 34536
