### header ###
fiducial parameters:
Omega_m = 0.31
Omega_nu = 0
Omega_de = 0.69
Omega_k = 0
H_0 = 100
w_de = -1
zeff = 0
beta = 0
fgrowth = 0
b_1 = 2
gamma = 0.55
Lx = 3500 Ly = 3500 Lz = 3500
nx = 700 ny = 700 nz = 700
xoffset = -685.467585 yoffset = -31.7331281 zoffset = 572.489161
bins = 400 dk = 0.001
kx_ny = 0.628318531 ky_ny = 0.628318531 kz_ny = 0.628318531
############################
A(data) = 8.03427368 (not used)
A(ran) = 8.03628821 (used)
Ngal = 477467
weighted Ngal = 0
Nran = 23820508
weighted Nran = 0
SN(data) = 3484.50476
SN(ran) = 69.9989848
SN(data+ran) = 3554.50375
############################
13 columns: k_central k_mean P_0(k) sigma^{lin}_{P_0(k)} P^img_1(k) sigma^{lin}_{P_1(k)} P_2(k) sigma^{lin}_{P_2(k)} P^img_3(k) sigma^{lin}_{P_3(k)} P_4(k) sigma^{lin}_{P_4(k)} N_modes
### header ###
0.00050000 0 0 0 0 0 0 0 0 0 0 0 0
0.00150000 0.00179520 26119.39280069 0 -46298.48333618 0 11189.35929198 0 -134086.96078629 0 -50181.87981982 0 3
0.00250000 0.00253879 46042.38046312 0 -45834.11003328 0 -53512.65657177 0 49359.20608580 0 25170.27311724 0 6
0.00350000 0.00331552 79106.77828306 0 -47368.18063691 0 -27446.41093021 0 -36737.75230177 0 -23029.77128330 0 7
0.00450000 0.00420575 96465.96913373 0 -25654.68732805 0 -48640.50148182 0 -31032.84766221 0 8618.55369861 0 24
0.00550000 0.00557378 100037.56895048 0 -1698.32854231 0 -50356.82255196 0 -3789.61389243 0 27312.98941614 0 45
0.00650000 0.00659388 97113.14651938 0 -5723.12968621 0 -110011.96204011 0 19063.55381001 0 82547.39249721 0 40
0.00750000 0.00754703 112028.67528258 0 -22002.59170987 0 -49136.87380344 0 20068.92090354 0 10498.96662256 0 57
0.00850000 0.00846663 121679.31359451 0 -17271.38731486 0 -63998.81251451 0 -9140.55845219 0 21131.64263963 0 75
0.00950000 0.00948925 102797.78880452 0 18619.22141504 0 -27400.12861246 0 -11746.40795361 0 33132.04972458 0 112
0.01050000 0.01054430 104371.83050074 0 22358.67767604 0 -20171.22918487 0 -26886.81563387 0 59327.17722703 0 105
0.01150000 0.01145670 82139.37732764 0 14602.62486382 0 7223.60685633 0 -10664.32072140 0 39395.88532098 0 144
0.01250000 0.01249090 83362.31560386 0 -1882.79347379 0 1883.07028191 0 11382.34991357 0 44931.71556056 0 169
0.01350000 0.01339930 89486.63990755 0 -17883.35470759 0 -22272.09209596 0 -4821.54349320 0 26218.49010782 0 180
0.01450000 0.01448870 101230.61194969 0 -5744.36640521 0 -5158.92830275 0 -13167.09795109 0 -7714.13299045 0 267
0.01550000 0.01550050 104153.48425532 0 2559.53396670 0 -1114.88345831 0 -10065.76191403 0 2054.01590478 0 238
0.01650000 0.01653350 90641.26193964 0 11122.70389657 0 5320.39601558 0 -12716.12216122 0 4168.78565584 0 315
0.01750000 0.01747870 85525.07281068 0 8315.74775947 0 6139.06156802 0 13144.06751546 0 9277.23522975 0 297
0.01850000 0.01844180 77452.90512490 0 -4016.89550398 0 -818.40424558 0 11307.05810480 0 -1623.83394093 0 388
0.01950000 0.01947590 85426.97201279 0 -3921.02024338 0 -1279.79466416 0 16275.98531367 0 11487.31555285 0 399
0.02050000 0.02045430 85549.76409503 0 -3524.78602742 0 4003.18796586 0 4829.68165194 0 6249.90661178 0 462
0.02150000 0.02154770 86178.11852849 0 5354.22196790 0 2601.26555894 0 -1965.70304203 0 28564.16212065 0 571
0.02250000 0.02255340 81945.94381306 0 5446.23298715 0 4886.89235428 0 -908.92382267 0 28816.05751027 0 510
0.02350000 0.02348930 77702.36460306 0 -168.17643444 0 7117.10216390 0 -6703.79442307 0 20940.97720626 0 555
0.02450000 0.02439640 78799.52126934 0 7324.33179521 0 6707.73617071 0 -6377.75874646 0 19515.52610911 0 592
0.02550000 0.02547300 71405.75492519 0 6799.53681578 0 15401.16092974 0 -13310.59528074 0 8761.04344670 0 837
0.02650000 0.02652900 67219.64108101 0 4952.86126555 0 15634.67626017 0 -7143.33250140 0 9964.38370799 0 723
0.02750000 0.02749970 65644.60287556 0 1291.99636611 0 17096.66602922 0 -3291.53643279 0 767.59113252 0 826
0.02850000 0.02848090 64604.46868209 0 -2238.02687094 0 16192.16781479 0 855.18983032 0 -3639.89391623 0 831
0.02950000 0.02946900 63245.67298035 0 -521.77555645 0 15155.02314903 0 2981.65527809 0 -19521.61588776 0 996
0.03050000 0.03053250 63171.59912731 0 2910.50451880 0 13830.77310072 0 1017.76477563 0 -13390.53746593 0 1041
0.03150000 0.03150510 62445.47606571 0 4683.33873482 0 13847.60303444 0 -2063.05092183 0 -15877.04945045 0 1036
0.03250000 0.03246190 55345.34777575 0 3854.91846421 0 11319.01621561 0 2946.21276634 0 -16597.30417990 0 1059
0.03350000 0.03345080 54659.63869973 0 4761.64221593 0 11270.18726316 0 71.69872864 0 -8477.79123319 0 1302
0.03450000 0.03451200 49612.20870790 0 1576.86513905 0 15519.63480530 0 3065.83816368 0 -9895.45848600 0 1339
0.03550000 0.03553350 48378.53027661 0 3486.48685587 0 14704.37952891 0 660.34016539 0 -2187.24918933 0 1365
0.03650000 0.03647120 46961.60486957 0 2527.11419963 0 16183.08850844 0 -112.42285005 0 -6847.96716454 0 1308
0.03750000 0.03744890 45246.61247841 0 291.24421756 0 14141.13036538 0 687.20273264 0 3343.57635944 0 1579
0.03850000 0.03847530 45648.87003907 0 -676.74492185 0 17953.99613993 0 1925.00117600 0 -184.79820846 0 1662
0.03950000 0.03950240 47683.29900124 0 -3267.56484956 0 14570.07222886 0 3515.69564874 0 -1183.06683455 0 1683
0.04050000 0.04050350 48893.50410392 0 -1211.76630048 0 14021.43853409 0 4167.52341082 0 -2336.03909024 0 1822
0.04150000 0.04152450 48587.13287619 0 2767.73796259 0 10173.25204337 0 2006.84780105 0 -4610.00672754 0 1887
0.04250000 0.04250150 46281.76412570 0 2863.53571692 0 10181.65593791 0 733.30900041 0 -1106.70654644 0 1920
0.04350000 0.04349210 43431.30482439 0 1700.80874307 0 10067.14595464 0 -1617.34555858 0 -1595.03482407 0 2005
0.04450000 0.04448520 43306.63044693 0 203.09411799 0 9794.55638992 0 0.62323016 0 917.65767248 0 2151
0.04550000 0.04548030 42425.16266812 0 -262.91124559 0 13787.25886418 0 1163.16986685 0 -1143.78222609 0 2274
0.04650000 0.04648670 43904.53598714 0 139.22230504 0 16232.69252362 0 -1447.98327816 0 2661.27755946 0 2311
0.04750000 0.04749250 44410.98412434 0 1293.64614251 0 14652.56104876 0 -1681.65362113 0 1462.91984434 0 2568
0.04850000 0.04851840 43389.00854358 0 1083.50670424 0 16534.30265168 0 -1421.08860117 0 -79.60193265 0 2493
0.04950000 0.04949480 42449.07888973 0 390.47328536 0 16559.99044526 0 984.20898804 0 554.96374286 0 2644
0.05050000 0.05050630 42165.51665112 0 128.29059874 0 15420.09460518 0 2696.66470958 0 -4782.98965818 0 2829
0.05150000 0.05149060 39889.04666841 0 824.75422386 0 11003.23351178 0 2084.36514711 0 -3389.29398861 0 2784
0.05250000 0.05249300 40041.51258116 0 1356.39300726 0 12500.98689000 0 241.48518983 0 -4335.78953108 0 3055
0.05350000 0.05348950 37208.21538332 0 2898.44675708 0 10393.45843937 0 1602.42006473 0 -4659.14570509 0 3009
0.05450000 0.05448610 36634.89040421 0 1384.69386950 0 11718.39497181 0 278.26634564 0 -2250.80433378 0 3336
0.05550000 0.05550870 34321.66030310 0 1331.52456572 0 12760.85435349 0 -304.34167059 0 -462.71909757 0 3349
0.05650000 0.05647670 35293.03535944 0 475.19096424 0 14561.87870849 0 749.54213583 0 2604.84191986 0 3324
0.05750000 0.05747970 35759.62312729 0 -625.03495048 0 15795.77858628 0 767.63542182 0 3824.35884771 0 3639
0.05850000 0.05849280 35789.07551131 0 423.34480328 0 15885.68586381 0 1806.87054251 0 5791.72273846 0 3846
0.05950000 0.05951020 36262.97101355 0 66.15470488 0 14861.16364834 0 642.79717395 0 4370.77807751 0 3787
0.06050000 0.06049470 35429.33567795 0 300.92475115 0 14713.56955851 0 961.67016364 0 5225.26260074 0 3930
0.06150000 0.06148310 35765.15928970 0 171.05745336 0 14115.44257180 0 2401.84191664 0 2090.68744458 0 4083
0.06250000 0.06249100 33616.57465864 0 329.17578793 0 10632.15561781 0 4071.36026977 0 3183.68091673 0 4303
0.06350000 0.06350600 34031.89756259 0 632.62502914 0 10208.63919349 0 2655.99606052 0 586.50547457 0 4470
0.06450000 0.06451750 33000.73195223 0 354.31660866 0 8314.30835724 0 2963.61846096 0 3202.08312058 0 4479
0.06550000 0.06550280 32801.76227524 0 850.41655109 0 7031.69025025 0 2504.55987398 0 963.68089782 0 4636
0.06650000 0.06648880 30788.70289996 0 1750.10273316 0 7265.71490762 0 -1622.73778077 0 2892.89952234 0 4653
0.06750000 0.06749660 31220.96646088 0 1257.25141083 0 10279.63494023 0 -3038.50059371 0 2204.34485885 0 5220
0.06850000 0.06852730 28944.27503167 0 1389.37746289 0 11252.69298994 0 -2023.82167500 0 2192.91821963 0 5029
0.06950000 0.06949320 29135.16191154 0 1272.43156816 0 13105.64654834 0 -2388.63263313 0 2961.90225061 0 5040
0.07050000 0.07048030 28635.13572273 0 488.60176406 0 14303.33992398 0 333.24265283 0 3222.04652223 0 5475
0.07150000 0.07148790 28011.43166570 0 -42.00397143 0 14069.04953081 0 1622.77099775 0 1792.23292910 0 5509
0.07250000 0.07249820 27644.71626771 0 1526.78501389 0 12542.28666157 0 1645.09280458 0 1010.63087675 0 5916
0.07350000 0.07351270 26843.30139733 0 722.97077073 0 12082.45301185 0 1410.47024167 0 1643.00013519 0 5721
0.07450000 0.07449140 26137.88358314 0 418.35782818 0 11325.88105699 0 1134.83578764 0 3495.00147366 0 6028
0.07550000 0.07549160 26110.42421759 0 -179.78687424 0 10220.53087035 0 701.56243069 0 1144.62372278 0 6183
0.07650000 0.07648840 25707.05942444 0 57.49470747 0 11085.72233168 0 1207.10485173 0 2264.44543796 0 6330
0.07750000 0.07749960 25827.41559522 0 696.30639810 0 10264.54336150 0 -621.40654963 0 1143.10681428 0 6583
0.07850000 0.07848650 24903.09791936 0 202.86159916 0 9596.86003029 0 227.33918764 0 1427.90915326 0 6549
0.07950000 0.07947320 25126.98032720 0 631.64845009 0 11230.76978680 0 -640.85508818 0 190.67539847 0 6828
0.08050000 0.08048110 24522.65283859 0 332.85069254 0 10783.52537040 0 -273.43438309 0 1133.52925331 0 7147
0.08150000 0.08149960 24294.23077758 0 106.80707762 0 10609.11410986 0 696.79911656 0 -342.17359003 0 7386
0.08250000 0.08250610 24100.46509326 0 223.06416303 0 9697.70676474 0 956.67543791 0 897.00114330 0 7227
0.08350000 0.08350160 23613.17207799 0 467.08712971 0 9641.52578861 0 1953.58991868 0 456.13217153 0 7798
0.08450000 0.08449610 23441.99393629 0 166.54658822 0 9347.38947980 0 1380.45316909 0 -119.79701838 0 7371
0.08550000 0.08548940 22740.34071254 0 507.82664164 0 8080.16190430 0 -30.03401324 0 -291.16006790 0 8256
0.08650000 0.08650700 22076.88700940 0 907.57189180 0 8001.31587927 0 476.45985267 0 -1018.62509527 0 8037
0.08750000 0.08749060 21785.57414342 0 358.76436154 0 8296.70336078 0 -91.30859096 0 -300.14193779 0 8155
0.08850000 0.08849210 21361.39337962 0 199.90085951 0 7562.04353674 0 635.34549935 0 -1018.09694538 0 8718
0.08950000 0.08949900 20918.50038688 0 216.42741153 0 6488.76987510 0 1331.70172291 0 -538.24342515 0 8571
0.09050000 0.09049190 20857.49187713 0 477.98561903 0 6358.74756475 0 633.91052605 0 -1682.81621524 0 8932
0.09150000 0.09150830 20273.42674294 0 252.42575398 0 5435.80285717 0 797.55173624 0 -322.70622854 0 9285
0.09250000 0.09250820 19672.53167503 0 760.75286471 0 6081.82872104 0 -1.21813289 0 -447.11044127 0 9204
0.09350000 0.09350330 19252.55839466 0 1006.96372277 0 5609.89302029 0 -201.43105480 0 -609.47722687 0 9349
0.09450000 0.09448040 18724.07633107 0 364.65040941 0 6013.31317506 0 -2.89006501 0 -35.97885516 0 9564
0.09550000 0.09549270 18438.07818100 0 292.28612333 0 5744.70964728 0 -290.43483062 0 -860.02843627 0 10155
0.09650000 0.09649430 18086.31042151 0 232.46235233 0 5951.14207120 0 -120.46357233 0 -815.08254813 0 9913
0.09750000 0.09749140 18362.12203275 0 -137.41973056 0 5686.94532870 0 1022.52698254 0 -1327.20635904 0 10476
0.09850000 0.09850240 17548.85977482 0 -133.43590809 0 5222.52773651 0 1379.53416613 0 -260.17859582 0 10575
0.09950000 0.09950330 18074.68448045 0 155.48090680 0 4468.82351378 0 1198.93347601 0 -932.63520626 0 10882
0.10050000 0.10051200 17861.76367419 0 289.86682036 0 4442.89212905 0 682.00427613 0 -208.57602600 0 10875
0.10150000 0.10150300 17332.17437812 0 607.88724103 0 4233.96843205 0 -290.33075077 0 264.76032383 0 11118
0.10250000 0.10250800 17237.50600092 0 317.26418089 0 4475.54441495 0 -512.39840456 0 561.16092306 0 11575
0.10350000 0.10349800 16842.55617464 0 290.56326959 0 5181.52691771 0 -703.62077588 0 1123.89633072 0 11364
0.10450000 0.10450100 16655.21243870 0 239.64607668 0 6150.75394303 0 -54.57571048 0 591.18574627 0 12093
0.10550000 0.10551000 16556.00440833 0 282.85693151 0 5983.76114012 0 -16.88529535 0 1111.76106272 0 12067
0.10650000 0.10649700 16399.44173539 0 416.72576750 0 6232.47877252 0 142.11439628 0 702.80363831 0 12054
0.10750000 0.10749900 16106.02512770 0 528.41341518 0 5809.15057773 0 311.77452224 0 1202.47661995 0 12807
0.10850000 0.10850100 15593.15504210 0 232.72365920 0 5987.14927151 0 524.72300932 0 1191.02783609 0 12736
0.10950000 0.10950300 15601.12711597 0 39.79792144 0 5352.50575756 0 234.42215383 0 278.24530823 0 12933
0.11050000 0.11050200 15553.73756575 0 80.84435822 0 5532.81856723 0 163.69103565 0 -41.33332072 0 13428
0.11150000 0.11150900 15153.47302355 0 331.37585887 0 4701.14303312 0 -267.21837994 0 -840.38281034 0 13453
0.11250000 0.11250000 15299.18481816 0 181.57948363 0 5138.55522509 0 -366.82169231 0 -230.69742376 0 13668
0.11350000 0.11349100 14980.19114014 0 225.49453833 0 4817.01491235 0 0.81998870 0 -1173.32318871 0 13791
0.11450000 0.11448600 14734.93914541 0 248.94572229 0 4992.50018840 0 114.94734010 0 -495.79545350 0 14205
0.11550000 0.11549300 14651.67526277 0 214.58386945 0 4781.81599175 0 658.33828907 0 -735.58768486 0 14776
0.11650000 0.11649800 14545.49166776 0 68.41445565 0 4636.93462150 0 768.15692832 0 -744.83639778 0 14553
0.11750000 0.11747300 14287.61722273 0 33.77601614 0 3955.80948796 0 1420.21388751 0 277.20340246 0 14568
0.11850000 0.11849100 14507.73504013 0 -6.16779425 0 4021.05869811 0 275.53812481 0 277.55882409 0 16015
0.11950000 0.11950300 14313.85863255 0 -145.45934561 0 3771.63243692 0 413.80488821 0 602.03994629 0 15270
0.12050000 0.12050700 14313.30501631 0 262.55693119 0 3887.72576265 0 -146.91867802 0 84.30058441 0 15999
0.12150000 0.12150000 13867.53321911 0 575.60698525 0 3801.14018257 0 -552.04507804 0 335.17477352 0 15670
0.12250000 0.12250700 13457.63575433 0 397.79319929 0 4518.87042196 0 -499.03521574 0 349.21891032 0 16887
0.12350000 0.12352200 13360.08857268 0 309.15702466 0 4631.21022957 0 -132.37296490 0 538.36854242 0 16407
0.12450000 0.12449800 13182.26703609 0 221.64358375 0 5123.48579101 0 249.02101410 0 254.85834375 0 16306
0.12550000 0.12549900 12942.21903402 0 178.59106316 0 4768.10845363 0 100.40461652 0 807.90325272 0 17523
0.12650000 0.12650100 12969.89984607 0 -29.03617533 0 4638.31866210 0 719.03013033 0 928.05347825 0 17154
0.12750000 0.12750600 12976.54324096 0 -111.86259041 0 4563.44760168 0 467.26650137 0 916.07765173 0 18007
0.12850000 0.12850300 12958.05245851 0 124.87810823 0 3946.87412183 0 537.39085614 0 338.60055081 0 17496
0.12950000 0.12949900 13003.55971351 0 248.46961233 0 3929.88917556 0 -39.81187256 0 666.25167961 0 18405
0.13050000 0.13049000 12383.50952367 0 345.15093818 0 3798.08422092 0 -188.88057462 0 473.80249471 0 18100
0.13150000 0.13148800 12426.24869747 0 37.07567966 0 3360.19591899 0 220.39351828 0 886.10597568 0 19059
0.13250000 0.13249300 12385.61326539 0 -164.60450245 0 3503.38322354 0 336.08270415 0 516.37558364 0 18957
0.13350000 0.13349100 12579.48967296 0 139.54450969 0 3170.37198230 0 119.71840487 0 225.31959559 0 19468
0.13450000 0.13450700 12514.93801927 0 106.45364901 0 3571.53338280 0 -52.05642441 0 787.82802059 0 19953
0.13550000 0.13551000 12178.11789828 0 313.66788979 0 3413.30986114 0 -42.61150989 0 664.50668122 0 19956
0.13650000 0.13649900 12147.00466554 0 386.05874945 0 3904.89893844 0 218.75149251 0 953.03707198 0 19723
0.13750000 0.13749600 11773.86731916 0 233.28502607 0 3690.10690928 0 129.68017551 0 803.25619799 0 20946
0.13850000 0.13851100 11487.20482960 0 93.32563637 0 3699.56267468 0 401.37620361 0 1180.32089799 0 20955
0.13950000 0.13949800 11588.84877144 0 -19.29817637 0 3252.90509150 0 609.71971079 0 706.84614410 0 20506
0.14050000 0.14048300 11396.07959634 0 115.39466203 0 3134.78553033 0 141.69696963 0 905.78038965 0 21447
0.14150000 0.14148400 11286.57430389 0 358.35911445 0 2973.68320422 0 -7.13568152 0 397.69022667 0 21771
0.14250000 0.14249400 10922.71556570 0 408.14360854 0 2722.46322641 0 -91.84360569 0 663.69618705 0 22470
0.14350000 0.14350900 10562.04565705 0 195.19844316 0 2745.79261480 0 -103.29958657 0 397.25286984 0 22519
0.14450000 0.14449900 10612.61296450 0 13.42641180 0 2632.91026328 0 -94.39843392 0 -127.48121180 0 22218
0.14550000 0.14550500 10654.82066671 0 -10.18375968 0 3031.56931837 0 81.66980003 0 148.91058925 0 23559
0.14650000 0.14650700 10684.88202859 0 9.42631301 0 2924.69923922 0 27.98098277 0 364.94050433 0 23044
0.14750000 0.14750500 10505.61001745 0 179.98728332 0 2864.33292431 0 182.54277589 0 444.95798132 0 23649
0.14850000 0.14849900 10416.42244104 0 347.54256034 0 2989.33947151 0 74.47101733 0 553.76018115 0 23640
0.14950000 0.14949500 10274.33129664 0 188.10883358 0 3021.29420094 0 172.63968857 0 712.86063094 0 24457
0.15050000 0.15050000 10007.05644784 0 184.61330063 0 3144.14164480 0 69.74235957 0 935.55387109 0 24591
0.15150000 0.15149900 10007.00108622 0 209.74969243 0 3189.08421124 0 63.01924394 0 941.37016331 0 25020
0.15250000 0.15250500 10061.45477968 0 -152.63199763 0 3303.12915687 0 -63.92894614 0 712.77094511 0 25297
0.15350000 0.15350100 9876.58017218 0 48.88818939 0 3158.98963238 0 51.13653567 0 777.85517762 0 25452
0.15450000 0.15450400 10019.90034463 0 147.84210991 0 3148.98025075 0 -92.43807881 0 59.40556929 0 26061
0.15550000 0.15549900 9778.63438684 0 193.36154447 0 3231.57979389 0 -205.85777026 0 249.92119411 0 26128
0.15650000 0.15649500 9651.67911047 0 220.46438116 0 3280.35338472 0 -79.01676028 0 99.19784384 0 26331
0.15750000 0.15749700 9481.53069498 0 233.41567950 0 2991.62037043 0 209.61903900 0 215.92362075 0 27345
0.15850000 0.15849900 9305.82397243 0 70.79068728 0 2718.22252600 0 581.38563158 0 139.72609582 0 26980
0.15950000 0.15949700 9330.99136674 0 -136.92811933 0 2544.81884702 0 564.39404191 0 146.52450326 0 27777
0.16050000 0.16050000 9254.03870925 0 110.93030066 0 2225.42656530 0 612.84874978 0 24.80909388 0 28224
0.16150000 0.16150500 9220.04667206 0 301.30674636 0 2332.85026069 0 -25.72532876 0 121.25745802 0 28075
0.16250000 0.16249700 8873.43861594 0 240.42335388 0 2112.37812890 0 -106.13365883 0 716.93746094 0 28590
0.16350000 0.16349900 8713.52102858 0 256.36639439 0 2436.68652284 0 -63.57883923 0 507.84325013 0 29163
0.16450000 0.16449100 8602.85314202 0 1.88572764 0 2293.00096367 0 134.12903562 0 578.89435849 0 28996
0.16550000 0.16550500 8718.99075704 0 -26.65795068 0 2495.53592925 0 -157.59018468 0 -7.60464984 0 30777
0.16650000 0.16650700 8645.39301397 0 104.71396534 0 2243.19764663 0 -48.07924534 0 396.17331817 0 29211
0.16750000 0.16749900 8592.15727624 0 7.23109175 0 2280.96534659 0 -233.10011824 0 -146.84449344 0 30922
0.16850000 0.16850800 8532.23385433 0 115.94274211 0 2208.84022272 0 43.35966688 0 -98.55930286 0 30867
0.16950000 0.16949900 8398.23657937 0 156.76418925 0 2130.74711578 0 59.77881736 0 -516.42983803 0 30852
0.17050000 0.17049200 8323.93020751 0 62.75837997 0 2060.02817716 0 182.17517471 0 -346.50840520 0 31257
0.17150000 0.17149500 8196.14450678 0 42.75434288 0 1913.45274121 0 289.08732869 0 -354.85140195 0 32608
0.17250000 0.17250900 8239.65874332 0 48.03218796 0 1837.24192948 0 378.14535890 0 -349.85889069 0 32361
0.17350000 0.17350400 8213.77164789 0 27.03418828 0 1837.68482248 0 95.51186690 0 -75.99623007 0 32508
0.17450000 0.17449800 8248.27301203 0 40.09842433 0 1893.26789307 0 111.87366274 0 186.52992006 0 32791
0.17550000 0.17549800 8180.15606974 0 88.38173261 0 1953.08059174 0 24.12936386 0 620.09226468 0 33633
0.17650000 0.17650100 8177.91946013 0 182.56270607 0 2079.32723932 0 -161.55739866 0 437.49191270 0 33984
0.17750000 0.17750300 8118.07354448 0 114.20992327 0 2321.08037941 0 -93.67939715 0 789.95058526 0 34069
0.17850000 0.17849800 8035.07539764 0 165.33859759 0 2575.11272772 0 -343.11030871 0 668.21923174 0 34536
