### header ###
fiducial parameters:
Omega_m = 0.31
Omega_nu = 0
Omega_de = 0.69
Omega_k = 0
H_0 = 100
w_de = -1
zeff = 0
beta = 0
fgrowth = 0
b_1 = 2
gamma = 0.55
Lx = 3500 Ly = 3500 Lz = 3500
nx = 700 ny = 700 nz = 700
xoffset = -685.467585 yoffset = -31.7331281 zoffset = 572.489161
bins = 400 dk = 0.001
kx_ny = 0.628318531 ky_ny = 0.628318531 kz_ny = 0.628318531
############################
A(data) = 8.08909928 (not used)
A(ran) = 8.0900748 (used)
Ngal = 480528
weighted Ngal = 0
Nran = 23820508
weighted Nran = 0
SN(data) = 3485.86279
SN(ran) = 70.4674855
SN(data+ran) = 3556.33027
############################
13 columns: k_central k_mean P_0(k) sigma^{lin}_{P_0(k)} P^img_1(k) sigma^{lin}_{P_1(k)} P_2(k) sigma^{lin}_{P_2(k)} P^img_3(k) sigma^{lin}_{P_3(k)} P_4(k) sigma^{lin}_{P_4(k)} N_modes
### header ###
0.00050000 0 0 0 0 0 0 0 0 0 0 0 0
0.00150000 0.00179520 -755.65627360 0 -3239.13111942 0 5047.61822135 0 -5168.07404305 0 12149.55130025 0 3
0.00250000 0.00253879 5096.93435609 0 -11334.18530061 0 -2631.09440201 0 -12737.38102487 0 -27691.44147844 0 6
0.00350000 0.00331552 12570.85325960 0 -10911.24463718 0 -8164.23406665 0 8719.44472236 0 4555.03263482 0 7
0.00450000 0.00420575 30324.44032032 0 -19912.69040035 0 -11949.47439078 0 -3951.84559567 0 1722.00117277 0 24
0.00550000 0.00557378 45729.25511725 0 -13143.84606897 0 -9572.35697546 0 -19008.85652540 0 -11163.67149840 0 45
0.00650000 0.00659388 74339.92100214 0 -11928.87986662 0 -17054.70191816 0 -7360.46079109 0 9134.85620491 0 40
0.00750000 0.00754703 73818.08233343 0 -20074.67851245 0 -4952.45158953 0 -15379.01628011 0 -31021.33244440 0 57
0.00850000 0.00846663 86823.96723516 0 -3848.03147817 0 20459.55252314 0 -30700.67791765 0 -11321.11995732 0 75
0.00950000 0.00948925 90824.39819214 0 -703.51337433 0 14919.40407688 0 -18303.66015770 0 -30746.40661915 0 112
0.01050000 0.01054430 92822.39920566 0 -3824.02667797 0 10745.92375532 0 -14497.10560830 0 -21825.54523602 0 105
0.01150000 0.01145670 92633.72679075 0 7771.67586253 0 33463.11223666 0 -10509.70677764 0 -42871.59880481 0 144
0.01250000 0.01249090 87322.00040550 0 10159.40056502 0 30075.75590489 0 -18773.01600677 0 -32315.24432271 0 169
0.01350000 0.01339930 71310.97582475 0 12456.91903722 0 28179.28810995 0 1471.26837725 0 -14241.22418174 0 180
0.01450000 0.01448870 66165.99865127 0 3411.70437404 0 17244.81373530 0 7625.02292031 0 -13401.27762100 0 267
0.01550000 0.01550050 61632.87814726 0 2885.45892006 0 25344.88367963 0 9860.08240820 0 -19765.53920351 0 238
0.01650000 0.01653350 62509.14193341 0 287.03784137 0 8432.84866675 0 5495.34982004 0 -11266.75484246 0 315
0.01750000 0.01747870 60398.97826947 0 1337.42611484 0 22953.15079555 0 1582.62274795 0 -12881.32124752 0 297
0.01850000 0.01844180 61265.05551679 0 -1741.51060910 0 8042.03988995 0 -1008.33004765 0 -2766.39821129 0 388
0.01950000 0.01947590 72145.60766958 0 -9548.00893319 0 11280.37380199 0 8546.19605592 0 1544.64467383 0 399
0.02050000 0.02045430 76048.49144490 0 -1887.91996018 0 17902.39910628 0 1626.76810701 0 4047.98659207 0 462
0.02150000 0.02154770 79567.71916526 0 6734.66406467 0 19880.58065838 0 -4349.36420131 0 12727.08376279 0 571
0.02250000 0.02255340 73979.51682929 0 -331.70027799 0 25464.90768066 0 9505.28083171 0 19081.49097621 0 510
0.02350000 0.02348930 72498.59338480 0 -2305.03658075 0 17663.12616695 0 14360.47312004 0 23412.32010578 0 555
0.02450000 0.02439640 81348.81333559 0 -1812.69458536 0 25145.13893990 0 18819.07687801 0 16108.90393215 0 592
0.02550000 0.02547300 73255.16533965 0 3461.07587041 0 23557.14611441 0 17308.25815651 0 24491.76105235 0 837
0.02650000 0.02652900 72057.91485701 0 6148.50626109 0 17957.87145362 0 7990.19926515 0 30254.57395071 0 723
0.02750000 0.02749970 64534.38086599 0 2319.14272256 0 18157.72691659 0 -2897.10700577 0 31432.89075791 0 826
0.02850000 0.02848090 62699.80736679 0 12179.33585401 0 26546.67381544 0 -4991.89121054 0 38640.08842886 0 831
0.02950000 0.02946900 53878.04329078 0 6861.14323107 0 24949.38023710 0 -1440.80841168 0 37880.85911605 0 996
0.03050000 0.03053250 51452.65053926 0 -420.82363492 0 27493.02541769 0 1220.35842454 0 35874.77530541 0 1041
0.03150000 0.03150510 52256.94421408 0 -3737.41895323 0 20410.83429394 0 9387.29413845 0 26149.28807770 0 1036
0.03250000 0.03246190 54951.72662845 0 -2433.57519957 0 25301.03727334 0 5956.05818342 0 5917.02823843 0 1059
0.03350000 0.03345080 57083.92421877 0 1140.72626444 0 24122.49901965 0 -5367.28731119 0 10949.31128991 0 1302
0.03450000 0.03451200 52615.35536846 0 5746.41478530 0 22688.63295563 0 -2059.52992254 0 6136.32670379 0 1339
0.03550000 0.03553350 51854.68665342 0 3662.34859096 0 25431.35853646 0 -3146.53326696 0 8432.45006306 0 1365
0.03650000 0.03647120 47721.27707537 0 -90.00227807 0 23575.63689685 0 -1974.27302144 0 -711.22081963 0 1308
0.03750000 0.03744890 48702.17433106 0 2063.10628346 0 29812.89891369 0 1491.56394864 0 -1354.51071204 0 1579
0.03850000 0.03847530 48916.09164655 0 2890.04286254 0 29944.21668604 0 2598.64141796 0 -1957.18842424 0 1662
0.03950000 0.03950240 45637.02265151 0 894.89186542 0 26517.22143142 0 4775.74835775 0 8076.30873527 0 1683
0.04050000 0.04050350 45503.26896770 0 222.85711055 0 24144.64366928 0 5062.20047314 0 8932.25480537 0 1822
0.04150000 0.04152450 45211.95610172 0 -1696.33552384 0 22468.29369174 0 8689.90375974 0 1467.93560748 0 1887
0.04250000 0.04250150 46060.98196882 0 -932.42926102 0 21835.17815861 0 4570.74426374 0 -4.84512755 0 1920
0.04350000 0.04349210 45744.09203251 0 1317.27448367 0 16409.18538123 0 -428.17787306 0 -1433.07992895 0 2005
0.04450000 0.04448520 45242.95861122 0 1017.49571814 0 15107.41215231 0 -1310.16605114 0 -3141.94932449 0 2151
0.04550000 0.04548030 43646.10792587 0 -916.56815572 0 11117.61062715 0 -1711.02849888 0 -8124.93838587 0 2274
0.04650000 0.04648670 45356.89283360 0 -73.38116840 0 11966.52577100 0 -2251.34687770 0 -12136.59668021 0 2311
0.04750000 0.04749250 44877.90406194 0 1454.92562582 0 13348.01973862 0 83.22933698 0 -13954.56169219 0 2568
0.04850000 0.04851840 42977.89312306 0 3038.40094278 0 12660.64981388 0 -4264.32874670 0 -11120.60015486 0 2493
0.04950000 0.04949480 41464.74921335 0 2137.88876528 0 14977.53378218 0 456.97034652 0 -6663.71260723 0 2644
0.05050000 0.05050630 39807.33291125 0 1226.20461204 0 18052.98272381 0 -1233.50127410 0 -6515.04450189 0 2829
0.05150000 0.05149060 41552.88491891 0 311.77562948 0 20278.85218210 0 2530.52447568 0 -4263.32116515 0 2784
0.05250000 0.05249300 39837.89252774 0 1054.64115344 0 21888.87893398 0 894.08801464 0 -1937.82292814 0 3055
0.05350000 0.05348950 39267.77852283 0 1895.88096172 0 21162.09153289 0 478.20263659 0 -1180.63092309 0 3009
0.05450000 0.05448610 37647.67595537 0 1313.50989324 0 20910.30686651 0 1977.47292331 0 -556.95233240 0 3336
0.05550000 0.05550870 37073.79736002 0 758.19737214 0 18533.07872795 0 3315.12048465 0 862.87180928 0 3349
0.05650000 0.05647670 35794.94384346 0 38.42462099 0 14326.14891310 0 4714.64019708 0 -1199.87462362 0 3324
0.05750000 0.05747970 36010.18983794 0 217.90445966 0 12093.63605992 0 6000.36962734 0 -1649.26707104 0 3639
0.05850000 0.05849280 34136.42030888 0 496.82517970 0 7322.06196862 0 4809.71825030 0 -1115.00525389 0 3846
0.05950000 0.05951020 32773.30640046 0 1788.99981025 0 7084.37237174 0 838.18716833 0 -2795.68451043 0 3787
0.06050000 0.06049470 31419.49324488 0 1398.55642017 0 7723.41159865 0 -508.22192364 0 -915.36127231 0 3930
0.06150000 0.06148310 29711.69786485 0 840.58432665 0 7130.96471458 0 -298.87526383 0 -1824.80770871 0 4083
0.06250000 0.06249100 29683.90632956 0 300.24269594 0 7940.20771860 0 -2460.06020053 0 -518.77606366 0 4303
0.06350000 0.06350600 30569.13869881 0 -852.97979429 0 9482.83722931 0 17.92166495 0 -5137.92410257 0 4470
0.06450000 0.06451750 30452.32567197 0 59.76320538 0 8942.36383793 0 -199.84106895 0 -3697.82431968 0 4479
0.06550000 0.06550280 31447.83839642 0 -277.65736778 0 7775.00863230 0 -720.09196628 0 -4290.82482000 0 4636
0.06650000 0.06648880 31310.65229191 0 -576.46509043 0 8248.83770059 0 683.76920471 0 -3627.69221428 0 4653
0.06750000 0.06749660 32341.70717902 0 -153.05163874 0 8540.26128982 0 675.05528508 0 -3134.29834804 0 5220
0.06850000 0.06852730 31998.90800264 0 861.09913008 0 7937.76073481 0 1457.79335795 0 -3755.57756594 0 5029
0.06950000 0.06949320 31469.42942981 0 850.37779795 0 7814.70291678 0 2285.59357836 0 -199.21880430 0 5040
0.07050000 0.07048030 30426.19498540 0 138.27008510 0 8218.37773502 0 2050.77171361 0 341.26123047 0 5475
0.07150000 0.07148790 30444.02142836 0 758.96025532 0 8421.63240171 0 1544.64467383 0 1669.55157010 0 5509
0.07250000 0.07249820 29590.89880108 0 866.10492813 0 7267.70792609 0 289.91775305 0 1150.12666821 0 5916
0.07350000 0.07351270 28946.93238963 0 1084.83206152 0 8285.59781899 0 -567.44889633 0 1889.04933731 0 5721
0.07450000 0.07449140 28112.07909830 0 513.73483417 0 7761.02428606 0 -1183.41007662 0 2693.24336121 0 6028
0.07550000 0.07549160 27671.84346351 0 393.87027461 0 10313.40553093 0 -1208.96500230 0 -324.84207999 0 6183
0.07650000 0.07648840 27196.17638930 0 1233.27982760 0 10943.21043894 0 -1715.55707973 0 660.80741750 0 6330
0.07750000 0.07749960 26267.09761377 0 1504.47427938 0 12238.57279179 0 34.83419822 0 989.98541990 0 6583
0.07850000 0.07848650 25841.03455475 0 232.78234252 0 11438.59732365 0 1000.52184419 0 2816.48940877 0 6549
0.07950000 0.07947320 25908.57573614 0 -575.26152872 0 11001.43979516 0 2287.55337986 0 2805.76032602 0 6828
0.08050000 0.08048110 26055.39476324 0 -92.67458367 0 10979.21763925 0 2049.85271065 0 3087.24096756 0 7147
0.08150000 0.08149960 26005.34785506 0 525.51800224 0 9098.37289463 0 1249.54507276 0 2202.94974592 0 7386
0.08250000 0.08250610 25072.50448909 0 705.77655752 0 8451.27301525 0 1276.59476229 0 2977.44779466 0 7227
0.08350000 0.08350160 24278.17590660 0 443.93268405 0 7781.10948328 0 104.40504748 0 1456.96293359 0 7798
0.08450000 0.08449610 24156.26961034 0 669.61988082 0 8359.43915321 0 -640.16971127 0 728.33752657 0 7371
0.08550000 0.08548940 23135.29053882 0 1043.56882862 0 8649.45655718 0 139.27434496 0 11.11152085 0 8256
0.08650000 0.08650700 22084.96980652 0 1026.14209659 0 7866.66533715 0 -53.41942760 0 -197.31436443 0 8037
0.08750000 0.08749060 21454.29018485 0 563.03989659 0 7832.40756416 0 370.40358939 0 1630.61020372 0 8155
0.08850000 0.08849210 21306.69609502 0 344.94388570 0 8338.03634933 0 822.37478126 0 -600.15765108 0 8718
0.08950000 0.08949900 20334.76742244 0 605.57644684 0 7365.25510774 0 603.75504941 0 444.73653483 0 8571
0.09050000 0.09049190 20227.58731819 0 616.52254716 0 7707.52281253 0 212.83554936 0 20.36012305 0 8932
0.09150000 0.09150830 19814.14670946 0 47.55231340 0 6959.19973967 0 369.31407263 0 1172.71421084 0 9285
0.09250000 0.09250820 19613.07329076 0 362.00190932 0 7091.86833564 0 1299.82449976 0 350.21541955 0 9204
0.09350000 0.09350330 19381.55097880 0 273.85956037 0 5955.29419301 0 269.69747347 0 -438.76965898 0 9349
0.09450000 0.09448040 18802.57911403 0 231.09381299 0 6540.21189620 0 322.43827828 0 -259.17212150 0 9564
0.09550000 0.09549270 18555.88771707 0 712.14092983 0 6190.31535961 0 -771.91708982 0 -351.41787402 0 10155
0.09650000 0.09649430 18499.86175349 0 441.40044336 0 6495.93366925 0 270.45482049 0 809.92395200 0 9913
0.09750000 0.09749140 17730.66734834 0 527.11352425 0 6188.68772786 0 522.28156170 0 1047.37217220 0 10476
0.09850000 0.09850240 17898.08089960 0 -161.52085999 0 6393.62538793 0 1031.75244358 0 2026.97728758 0 10575
0.09950000 0.09950330 17556.38895569 0 -137.64228429 0 6080.12358301 0 1259.45480347 0 1632.91324728 0 10882
0.10050000 0.10051200 17776.06388010 0 157.68651390 0 5435.70320624 0 850.96684563 0 1124.32815138 0 10875
0.10150000 0.10150300 17285.67061388 0 371.89946047 0 5591.81191386 0 -4.07851299 0 914.80765607 0 11118
0.10250000 0.10250800 16844.77063960 0 617.40944037 0 5842.64436030 0 -902.22506615 0 1094.18817600 0 11575
0.10350000 0.10349800 16519.79790617 0 639.78217990 0 5500.66453595 0 -1021.44743087 0 517.81055693 0 11364
0.10450000 0.10450100 15994.30537028 0 359.59921483 0 5869.52796496 0 143.30688566 0 1130.34042376 0 12093
0.10550000 0.10551000 16149.31791774 0 -186.10917171 0 5518.05915824 0 376.86982708 0 163.98334503 0 12067
0.10650000 0.10649700 16056.31038926 0 -53.40924106 0 5605.94020033 0 1022.51037405 0 -456.91387766 0 12054
0.10750000 0.10749900 16084.43409430 0 29.17546517 0 5343.57039143 0 333.85495240 0 -302.47819833 0 12807
0.10850000 0.10850100 15815.37660121 0 576.96555951 0 5349.94805052 0 288.20264994 0 -351.13663697 0 12736
0.10950000 0.10950300 15550.19442180 0 598.57430863 0 5251.40435964 0 -222.37435719 0 485.50262035 0 12933
0.11050000 0.11050200 15193.22266965 0 92.83136779 0 5596.69480911 0 10.09948822 0 686.02242281 0 13428
0.11150000 0.11150900 15143.95082421 0 155.36354016 0 5971.75874001 0 -166.84000483 0 530.60241380 0 13453
0.11250000 0.11250000 14932.69086667 0 251.47464128 0 5799.30728096 0 558.75822858 0 1167.58772445 0 13668
0.11350000 0.11349100 15119.48098636 0 21.23660828 0 5976.39804411 0 665.12119525 0 681.67874978 0 13791
0.11450000 0.11448600 14842.00852640 0 271.43915016 0 5774.20632060 0 -128.18541166 0 639.88072359 0 14205
0.11550000 0.11549300 14734.71769891 0 23.13506909 0 5911.95711367 0 81.36165723 0 336.05170164 0 14776
0.11650000 0.11649800 15010.30786365 0 -163.85047713 0 5987.59216450 0 -173.46789847 0 1240.56541733 0 14553
0.11750000 0.11747300 15002.11434328 0 -19.65835910 0 5734.06914313 0 -234.09994918 0 264.50123143 0 14568
0.11850000 0.11849100 15019.05500025 0 267.17741234 0 6279.64687625 0 -180.29952288 0 21.14659028 0 16015
0.11950000 0.11950300 14714.78751424 0 585.98175361 0 5957.44222402 0 -183.88917059 0 151.61223651 0 15270
0.12050000 0.12050700 14308.98680963 0 393.09631911 0 6441.12566140 0 167.91291311 0 150.02889406 0 15999
0.12150000 0.12150000 13984.01407621 0 152.93759379 0 6082.80308562 0 277.37723796 0 663.53342387 0 15670
0.12250000 0.12250700 14140.46602589 0 33.08421728 0 5945.91593389 0 756.33500711 0 143.58590825 0 16887
0.12350000 0.12352200 14061.40962669 0 -145.51360000 0 5923.56091008 0 608.01235830 0 540.48889263 0 16407
0.12450000 0.12449800 13904.29333751 0 222.40535970 0 5477.64517266 0 240.00814170 0 525.32202209 0 16306
0.12550000 0.12549900 14070.04604005 0 233.02150474 0 5699.62314062 0 92.94629852 0 1020.66129581 0 17523
0.12650000 0.12650100 13575.22384390 0 135.09564958 0 5679.34971388 0 537.15944455 0 1128.85673224 0 17154
0.12750000 0.12750600 13502.70011634 0 259.39688969 0 5609.84873099 0 409.07368382 0 1067.05765849 0 18007
0.12850000 0.12850300 13306.49852055 0 446.48596215 0 5356.08211847 0 718.98473380 0 1224.48840169 0 17496
0.12950000 0.12949900 12877.11376409 0 260.71117464 0 4826.72534122 0 692.05905430 0 1437.86317327 0 18405
0.13050000 0.13049000 12695.85980680 0 152.61981807 0 4696.53694600 0 655.51041731 0 2030.59793779 0 18100
0.13150000 0.13148800 12539.74002686 0 -108.01794706 0 3994.13080416 0 605.67609776 0 1042.79044419 0 19059
0.13250000 0.13249300 12538.18990139 0 -90.47639502 0 3534.33037141 0 702.71173801 0 1530.38351946 0 18957
0.13350000 0.13349100 12651.45978428 0 86.15032699 0 3283.44256335 0 82.08877680 0 737.78000518 0 19468
0.13450000 0.13450700 12298.91696206 0 387.51365293 0 3028.90088809 0 -2.75427402 0 850.77197272 0 19953
0.13550000 0.13551000 12166.60268047 0 430.66471722 0 2941.00877368 0 -499.16919087 0 455.91515397 0 19956
0.13650000 0.13649900 11849.93419066 0 170.49276479 0 3161.59162872 0 -435.14568707 0 390.59618816 0 19723
0.13750000 0.13749600 11755.59798320 0 -71.33998532 0 2980.62555188 0 130.01345249 0 386.13293403 0 20946
0.13850000 0.13851100 11823.02844135 0 65.44795839 0 3338.01805238 0 237.05293820 0 112.43281514 0 20955
0.13950000 0.13949800 11701.12214510 0 172.35070089 0 2992.94904940 0 441.51781000 0 189.29578680 0 20506
0.14050000 0.14048300 11686.17450659 0 116.79974005 0 3155.60150099 0 498.45945485 0 462.68477336 0 21447
0.14150000 0.14148400 11344.03966970 0 333.31130125 0 3194.04461276 0 -137.38540635 0 962.55484239 0 21771
0.14250000 0.14249400 11305.61870258 0 206.35270318 0 3479.65523146 0 386.72641064 0 849.91718924 0 22470
0.14350000 0.14350900 11019.02264697 0 62.79082188 0 3296.24217084 0 -337.41802652 0 1192.86584201 0 22519
0.14450000 0.14449900 11006.99810222 0 190.71082991 0 3730.78663067 0 -174.33043257 0 1288.44214985 0 22218
0.14550000 0.14550500 10955.88825085 0 119.78483882 0 3445.46389242 0 -58.18993874 0 1061.02545593 0 23559
0.14650000 0.14650700 10855.41797545 0 -9.55810689 0 3541.90384159 0 -9.76422929 0 759.35996625 0 23044
0.14750000 0.14750500 10823.89506669 0 112.43613684 0 3149.76638581 0 189.28028554 0 296.67740735 0 23649
0.14850000 0.14849900 10665.00720554 0 247.33912796 0 3228.06986693 0 238.87765733 0 582.95568724 0 23640
0.14950000 0.14949500 10477.01020245 0 226.59955634 0 2984.55622719 0 263.35746028 0 127.07596471 0 24457
0.15050000 0.15050000 10357.68375788 0 134.38259186 0 2632.30128541 0 278.42578712 0 182.61696047 0 24591
0.15150000 0.15149900 10253.32709646 0 94.27431316 0 2842.73081859 0 212.66060663 0 266.29605528 0 25020
0.15250000 0.15250500 10047.47043343 0 143.19948411 0 2535.61774509 0 134.68375909 0 355.29429494 0 25297
0.15350000 0.15350100 10021.92658008 0 151.35868027 0 2560.06543829 0 -1.59282036 0 241.02236665 0 25452
0.15450000 0.15450400 9874.57608139 0 250.48588267 0 2764.22803562 0 76.14415633 0 419.71529520 0 26061
0.15550000 0.15549900 9828.33805295 0 109.47750092 0 2884.27418131 0 -248.97118864 0 449.30054712 0 26128
0.15650000 0.15649500 9535.85152054 0 141.25296941 0 2867.07886087 0 33.56785643 0 374.32762131 0 26331
0.15750000 0.15749700 9532.58518472 0 32.34680045 0 2656.27286864 0 150.52382698 0 505.38076509 0 27345
0.15850000 0.15849900 9511.42597199 0 -26.05373391 0 2782.05447858 0 225.09593463 0 -154.21755454 0 26980
0.15950000 0.15949700 9564.62849274 0 133.67617754 0 2659.55027679 0 6.12536510 0 29.23248765 0 27777
0.16050000 0.16050000 9315.78906477 0 252.09136977 0 2454.24723000 0 80.87835025 0 38.65027497 0 28224
0.16150000 0.16150500 9163.55567084 0 127.61629416 0 2370.11970603 0 227.44105303 0 32.87716481 0 28075
0.16250000 0.16249700 9135.71984624 0 -120.37277927 0 2322.07688864 0 312.35471206 0 123.90706535 0 28590
0.16350000 0.16349900 9261.95542150 0 -17.57742637 0 2221.03085235 0 112.15157809 0 -382.42702691 0 29163
0.16450000 0.16449100 9234.59570687 0 225.36720659 0 2151.57415876 0 44.86506017 0 -161.64929896 0 28996
0.16550000 0.16550500 8988.62401103 0 228.35341259 0 2040.19764341 0 -70.35333045 0 62.84585133 0 30777
0.16650000 0.16650700 8809.01983014 0 246.43784072 0 1928.94292363 0 41.74355035 0 -3.02394049 0 29211
0.16750000 0.16749900 8756.71416770 0 77.27109755 0 1891.30809157 0 192.26538431 0 -263.36963983 0 30922
0.16850000 0.16850800 8636.61266039 0 70.02326445 0 1876.38259772 0 161.65704958 0 -249.20924362 0 30867
0.16950000 0.16949900 8600.46151986 0 104.23187632 0 2057.90229079 0 109.77745020 0 -307.25258479 0 30852
0.17050000 0.17049200 8387.39677337 0 182.71771862 0 1978.71302369 0 -174.19313574 0 -79.38934401 0 31257
0.17150000 0.17149500 8260.14254423 0 286.74663922 0 2138.82991289 0 -267.39996607 0 -91.60245046 0 32608
0.17250000 0.17250900 8210.17314233 0 23.09631596 0 2173.36449400 0 -44.02699590 0 179.14357217 0 32361
0.17350000 0.17350400 8213.77164789 0 -141.37919391 0 2139.43889076 0 238.27532286 0 223.31993373 0 32508
0.17450000 0.17449800 8397.01862364 0 -52.83713403 0 2287.59766916 0 371.09118076 0 -15.40293250 0 32791
0.17550000 0.17549800 8364.73172447 0 28.11517935 0 2220.41080216 0 230.98308974 0 -2.32503320 0 33633
0.17650000 0.17650100 8224.06890997 0 303.97739111 0 1951.10971792 0 138.41402533 0 -46.25485838 0 33984
0.17750000 0.17750300 8060.55281705 0 170.38425601 0 1814.55473593 0 -13.21061219 0 545.91543902 0 34069
0.17850000 0.17849800 7910.92141945 0 119.98081897 0 1884.04464649 0 253.14434786 0 267.88493389 0 34536
