### header ###
fiducial parameters:
Omega_m = 0.31
Omega_nu = 0
Omega_de = 0.69
Omega_k = 0
H_0 = 100
w_de = -1
zeff = 0
beta = 0
fgrowth = 0
b_1 = 2
gamma = 0.55
Lx = 3500 Ly = 3500 Lz = 3500
nx = 700 ny = 700 nz = 700
xoffset = -685.467585 yoffset = -31.7331281 zoffset = 572.489161
bins = 400 dk = 0.001
kx_ny = 0.628318531 ky_ny = 0.628318531 kz_ny = 0.628318531
############################
A(data) = 8.01033166 (not used)
A(ran) = 8.01191504 (used)
Ngal = 476036
weighted Ngal = 0
Nran = 23820508
weighted Nran = 0
SN(data) = 3483.64595
SN(ran) = 69.7866857
SN(data+ran) = 3553.43264
############################
13 columns: k_central k_mean P_0(k) sigma^{lin}_{P_0(k)} P^img_1(k) sigma^{lin}_{P_1(k)} P_2(k) sigma^{lin}_{P_2(k)} P^img_3(k) sigma^{lin}_{P_3(k)} P_4(k) sigma^{lin}_{P_4(k)} N_modes
### header ###
0.00050000 0 0 0 0 0 0 0 0 0 0 0 0
0.00150000 0.00179520 85894.66701313 0 -65853.86981463 0 106861.33201297 0 -131866.95966015 0 -162309.20951654 0 3
0.00250000 0.00253879 150586.93923104 0 -54557.77331140 0 14198.81717769 0 5914.29337420 0 104344.70330494 0 6
0.00350000 0.00331552 152927.62869770 0 -13021.60760297 0 5295.48328474 0 -34897.42119366 0 149030.17036153 0 7
0.00450000 0.00420575 137201.60575777 0 37599.73278890 0 -1153.96876492 0 -86892.61564904 0 61431.25111232 0 24
0.00550000 0.00557378 121625.05920290 0 23622.69427733 0 61879.79099072 0 -33058.64021103 0 23884.55475929 0 45
0.00650000 0.00659388 63628.44324933 0 23556.59249817 0 26351.80089863 0 -10997.16587778 0 38187.23034378 0 40
0.00750000 0.00754703 77215.07158779 0 24709.99657452 0 77689.40998302 0 30522.19204158 0 -5635.83547734 0 57
0.00850000 0.00846663 57135.85342217 0 5429.32554715 0 50121.20347981 0 43763.80673869 0 -18052.53983082 0 75
0.00950000 0.00948925 59961.39999264 0 -1961.32947373 0 68534.92254622 0 40732.75781959 0 -21754.79308043 0 112
0.01050000 0.01054430 59550.72746512 0 -1692.69272898 0 24023.51243577 0 32049.95142005 0 -18698.83143048 0 105
0.01150000 0.01145670 63198.06198363 0 624.71496029 0 34649.17967123 0 8723.61898882 0 7186.97960583 0 144
0.01250000 0.01249090 61037.74068826 0 236.65101281 0 18899.46195620 0 6072.20687077 0 6817.96116428 0 169
0.01350000 0.01339930 68364.63019051 0 -11172.30791176 0 40908.36489121 0 4403.30856783 0 9793.64845929 0 180
0.01450000 0.01448870 74240.04863227 0 -8419.44008140 0 14429.89659665 0 3716.58083793 0 -2612.05000332 0 267
0.01550000 0.01550050 82584.92767834 0 -128.05254376 0 24171.10652560 0 -22114.86508353 0 -20760.83048146 0 238
0.01650000 0.01653350 76690.57556113 0 8865.94265203 0 28618.41651226 0 -7322.29448744 0 2914.29125389 0 315
0.01750000 0.01747870 78079.93087938 0 4785.86846264 0 35105.24873051 0 -8557.39017631 0 11775.19599813 0 297
0.01850000 0.01844180 82726.65343602 0 -9836.29905449 0 19441.12008632 0 30841.62861259 0 -13576.33107638 0 388
0.01950000 0.01947590 81993.00119354 0 -6345.06217127 0 31896.93189106 0 6928.27473645 0 -13509.89712747 0 399
0.02050000 0.02045430 89716.50137078 0 4769.89109792 0 27948.87303048 0 1779.95372087 0 -8274.85766392 0 462
0.02150000 0.02154770 83785.05696543 0 4255.83627357 0 24896.01163148 0 5780.30717157 0 -73.73802942 0 571
0.02250000 0.02255340 79003.80566225 0 3154.28389434 0 24813.74425808 0 4067.46281143 0 -1033.65688344 0 510
0.02350000 0.02348930 78470.11960599 0 50.90357395 0 24561.07380571 0 -2421.97140316 0 -18414.93702213 0 555
0.02450000 0.02439640 75627.41093205 0 4161.23433032 0 23082.91844242 0 -1295.15197869 0 -3940.78434318 0 592
0.02550000 0.02547300 74539.44429537 0 5394.93490626 0 14586.12709984 0 8314.89519046 0 -5689.65804828 0 837
0.02650000 0.02652900 68526.17540961 0 -1633.98726279 0 4620.40364055 0 15048.72883077 0 -1800.10535204 0 723
0.02750000 0.02749970 70608.21536851 0 -3797.24272423 0 1797.76909150 0 13540.45674397 0 -2818.49349956 0 826
0.02850000 0.02848090 68440.47561551 0 5565.18297267 0 4777.06596441 0 5700.95181960 0 -2366.42154954 0 831
0.02950000 0.02946900 61986.30675548 0 8530.58407793 0 2940.62124231 0 -2216.94516449 0 -890.66334457 0 996
0.03050000 0.03053250 55368.71038112 0 5160.36770498 0 9282.84889843 0 -7477.24060096 0 7481.41486741 0 1041
0.03150000 0.03150510 53387.09640832 0 1039.55511088 0 12027.75572725 0 -6437.64895141 0 10380.84706140 0 1036
0.03250000 0.03246190 53161.11025877 0 -1490.86639218 0 16540.39243033 0 510.59250838 0 8314.65159931 0 1059
0.03350000 0.03345080 54937.11115968 0 -508.81540025 0 13771.86833268 0 -220.82976788 0 6233.97353637 0 1302
0.03450000 0.03451200 55065.55012758 0 1351.35509947 0 15258.32793958 0 -963.25793502 0 -1603.91482858 0 1339
0.03550000 0.03553350 55996.40047508 0 2885.04924405 0 16165.81568172 0 -3629.59665415 0 3160.84978295 0 1365
0.03650000 0.03647120 51023.15505954 0 5100.93146535 0 18787.63147553 0 -7941.17101086 0 1109.63517635 0 1308
0.03750000 0.03744890 50702.94342579 0 2847.94588358 0 22112.76134181 0 -3127.22313248 0 1894.05402813 0 1579
0.03850000 0.03847530 47464.06696984 0 66.62317494 0 25965.70893221 0 1207.27093660 0 3187.19084370 0 1662
0.03950000 0.03950240 47619.63313354 0 2084.96305265 0 28297.20836927 0 5234.29761779 0 2928.56348058 0 1683
0.04050000 0.04050350 48349.74223208 0 2225.80302434 0 26744.53625995 0 2542.99191342 0 8625.50711860 0 1822
0.04150000 0.04152450 44731.63865109 0 2341.92956704 0 22786.73375353 0 5219.49391951 0 9386.28655689 0 1887
0.04250000 0.04250150 42953.86617821 0 2032.05948467 0 23775.71380633 0 4782.56890984 0 10345.58170685 0 1920
0.04350000 0.04349210 41519.00360496 0 658.54977047 0 19936.16372897 0 7390.68823785 0 7250.26901450 0 2005
0.04450000 0.04448520 39720.30443817 0 1217.51283706 0 19758.34219238 0 2012.25109557 0 7370.76912550 0 2151
0.04550000 0.04548030 39473.72376446 0 1298.88335215 0 21103.29748810 0 -1256.18846765 0 5245.11527914 0 2274
0.04650000 0.04648670 37657.30887796 0 2066.36154696 0 19595.80046404 0 1112.07108781 0 9282.11812499 0 2311
0.04750000 0.04749250 35681.45251407 0 1629.33688636 0 19001.43806778 0 1642.69011009 0 7971.40952994 0 2568
0.04850000 0.04851840 35786.30743011 0 -566.00174347 0 18801.58260480 0 4497.24617159 0 7662.59131842 0 2493
0.04950000 0.04949480 35003.05117243 0 194.52081688 0 16197.48253070 0 3742.77795845 0 5968.73599534 0 2644
0.05050000 0.05050630 35602.39611487 0 34.38056507 0 13252.24412894 0 3419.22248260 0 6118.73277966 0 2829
0.05150000 0.05149060 35098.60533562 0 -1282.02020145 0 12191.18324157 0 879.24224152 0 3421.16013944 0 2784
0.05250000 0.05249300 36318.77553063 0 -591.39058428 0 13325.21074950 0 -1704.88335860 0 -2278.09761446 0 3055
0.05350000 0.05348950 34284.34656846 0 2441.72443063 0 12932.25394168 0 -2944.17545858 0 -919.54882556 0 3009
0.05450000 0.05448610 33923.61022586 0 2289.31387950 0 11811.29177704 0 -414.26992586 0 1440.29908473 0 3336
0.05550000 0.05550870 32484.09727619 0 -695.65202371 0 12143.24007511 0 1448.23794163 0 303.42709656 0 3349
0.05650000 0.05647670 33673.48640821 0 -526.29970837 0 11563.71459410 0 3248.75296969 0 -3098.99977652 0 3324
0.05750000 0.05747970 33270.45378481 0 1127.73842743 0 12406.53995929 0 109.00858797 0 -1751.23211029 0 3639
0.05850000 0.05849280 31373.32165039 0 2829.82048785 0 10601.83959245 0 -25.33270412 0 1159.98103730 0 3846
0.05950000 0.05951020 29880.66154158 0 433.40290314 0 11405.71251894 0 1958.22922278 0 3020.59664448 0 3787
0.06050000 0.06049470 30136.98586114 0 -475.57738838 0 10931.91666762 0 2962.95412147 0 3106.60646367 0 3930
0.06150000 0.06148310 31431.00846269 0 -1041.37872277 0 11532.60136136 0 647.53280728 0 1589.80868676 0 4083
0.06250000 0.06249100 31240.89664556 0 61.21766597 0 10197.91011074 0 1261.03814592 0 2498.73583112 0 4303
0.06350000 0.06350600 31073.81526404 0 424.99679414 0 9332.20932247 0 354.83590070 0 3686.82950114 0 4470
0.06450000 0.06451750 31498.54964409 0 -439.09961426 0 9047.38483884 0 1379.22414103 0 2742.43770038 0 4479
0.06550000 0.06550280 31824.29744025 0 234.36125604 0 9107.35255006 0 587.81311613 0 -124.70316550 0 4636
0.06650000 0.06648880 30592.16913443 0 819.28006647 0 8001.94700179 0 1112.96794612 0 1397.27203049 0 4653
0.06750000 0.06749660 30297.20240126 0 892.73165485 0 8239.74732192 0 -906.93301866 0 1903.83089094 0 5220
0.06850000 0.06852730 29925.39373385 0 -222.55151439 0 8952.31785794 0 -374.72068884 0 -311.23972895 0 5029
0.06950000 0.06949320 29957.17130608 0 660.80077411 0 9867.21298538 0 -365.56941237 0 411.01466236 0 5040
0.07050000 0.07048030 28664.14521376 0 1920.27329330 0 9562.79048682 0 -1694.50859025 0 1504.39677311 0 5475
0.07150000 0.07148790 28462.18600907 0 1371.84997271 0 11189.02712223 0 -665.48658197 0 3355.08050492 0 5509
0.07250000 0.07249820 26817.72432700 0 340.33226242 0 10775.05504192 0 1243.70995758 0 4222.50857586 0 5916
0.07350000 0.07351270 26790.26496145 0 206.56418458 0 12136.48595697 0 2510.81573750 0 5178.36023281 0 5721
0.07450000 0.07449140 26650.97511523 0 347.07420100 0 11463.84222423 0 2601.70845194 0 3041.60084466 0 6028
0.07550000 0.07549160 26304.30062516 0 558.71393928 0 11383.12497631 0 1761.80618049 0 5252.37872422 0 6183
0.07650000 0.07648840 25681.70380061 0 486.81579807 0 10408.07390813 0 900.60739949 0 7154.30517529 0 6330
0.07750000 0.07749960 25410.09967281 0 21.21191699 0 9867.62266140 0 1279.87217044 0 6979.72782988 0 6583
0.07850000 0.07848650 25774.37915934 0 65.36779476 0 10049.76240467 0 1342.95120493 0 5599.79506006 0 6549
0.07950000 0.07947320 25447.08123770 0 95.04926517 0 9645.50075322 0 468.35380367 0 6311.44659312 0 6828
0.08050000 0.08048110 24930.66800816 0 613.97701968 0 9128.42318419 0 1122.98840008 0 7542.62267901 0 7147
0.08150000 0.08149960 24847.73629527 0 8.08614096 0 8628.44128467 0 813.80480185 0 7633.52646577 0 7386
0.08250000 0.08250610 24783.62753457 0 287.55934787 0 8812.29723829 0 1193.65197707 0 6466.73594871 0 7227
0.08350000 0.08350160 24166.01325618 0 714.02322505 0 8707.16551414 0 608.22605417 0 5116.68738357 0 7798
0.08450000 0.08449610 24040.34236949 0 574.72673543 0 7669.30114726 0 -1323.48605790 0 5520.28469553 0 7371
0.08550000 0.08548940 23442.87972228 0 354.97098306 0 8900.84261986 0 -1115.08276016 0 4616.40653129 0 8256
0.08650000 0.08650700 23173.49005944 0 443.53297312 0 8777.24225791 0 -727.13839379 0 2863.67965715 0 8037
0.08750000 0.08749060 22748.20206316 0 580.14331673 0 8890.57857476 0 -807.64083862 0 1943.41445217 0 8155
0.08850000 0.08849210 22101.13540076 0 940.03373371 0 8953.52474135 0 -86.57949030 0 308.37421129 0 8718
0.08950000 0.08949900 21381.98790378 0 466.47372291 0 8242.15001640 0 431.34234350 0 -109.75430904 0 8571
0.09050000 0.09049190 21067.20170919 0 231.01852118 0 8469.60878515 0 332.92709158 0 -714.69199346 0 8932
0.09150000 0.09150830 20999.77125104 0 556.24481084 0 8478.57736825 0 358.23621165 0 -756.30843353 0 9285
0.09250000 0.09250820 20099.36979679 0 489.66249278 0 8261.63730808 0 692.60159822 0 563.88803667 0 9204
0.09350000 0.09350330 20162.59277151 0 -15.94060459 0 7984.40843927 0 475.00384195 0 568.68013885 0 9349
0.09450000 0.09448040 20135.79774545 0 -57.39693884 0 8324.92671675 0 1352.19659615 0 492.49700793 0 9564
0.09550000 0.09549270 20029.28198069 0 301.59462681 0 7250.37973775 0 848.49328827 0 -296.68847968 0 10155
0.09650000 0.09649430 19781.59407450 0 327.31010120 0 7264.74054304 0 630.65747702 0 423.55628468 0 9913
0.09750000 0.09749140 19311.35243945 0 300.40545912 0 5784.65859523 0 937.71075996 0 732.90818226 0 10476
0.09850000 0.09850240 18709.01796931 0 100.71962416 0 5771.84791541 0 721.40846570 0 972.24423384 0 10575
0.09950000 0.09950330 18767.70129085 0 548.98579469 0 5693.09046898 0 564.29660545 0 614.68232677 0 10882
0.10050000 0.10051200 18265.46063708 0 571.11605031 0 5353.25867564 0 409.83324530 0 306.26493341 0 10875
0.10150000 0.10150300 17582.96253526 0 581.24279859 0 5242.69044000 0 -3.82431456 0 722.62309973 0 11118
0.10250000 0.10250800 17188.12343223 0 612.79670986 0 5720.31731571 0 -392.45855320 0 846.78815025 0 11575
0.10350000 0.10349800 16696.73365677 0 221.86835195 0 6024.95018844 0 333.15185977 0 2493.41004289 0 11364
0.10450000 0.10450100 17127.77926196 0 80.37455947 0 6171.04951442 0 222.07872612 0 1805.11004286 0 12093
0.10550000 0.10551000 16961.80511293 0 -10.98246183 0 6109.77526888 0 386.38870473 0 1813.99004736 0 12067
0.10650000 0.10649700 17056.14132039 0 387.23352311 0 6464.93115976 0 -89.73388492 0 1981.12679050 0 12054
0.10750000 0.10749900 16401.76692361 0 499.77373980 0 5906.78633798 0 -34.87970547 0 2213.95563679 0 12807
0.10850000 0.10850100 16517.91561095 0 -3.72662344 0 6266.95799200 0 592.96617611 0 2584.56849312 0 12736
0.10950000 0.10950300 15839.07137632 0 345.77763176 0 5427.27716706 0 887.33500373 0 1731.74481861 0 12933
0.11050000 0.11050200 15644.75207575 0 553.17113347 0 5404.13600819 0 845.82153629 0 2283.93272964 0 13428
0.11150000 0.11150900 15001.11783405 0 391.15423333 0 5065.38930268 0 481.74245884 0 1567.76368805 0 13453
0.11250000 0.11250000 15058.47247661 0 340.72643718 0 5143.33846941 0 -491.54921693 0 1486.24923273 0 13668
0.11350000 0.11349100 14431.66816862 0 393.17603985 0 5515.92219955 0 -416.03153274 0 1452.63365458 0 13791
0.11450000 0.11448600 14377.96739325 0 452.55581062 0 5455.64446324 0 -657.32406411 0 1672.19785574 0 14205
0.11550000 0.11549300 14176.78325130 0 151.54912426 0 6143.57907655 0 -345.02692814 0 1846.53161001 0 14776
0.11650000 0.11649800 14410.07713523 0 -125.60555998 0 6083.44528046 0 573.16110870 0 1551.04447757 0 14553
0.11750000 0.11747300 14151.09545772 0 -249.73628628 0 6048.85533773 0 723.75579856 0 811.22716463 0 14568
0.11850000 0.11849100 14438.86517976 0 -70.31114489 0 5388.74547669 0 673.46640647 0 769.12243504 0 16015
0.11950000 0.11950300 14381.84270694 0 112.39959816 0 5251.85832495 0 867.35499360 0 858.57685448 0 15270
0.12050000 0.12050700 14317.95539274 0 126.11488692 0 4810.41580676 0 -168.71344219 0 790.34365279 0 15999
0.12150000 0.12150000 13979.91731602 0 566.82884614 0 4633.53541778 0 -322.39066728 0 143.47629223 0 15670
0.12250000 0.12250700 13289.55786358 0 838.26356737 0 5075.27688875 0 -347.06977207 0 762.96179351 0 16887
0.12350000 0.12352200 12935.13274614 0 325.49534716 0 4856.15558059 0 390.23080144 0 1424.49887722 0 16407
0.12450000 0.12449800 12721.99049338 0 -216.74740172 0 4830.16883424 0 951.60431314 0 1380.85177278 0 16306
0.12550000 0.12549900 13043.42008286 0 -153.10700036 0 4778.11783526 0 612.16558734 0 531.06412974 0 17523
0.12650000 0.12650100 12857.62647240 0 233.86521589 0 4761.53149269 0 114.31953929 0 809.79219133 0 17154
0.12750000 0.12750600 12682.46229377 0 449.52974424 0 4741.46844011 0 -280.64135932 0 1209.67363109 0 18007
0.12850000 0.12850300 12617.91064008 0 142.95921466 0 4833.52374866 0 -374.06852891 0 1950.22393193 0 17496
0.12950000 0.12949900 12506.63377565 0 -126.20014382 0 5041.19627296 0 277.45917317 0 2054.17091733 0 18405
0.13050000 0.13049000 12626.32560694 0 -90.71821460 0 4828.85122758 0 573.06145778 0 1469.61860085 0 18100
0.13150000 0.13148800 12696.41342305 0 188.86507336 0 4954.83213937 0 385.36008576 0 1077.46675105 0 19059
0.13250000 0.13249300 12444.07514043 0 327.42525337 0 4813.50498538 0 53.43847200 0 1113.89802141 0 18957
0.13350000 0.13349100 12037.72081958 0 585.53553892 0 4717.50792921 0 -27.59588732 0 1103.08368176 0 19468
0.13450000 0.13450700 11656.72212257 0 223.76614842 0 4537.77088043 0 240.12661557 0 1109.39158520 0 19953
0.13550000 0.13551000 11696.58249192 0 -164.12949972 0 4416.10817532 0 544.03314380 0 780.79155817 0 19956
0.13650000 0.13649900 11642.88171655 0 -33.89781171 0 3868.47098979 0 282.82482177 0 172.01078052 0 19723
0.13750000 0.13749600 11705.44035178 0 164.60228799 0 3799.26895967 0 269.76722911 0 239.77783734 0 20946
0.13850000 0.13851100 11356.66211999 0 199.73256017 0 3380.20360994 0 35.09727666 0 247.14868397 0 20955
0.13950000 0.13949800 11293.99276152 0 131.67430121 0 2989.14016967 0 675.95767955 0 753.00445180 0 20506
0.14050000 0.14048300 11140.97323252 0 -22.35502381 0 3092.79927462 0 740.55694424 0 245.19331141 0 21447
0.14150000 0.14148400 11168.21115158 0 -14.85928135 0 2440.84971697 0 655.50820284 0 189.44747765 0 21771
0.14250000 0.14249400 11029.36419835 0 156.15299692 0 2275.69491998 0 59.78302484 0 12.48659287 0 22470
0.14350000 0.14350900 10822.80997886 0 207.05579581 0 2157.20997209 0 -72.86431227 0 328.89233641 0 22519
0.14450000 0.14449900 10793.46831809 0 170.86700937 0 2124.03728694 0 -310.48570363 0 46.99371461 0 22218
0.14550000 0.14550500 10518.34319099 0 210.30330868 0 2128.20048107 0 -206.02717683 0 -126.23557526 0 23559
0.14650000 0.14650700 10476.37907993 0 133.96516521 0 2336.94702087 0 -80.92618270 0 145.58335565 0 23044
0.14750000 0.14750500 10332.37242334 0 179.57096391 0 2530.80128380 0 -219.88640581 0 23.51208175 0 23649
0.14850000 0.14849900 10289.51145397 0 231.96077602 0 2983.98046630 0 85.80398467 0 242.22482113 0 23640
0.14950000 0.14949500 10146.11377524 0 119.46484863 0 3061.60853560 0 -162.08222686 0 959.78786842 0 24457
0.15050000 0.15050000 10117.86827463 0 151.73846101 0 3467.36495091 0 54.21120954 0 1188.61406928 0 24591
0.15150000 0.15149900 10065.17508082 0 25.17680579 0 3290.63957448 0 335.24342193 0 1182.96718362 0 25020
0.15250000 0.15250500 10033.82932926 0 8.53324144 0 3327.69864565 0 286.73888860 0 1060.90808929 0 25297
0.15350000 0.15350100 10086.55574004 0 69.65023783 0 3229.55355845 0 -207.56733721 0 639.51865857 0 25452
0.15450000 0.15450400 9829.73316587 0 505.93327410 0 3313.44856360 0 -193.43130012 0 513.20336258 0 26061
0.15550000 0.15549900 9530.70288950 0 355.92431023 0 3200.92052647 0 -451.39432374 0 417.05683001 0 26128
0.15650000 0.15649500 9149.89242201 0 199.22434046 0 3035.17889626 0 160.02166721 0 286.35246446 0 26331
0.15750000 0.15749700 9262.69726726 0 -126.29647304 0 3252.26289666 0 211.09165820 0 192.84668137 0 27345
0.15850000 0.15849900 9391.24695841 0 -54.80258241 0 3210.25449629 0 334.75181071 0 -67.75819896 0 26980
0.15950000 0.15949700 9294.88451551 0 140.76135819 0 3187.52301344 0 93.30149870 0 192.41818240 0 27777
0.16050000 0.16050000 9245.95591214 0 66.48908909 0 2994.37737931 0 -85.38633658 0 588.79633858 0 28224
0.16150000 0.16150500 9169.73402808 0 210.98204219 0 3220.02028678 0 219.52987695 0 972.32727627 0 28075
0.16250000 0.16249700 9104.96092789 0 81.74830282 0 3212.44681661 0 327.36989175 0 1100.00336099 0 28590
0.16350000 0.16349900 8941.79914937 0 45.50825151 0 2817.93988332 0 632.53312884 0 919.47464098 0 29163
0.16450000 0.16449100 9002.26511520 0 67.85574614 0 2632.19056216 0 346.81289413 0 1015.95555776 0 28996
0.16550000 0.16550500 8808.37763530 0 144.00554936 0 2680.11158398 0 353.61130157 0 839.29329358 0 30777
0.16650000 0.16650700 8689.30585420 0 261.34229716 0 2393.61517929 0 -62.26577223 0 1172.00558205 0 29211
0.16750000 0.16749900 8427.76646966 0 127.72037402 0 2058.63306423 0 49.94858594 0 877.73197642 0 30922
0.16850000 0.16850800 8412.79668651 0 43.79104466 0 2287.91876658 0 9.16533832 0 956.93563754 0 30867
0.16950000 0.16949900 8394.87059263 0 72.03311285 0 2128.72088033 0 64.29145406 0 401.96746575 0 30852
0.17050000 0.17049200 8377.65312753 0 128.40242922 0 2253.83815078 0 -169.84392656 0 558.50688680 0 31257
0.17150000 0.17149500 8258.81386525 0 50.48880466 0 2236.02278015 0 -108.27715019 0 693.08656605 0 32608
0.17250000 0.17250900 8334.68143491 0 54.07247331 0 2312.43289372 0 105.74712397 0 534.65488468 0 32361
0.17350000 0.17350400 8200.97204040 0 -44.55791387 0 2340.10263345 0 124.50829259 0 276.93655943 0 32508
0.17450000 0.17449800 8339.35395598 0 102.99476546 0 2251.24722678 0 -19.62912816 0 226.93394055 0 32791
0.17550000 0.17549800 8191.62699825 0 156.28697205 0 2262.80673389 0 250.24118430 0 456.10559795 0 33633
0.17650000 0.17650100 8058.52658161 0 156.89152098 0 2146.92378234 0 -122.10116917 0 235.80065827 0 33984
0.17750000 0.17750300 7912.56012353 0 191.10279021 0 2256.34049619 0 -28.14618186 0 244.50572004 0 34069
0.17850000 0.17849800 7874.18344570 0 138.18814990 0 2303.98470989 0 -83.57667581 0 -177.51372596 0 34536
