### header ###
fiducial parameters:
Omega_m = 0.31
Omega_nu = 0
Omega_de = 0.69
Omega_k = 0
H_0 = 100
w_de = -1
zeff = 0
beta = 0
fgrowth = 0
b_1 = 2
gamma = 0.55
Lx = 3500 Ly = 3500 Lz = 3500
nx = 700 ny = 700 nz = 700
xoffset = -685.467585 yoffset = -31.7331281 zoffset = 572.489161
bins = 400 dk = 0.001
kx_ny = 0.628318531 ky_ny = 0.628318531 kz_ny = 0.628318531
############################
A(data) = 8.0569576 (not used)
A(ran) = 8.05691721 (used)
Ngal = 479354
weighted Ngal = 0
Nran = 23820508
weighted Nran = 0
SN(data) = 3489.97298
SN(ran) = 70.1786708
SN(data+ran) = 3560.15165
############################
13 columns: k_central k_mean P_0(k) sigma^{lin}_{P_0(k)} P^img_1(k) sigma^{lin}_{P_1(k)} P_2(k) sigma^{lin}_{P_2(k)} P^img_3(k) sigma^{lin}_{P_3(k)} P_4(k) sigma^{lin}_{P_4(k)} N_modes
### header ###
0.00050000 0 0 0 0 0 0 0 0 0 0 0 0
0.00150000 0.00179520 27716.68637903 0 -31379.74359878 0 11210.39670913 0 -36191.99741146 0 38980.34097054 0 3
0.00250000 0.00253879 33592.76916028 0 -9518.50118755 0 10818.35890428 0 -19425.17593858 0 -42381.86987808 0 6
0.00350000 0.00331552 39991.46567298 0 5722.27711720 0 6947.86167905 0 31669.61706253 0 30753.38218379 0 7
0.00450000 0.00420575 42844.47160900 0 -6621.40525410 0 9369.93273313 0 3021.73709393 0 -1798.96490258 0 24
0.00550000 0.00557378 64556.85768537 0 -17784.14667721 0 21576.19648110 0 -5417.10170055 0 -43781.85462815 0 45
0.00650000 0.00659388 96046.88163935 0 -22730.70778994 0 8582.18111158 0 -8025.97394664 0 -22174.10202131 0 40
0.00750000 0.00754703 82897.61013122 0 15067.33033646 0 30494.95412252 0 -44655.12888659 0 -15487.52506333 0 57
0.00850000 0.00846663 92118.75296344 0 5110.47580935 0 33177.22480984 0 -38272.15507514 0 -8189.98829418 0 75
0.00950000 0.00948925 90652.33426445 0 -21594.35509381 0 33139.91107520 0 19497.25677315 0 -23404.90164815 0 112
0.01050000 0.01054430 92825.83162636 0 9556.96644397 0 18900.90135842 0 -5949.18226971 0 -22596.62193639 0 105
0.01150000 0.01145670 96644.67645631 0 17736.86785024 0 23985.97725463 0 4146.57457226 0 -51366.39712892 0 144
0.01250000 0.01249090 66026.26591206 0 24605.47382824 0 8681.40021428 0 -12179.88947026 0 -3715.90542611 0 169
0.01350000 0.01339930 54555.11595344 0 14823.73919045 0 11083.39714346 0 2586.52829461 0 11432.28609850 0 180
0.01450000 0.01448870 49183.26684443 0 -4412.75326090 0 21750.03198076 0 16928.92030822 0 -7697.11482720 0 267
0.01550000 0.01550050 58192.81754936 0 -9028.79440547 0 12398.56788542 0 21079.15981999 0 -8262.23521362 0 238
0.01650000 0.01653350 59093.77261985 0 -2870.31197971 0 8810.54781097 0 7691.39043527 0 2383.89367810 0 315
0.01750000 0.01747870 65509.29906627 0 949.13739917 0 -2694.90420994 0 640.46755681 0 5689.54732504 0 297
0.01850000 0.01844180 72662.46379211 0 -7588.77212885 0 11537.58390753 0 -2708.52316946 0 14338.10702391 0 388
0.01950000 0.01947590 69127.51337051 0 -4503.03699747 0 11262.99025202 0 6229.50031714 0 17090.90842032 0 399
0.02050000 0.02045430 74620.82588279 0 -267.53837013 0 12590.11910479 0 -51.19643694 0 -4312.71480616 0 462
0.02150000 0.02154770 70817.92520057 0 4107.28996380 0 3858.90450114 0 -4489.65055676 0 30.84860418 0 571
0.02250000 0.02255340 73272.88105936 0 3888.55618701 0 10190.90132913 0 -11602.13556122 0 3694.59120084 0 510
0.02350000 0.02348930 66538.91455116 0 -630.56446949 0 15411.45819183 0 -2584.50205917 0 -3992.85748680 0 555
0.02450000 0.02439640 73363.89556937 0 -2607.48820549 0 17675.08427775 0 -7980.35596839 0 -11202.20318877 0 592
0.02550000 0.02547300 72153.80118994 0 -461.14129128 0 18420.36246129 0 -2544.01056731 0 -19604.21543090 0 837
0.02650000 0.02652900 73417.48562149 0 209.31012114 0 20185.40176063 0 -4627.74459190 0 -20034.81814310 0 723
0.02750000 0.02749970 69245.10146008 0 4607.18328471 0 18911.53079025 0 -3968.56480615 0 -14780.33567716 0 826
0.02850000 0.02848090 67636.07121744 0 2643.41789953 0 18922.93528481 0 2083.56793972 0 -19942.58567736 0 831
0.02950000 0.02946900 64965.31574793 0 3005.93688642 0 14643.14957266 0 2908.78830846 0 -28914.49047791 0 996
0.03050000 0.03053250 62545.68060531 0 2061.70009821 0 15298.52047868 0 -3638.81990072 0 -24901.43707064 0 1041
0.03150000 0.03150510 56315.72632285 0 4480.53803344 0 17177.05110741 0 -498.32547972 0 -16665.39897754 0 1036
0.03250000 0.03246190 58688.96842448 0 -947.25621119 0 13319.23169409 0 199.95068497 0 -16211.21221348 0 1059
0.03350000 0.03345080 59054.02297375 0 -3539.06932643 0 16885.95968792 0 5400.12782660 0 -11145.62360895 0 1302
0.03450000 0.03451200 64281.82113688 0 444.95023070 0 18573.38199029 0 3050.42548754 0 -13686.38998508 0 1339
0.03550000 0.03553350 61467.90050747 0 3558.06943582 0 21961.84555454 0 -2006.82565641 0 -1496.84544758 0 1365
0.03650000 0.03647120 60006.02146166 0 6117.30444975 0 26475.70021335 0 -7191.70748853 0 -6198.16563791 0 1308
0.03750000 0.03744890 53886.79042739 0 5484.21106127 0 27636.63347059 0 578.69284218 0 1560.01306067 0 1579
0.03850000 0.03847530 49057.59595774 0 5235.90310489 0 27578.94665828 0 4236.94688743 0 1454.29450331 0 1662
0.03950000 0.03950240 46573.51988467 0 1465.52184067 0 24886.04653914 0 6769.65261109 0 7606.70929506 0 1683
0.04050000 0.04050350 44878.67912468 0 -742.32962344 0 23701.41850679 0 7712.36141848 0 -2201.43283742 0 1822
0.04150000 0.04152450 44775.70650387 0 1780.73985593 0 21121.89899379 0 721.19587706 0 -6664.55410392 0 1887
0.04250000 0.04250150 43010.44575803 0 2397.31333578 0 21104.07255084 0 -2028.16202633 0 451.56262308 0 1920
0.04350000 0.04349210 42052.35749147 0 -1336.85035395 0 17720.92370250 0 -1366.83420956 0 -970.67085648 0 2005
0.04450000 0.04448520 43786.94789756 0 -455.33828584 0 22472.83334492 0 -2342.69355745 0 980.33145989 0 2151
0.04550000 0.04548030 46847.55992393 0 -115.22193376 0 23423.28170735 0 1313.54311021 0 -5784.45929338 0 2274
0.04650000 0.04648670 43966.54100612 0 407.09395214 0 22009.89944425 0 1411.77677600 0 -1314.01922018 0 2311
0.04750000 0.04749250 46017.57845553 0 1705.33732392 0 23021.13486994 0 3424.53719851 0 -982.67214935 0 2568
0.04850000 0.04851840 43080.53357413 0 1080.83163057 0 22813.30733309 0 2763.09865849 0 -25.06154289 0 2493
0.04950000 0.04949480 42848.01475294 0 1649.06776919 0 23441.66176655 0 3140.04488462 0 -1949.62602639 0 2644
0.05050000 0.05050630 41087.40438353 0 2026.53439458 0 20520.78247939 0 1295.39556983 0 3145.97965072 0 2829
0.05150000 0.05149060 40228.74559384 0 258.85213131 0 19120.35483633 0 5141.22365537 0 4255.33801895 0 2784
0.05250000 0.05249300 39467.63398581 0 -302.52359486 0 18035.82062034 0 5267.18242250 0 5633.51028913 0 3055
0.05350000 0.05348950 38714.27300515 0 1298.75048425 0 15506.23729227 0 5537.92290897 0 5984.13759916 0 3009
0.05450000 0.05448610 38295.40695726 0 1364.61974460 0 15432.71705548 0 1112.11537711 0 5251.43757661 0 3336
0.05550000 0.05550870 35734.59967320 0 2361.22862920 0 14220.29748784 0 781.42821684 0 9078.84131365 0 3349
0.05650000 0.05647670 34033.33696482 0 2286.04754368 0 15253.89900966 0 -1240.17788596 0 9778.30221709 0 3324
0.05750000 0.05747970 32600.02451704 0 956.06313835 0 16541.05676982 0 114.64617287 0 7334.96122704 0 3639
0.05850000 0.05849280 32603.01404475 0 -72.73421246 0 17899.29885533 0 -954.41557642 0 7409.71049189 0 3846
0.05950000 0.05951020 32481.77208798 0 -423.66368623 0 14637.05979401 0 875.32263854 0 4344.45916142 0 3787
0.06050000 0.06049470 33149.98689079 0 -493.03844462 0 16625.42788494 0 -473.14147692 0 95.13795449 0 3930
0.06150000 0.06148310 33199.48018273 0 277.22443988 0 14173.57227710 0 201.24061081 0 -410.44222317 0 4083
0.06250000 0.06249100 32445.12269283 0 253.00705104 0 12957.94173526 0 1557.94253593 0 -64.18670987 0 4303
0.06350000 0.06350600 32610.43250237 0 -494.65500404 0 11983.57715122 0 2748.67141925 0 -2132.90621912 0 4470
0.06450000 0.06451750 32604.01055398 0 -402.68495240 0 10287.76202665 0 5371.63873484 0 -2707.96955322 0 4479
0.06550000 0.06550280 31738.92981590 0 838.14398626 0 7818.97683416 0 2211.37578510 0 -3416.36582279 0 4636
0.06650000 0.06648880 31642.71131322 0 1144.30262536 0 6115.08998479 0 702.97083041 0 1486.91357222 0 4653
0.06750000 0.06749660 29868.92487728 0 954.79424992 0 6941.84940667 0 735.53010877 0 2090.42170879 0 5220
0.06850000 0.06852730 30058.70452467 0 571.62094832 0 8651.69316679 0 182.78083087 0 2887.71767433 0 5029
0.06950000 0.06949320 28957.22965171 0 1279.04174608 0 9605.02033368 0 -1835.88003353 0 3852.95866272 0 5040
0.07050000 0.07048030 28955.34735649 0 832.55689116 0 10714.25690634 0 -2326.06292558 0 5375.39225296 0 5475
0.07150000 0.07148790 29100.17336512 0 -194.67361496 0 13764.67132155 0 -337.38813125 0 7557.95784888 0 5509
0.07250000 0.07249820 29510.73516939 0 -94.88683417 0 13155.47201003 0 -560.34599996 0 4880.91329888 0 5916
0.07350000 0.07351270 29881.21515783 0 -71.02464550 0 13230.09947930 0 254.12314138 0 4355.38754601 0 5721
0.07450000 0.07449140 29819.98520158 0 498.54581898 0 13071.98668089 0 142.50635658 0 2967.05088165 0 6028
0.07550000 0.07549160 29024.32794011 0 693.45416723 0 12058.31534375 0 1217.45747543 0 3393.61219529 0 6183
0.07650000 0.07648840 28646.87238704 0 837.17958677 0 11703.22588681 0 1410.48131400 0 2309.72017414 0 6330
0.07750000 0.07749960 27226.84672905 0 712.39448606 0 9551.14240111 0 2545.56069278 0 1625.37299408 0 6583
0.07850000 0.07848650 26443.47974813 0 519.17356012 0 8465.46773567 0 2528.16607049 0 557.77389890 0 6549
0.07950000 0.07947320 25817.45050289 0 348.07956809 0 7299.50764297 0 1577.10873019 0 1214.34615216 0 6828
0.08050000 0.08048110 25273.35646130 0 858.11956747 0 7062.98064019 0 921.76439776 0 -223.40961956 0 7147
0.08150000 0.08149960 24352.91409912 0 628.31568032 0 6931.51892762 0 62.83322888 0 -834.54880239 0 7386
0.08250000 0.08250610 23822.77118681 0 1003.31982067 0 7616.40865160 0 -646.22848741 0 557.22360436 0 7227
0.08350000 0.08350160 22358.78839929 0 1256.79744551 0 7106.29557488 0 -149.76205103 0 1222.18535813 0 7798
0.08450000 0.08449610 22135.23816120 0 958.95522959 0 6808.80435165 0 1077.62397807 0 1150.12666821 0 7371
0.08550000 0.08548940 20885.28341242 0 -5.18725131 0 5758.39504076 0 1761.58473400 0 1581.88090219 0 8256
0.08650000 0.08650700 21015.82612203 0 358.35357829 0 6441.95608576 0 977.17474008 0 316.50572664 0 8037
0.08750000 0.08749060 20651.76808199 0 422.60960091 0 5280.14811487 0 361.21466702 0 1847.94886758 0 8155
0.08850000 0.08849210 19938.26747068 0 555.28151859 0 5250.24176553 0 -170.53594686 0 2269.61621365 0 8718
0.08950000 0.08949900 20268.77636652 0 461.21215416 0 6480.70922263 0 -328.72403708 0 3483.35338795 0 8571
0.09050000 0.09049190 19743.72672362 0 235.97006484 0 6003.68025247 0 606.43123032 0 2964.99142924 0 8932
0.09150000 0.09150830 19514.30815338 0 152.36183290 0 5886.21395846 0 367.71522892 0 2502.16825182 0 9285
0.09250000 0.09250820 19325.63573847 0 331.16548470 0 5243.45443042 0 -770.34481970 0 1843.47564836 0 9204
0.09350000 0.09350330 19542.43185841 0 145.94652790 0 6390.89052370 0 -209.60685944 0 1113.80944281 0 9349
0.09450000 0.09448040 19063.99670300 0 -359.24711490 0 5758.77149980 0 -916.90364716 0 818.93350270 0 9564
0.09550000 0.09549270 19356.30607821 0 79.52298697 0 6404.06659023 0 -300.08436170 0 -916.13633505 0 10155
0.09650000 0.09649430 19243.70053481 0 304.24977030 0 6632.45543427 0 -872.71732051 0 -964.39949170 0 9913
0.09750000 0.09749140 18831.36715856 0 1075.62210174 0 6299.75421812 0 217.84466911 0 -385.23939742 0 10476
0.09850000 0.09850240 18078.33834764 0 553.18552750 0 6415.58180804 0 640.94477401 0 537.41742972 0 10575
0.09950000 0.09950330 18014.56175669 0 153.11917992 0 6501.94594163 0 1155.40816715 0 806.30551625 0 10882
0.10050000 0.10051200 17444.11558203 0 67.73350768 0 6196.91446520 0 1430.74366842 0 1130.19648354 0 10875
0.10150000 0.10150300 17549.08122131 0 306.25829002 0 5911.45885905 0 1111.59497784 0 1104.73124369 0 11118
0.10250000 0.10250800 16996.46148961 0 292.22522554 0 5522.36629260 0 262.81823806 0 1978.62444509 0 11575
0.10350000 0.10349800 16911.53675826 0 553.48115857 0 5708.75780860 0 -641.98667977 0 1383.49805841 0 11364
0.10450000 0.10450100 16266.24166783 0 586.59516040 0 5939.22824970 0 -350.65941977 0 2045.47914235 0 12093
0.10550000 0.10551000 16014.12483170 0 347.62449554 0 5767.77329988 0 -218.08383133 0 1436.03623968 0 12067
0.10650000 0.10649700 16219.29501059 0 -210.10954299 0 6036.74221437 0 -145.33976450 0 1075.85351333 0 12054
0.10750000 0.10749900 16069.48645580 0 96.93311052 0 6475.82632738 0 85.67720655 0 256.20141675 0 12807
0.10850000 0.10850100 16024.20064729 0 423.73122741 0 6475.11769859 0 -371.29048261 0 -350.32946449 0 12736
0.10950000 0.10950300 15720.81894726 0 316.79360708 0 6086.14692771 0 -205.61307188 0 -524.97213663 0 12933
0.11050000 0.11050200 15612.53161053 0 135.21301622 0 6210.84344982 0 97.37246037 0 -1187.17466706 0 13428
0.11150000 0.11150900 15591.71563987 0 -62.81197002 0 6191.88762973 0 572.42147740 0 -1640.75245325 0 13453
0.11250000 0.11250000 15178.16430790 0 -39.61544952 0 5193.52931781 0 512.01308766 0 -1788.88908700 0 13668
0.11350000 0.11349100 15491.40037702 0 -109.38405050 0 5105.50433550 0 1293.10359860 0 -2054.53630405 0 13791
0.11450000 0.11448600 15424.41281186 0 -138.40627470 0 4159.15273325 0 987.51186253 0 -1458.53520371 0 14205
0.11550000 0.11549300 15476.45273851 0 -86.25263527 0 3715.44038847 0 230.79264575 0 -2152.85854844 0 14776
0.11650000 0.11649800 15546.20838487 0 367.54250066 0 4254.66260714 0 -188.50300834 0 -867.33284895 0 14553
0.11750000 0.11747300 15041.19964989 0 650.62420037 0 4482.70820910 0 -212.52330980 0 -852.27780889 0 14568
0.11850000 0.11849100 14494.22680385 0 674.87037725 0 4323.85356493 0 -19.89187443 0 128.45557638 0 16015
0.11950000 0.11950300 14276.32345142 0 380.98208852 0 5055.62351219 0 -13.58031711 0 405.24044497 0 15270
0.12050000 0.12050700 13905.06840025 0 262.25465672 0 5031.62978431 0 393.85034443 0 388.57216719 0 15999
0.12150000 0.12150000 13796.89178677 0 289.44164308 0 5229.92404949 0 579.16009429 0 1062.67301786 0 15670
0.12250000 0.12250700 13549.86822007 0 84.63552223 0 4931.97886094 0 315.14715238 0 905.22788064 0 16887
0.12350000 0.12352200 13571.45925346 0 45.96221683 0 5441.10650076 0 373.87476322 0 1702.82390618 0 16407
0.12450000 0.12449800 13630.36402150 0 99.04726022 0 5130.98175491 0 -57.94003637 0 1545.64118306 0 16306
0.12550000 0.12549900 13566.36598405 0 89.10663772 0 5097.31081514 0 18.87942105 0 1456.64183617 0 17523
0.12650000 0.12650100 13369.38932552 0 224.19243293 0 4676.70641225 0 239.45341823 0 1443.36611871 0 17154
0.12750000 0.12750600 13233.75334649 0 185.55334101 0 4536.99581769 0 324.97494789 0 998.52218233 0 18007
0.12850000 0.12850300 12949.30532190 0 167.81436942 0 4026.61700517 0 371.00924556 0 556.95343963 0 17496
0.12950000 0.12949900 12775.69126875 0 194.43998891 0 3854.23198007 0 495.20419135 0 -141.32383229 0 18405
0.13050000 0.13049000 12487.58937697 0 248.11751240 0 3260.04674100 0 221.16747379 0 -274.31795461 0 18100
0.13150000 0.13148800 12162.94881328 0 296.41056433 0 3274.35218467 0 388.69949892 0 57.69843825 0 19059
0.13250000 0.13249300 12146.45104930 0 -29.62267637 0 2833.07575135 0 248.01675424 0 -54.96944235 0 18957
0.13350000 0.13349100 11959.10731337 0 84.35816050 0 2640.00762348 0 318.48435108 0 -352.22615374 0 19468
0.13450000 0.13450700 11976.60158659 0 202.79959415 0 2806.57967806 0 -217.64536726 0 -516.44423205 0 19953
0.13550000 0.13551000 11807.52718660 0 138.39741684 0 2475.05212834 0 216.47059360 0 -167.81658388 0 19956
0.13650000 0.13649900 11838.41897285 0 61.50034242 0 2758.92439204 0 123.27705007 0 -60.23056821 0 19723
0.13750000 0.13749600 11650.41089743 0 -45.01907620 0 2033.17778947 0 122.61824674 0 -212.99056191 0 20946
0.13850000 0.13851100 11784.71819748 0 42.57242459 0 2566.47631436 0 125.91669230 0 -667.83280760 0 20955
0.13950000 0.13949800 11794.24039682 0 124.69984381 0 2394.16879554 0 -429.54862687 0 -941.70454752 0 20506
0.14050000 0.14048300 11589.40238768 0 416.49878484 0 2848.32234262 0 -829.29719873 0 -594.15645102 0 21447
0.14150000 0.14148400 11240.07053965 0 391.99462279 0 3247.15855491 0 -553.46787178 0 -116.33580964 0 21771
0.14250000 0.14249400 11248.59622976 0 161.81759829 0 3623.32971830 0 -364.62051414 0 -29.61359707 0 22470
0.14350000 0.14350900 11189.91290822 0 -189.72871470 0 3875.64585627 0 405.24819559 0 -228.25265444 0 22519
0.14450000 0.14449900 11263.76531476 0 -9.24251242 0 3838.80823160 0 480.69169521 0 -255.69098257 0 22218
0.14550000 0.14550500 11227.66953585 0 193.90630285 0 3569.79502781 0 619.65269338 0 -99.92861727 0 23559
0.14650000 0.14650700 10884.00671813 0 238.08155718 0 3079.34639996 0 618.11031854 0 297.52222574 0 23044
0.14750000 0.14750500 10789.98053577 0 191.82692025 0 2910.92526715 0 563.84485460 0 218.78803118 0 23649
0.14850000 0.14849900 10579.62850887 0 123.66125974 0 2503.04296548 0 236.82595555 0 163.63678126 0 23640
0.14950000 0.14949500 10427.37297028 0 157.18604482 0 2621.63863661 0 85.24029262 0 -134.21982868 0 24457
0.15050000 0.15050000 10295.59016029 0 236.69087318 0 2439.65390589 0 -385.97681425 0 391.83961024 0 24591
0.15150000 0.15149900 10119.55126800 0 207.66588090 0 2750.12189381 0 -249.30668008 0 278.99158292 0 25020
0.15250000 0.15250500 9983.19558786 0 189.85826090 0 2824.74936308 0 -84.34852758 0 440.70842306 0 25297
0.15350000 0.15350100 9948.81601930 0 58.58920678 0 2800.61169498 0 215.07658790 0 -18.96622807 0 25452
0.15450000 0.15450400 9749.48095559 0 182.50402275 0 2779.97288152 0 289.97422191 0 154.55968938 0 26061
0.15550000 0.15549900 9795.14322314 0 140.11584165 0 2878.37263218 0 -49.27871028 0 -233.93497154 0 26128
0.15650000 0.15649500 9423.33455573 0 296.85788625 0 2698.38091993 0 -30.36175405 0 290.19234671 0 26331
0.15750000 0.15749700 9269.08599868 0 295.82040941 0 2790.55802404 0 10.21228199 0 242.78508076 0 27345
0.15850000 0.15849900 9181.95787468 0 111.32890435 0 2625.74646912 0 135.12886655 0 434.86666448 0 26980
0.15950000 0.15949700 9124.22677308 0 -24.63437260 0 2588.86455515 0 241.70663633 0 264.63852826 0 27777
0.16050000 0.16050000 8979.68864490 0 69.11688394 0 2608.17468963 0 155.69903160 0 456.28718408 0 28224
0.16150000 0.16150500 9081.22186348 0 82.10317083 0 2527.70103285 0 147.60626939 0 235.74418941 0 28075
0.16250000 0.16249700 8935.58757514 0 70.84317010 0 2718.46611715 0 251.21444165 0 571.32974618 0 28590
0.16350000 0.16349900 8888.66306256 0 123.98789332 0 2482.91347896 0 184.92332573 0 225.74698733 0 29163
0.16450000 0.16449100 8694.06695387 0 274.73538126 0 2673.34639351 0 -54.83026323 0 706.06886690 0 28996
0.16550000 0.16550500 8599.80825269 0 193.62949473 0 2611.59603800 0 -168.65918780 0 724.15993842 0 30777
0.16650000 0.16650700 8524.72681810 0 -44.89617340 0 2902.15598589 0 282.19812819 0 1178.42753045 0 29211
0.16750000 0.16749900 8563.36923172 0 -34.94569653 0 2755.11551230 0 200.95494483 0 1237.07763501 0 30922
0.16850000 0.16850800 8608.23429188 0 59.13817264 0 2740.81006863 0 356.16900860 0 1092.05011007 0 30867
0.16950000 0.16949900 8606.26341806 0 37.45734269 0 2652.90688190 0 116.80749067 0 1083.71043502 0 30852
0.17050000 0.17049200 8540.92562931 0 143.02232691 0 2764.29446957 0 -175.09220852 0 1338.41155175 0 31257
0.17150000 0.17149500 8393.92944502 0 274.99004473 0 2663.75776022 0 -420.15929543 0 953.30834393 0 32608
0.17250000 0.17250900 8319.82237500 0 197.31104273 0 2908.36756011 0 -101.72067305 0 964.70951680 0 32361
0.17350000 0.17350400 8054.68448490 0 54.34894927 0 2515.75399437 0 206.69040909 0 788.82342259 0 32508
0.17450000 0.17449800 8070.71721123 0 20.56717552 0 2501.58141860 0 211.97744419 0 156.88044866 0 32791
0.17550000 0.17549800 8063.89665915 0 17.55572462 0 2378.67861311 0 84.11778033 0 -79.67910675 0 33633
0.17650000 0.17650100 7958.77600732 0 109.50440667 0 2314.93523913 0 114.56423767 0 -271.34171370 0 33984
0.17750000 0.17750300 7894.61188499 0 84.03307704 0 2051.85680144 0 -38.12533605 0 -118.71968117 0 34069
