### header ###
fiducial parameters:
Omega_m = 0.31
Omega_nu = 0
Omega_de = 0.69
Omega_k = 0
H_0 = 100
w_de = -1
zeff = 0
beta = 0
fgrowth = 0
b_1 = 2
gamma = 0.55
Lx = 3500 Ly = 3500 Lz = 3500
nx = 700 ny = 700 nz = 700
xoffset = -685.467585 yoffset = -31.7331281 zoffset = 572.489161
bins = 400 dk = 0.001
kx_ny = 0.628318531 ky_ny = 0.628318531 kz_ny = 0.628318531
############################
A(data) = 8.06053528 (not used)
A(ran) = 8.05994135 (used)
Ngal = 479455
weighted Ngal = 0
Nran = 23820508
weighted Nran = 0
SN(data) = 3488.1181
SN(ran) = 70.2050122
SN(data+ran) = 3558.32311
############################
13 columns: k_central k_mean P_0(k) sigma^{lin}_{P_0(k)} P^img_1(k) sigma^{lin}_{P_1(k)} P_2(k) sigma^{lin}_{P_2(k)} P^img_3(k) sigma^{lin}_{P_3(k)} P_4(k) sigma^{lin}_{P_4(k)} N_modes
### header ###
0.00050000 0 0 0 0 0 0 0 0 0 0 0 0
0.00150000 0.00179520 60993.00849600 0 -30033.34890083 0 30180.83226742 0 -3294.18271842 0 -121156.69986307 0 3
0.00250000 0.00253879 84930.37824467 0 1177.71890166 0 -1895.29412851 0 39809.54737621 0 114695.99833139 0 6
0.00350000 0.00331552 87807.30040230 0 -11044.62186195 0 -6532.09588211 0 -33870.57378998 0 41624.30141399 0 7
0.00450000 0.00420575 69952.73373924 0 -9696.43344738 0 2566.75312248 0 1057.32508498 0 25716.13873080 0 24
0.00550000 0.00557378 104230.54763606 0 -10131.04434116 0 4737.84778990 0 21644.73417173 0 -12089.20712999 0 45
0.00650000 0.00659388 75515.24828164 0 11710.75506769 0 901.91061213 0 23765.08437450 0 33765.38670421 0 40
0.00750000 0.00754703 114815.57943943 0 -12620.23582829 0 1431.03154886 0 5257.48306596 0 43277.51023266 0 57
0.00850000 0.00846663 82126.64415410 0 -4544.59143251 0 7716.32531076 0 10901.08024300 0 47161.68177904 0 75
0.00950000 0.00948925 91027.46462931 0 13244.60422482 0 28820.37571695 0 18096.38623710 0 6939.18097639 0 112
0.01050000 0.01054430 91020.04617168 0 -6754.97070839 0 13712.52067165 0 20948.28494064 0 47842.85120188 0 105
0.01150000 0.01145670 92793.27899139 0 -7354.91355636 0 4588.77000854 0 8693.84550738 0 32872.51443083 0 144
0.01250000 0.01249090 101028.87419150 0 -3640.73541292 0 14944.53825422 0 5626.14719312 0 32355.54758505 0 169
0.01350000 0.01339930 92065.05218807 0 5344.40081579 0 16527.99142654 0 10545.90220747 0 14598.41738039 0 180
0.01450000 0.01448870 92357.91517952 0 10237.57117824 0 13978.25646730 0 -9406.67070688 0 12066.95175711 0 267
0.01550000 0.01550050 78846.57864982 0 11375.26362568 0 19265.95590769 0 2158.92618244 0 25886.76325625 0 238
0.01650000 0.01653350 76051.25952611 0 4715.81386351 0 18959.47395671 0 -5002.77530583 0 12161.39868781 0 315
0.01750000 0.01747870 71628.75154704 0 -1191.02783609 0 8419.36257512 0 15563.48121159 0 17212.70399332 0 297
0.01850000 0.01844180 76277.02422916 0 -8667.94733963 0 8034.59928768 0 19942.58567736 0 -2244.40453004 0 388
0.01950000 0.01947590 84341.55201082 0 -6499.31072832 0 875.00486282 0 3688.24675872 0 -6484.86134443 0 399
0.02050000 0.02045430 84388.16649831 0 1411.22315976 0 -6968.36762462 0 756.00283736 0 -9140.71346473 0 462
0.02150000 0.02154770 80848.56570028 0 6093.46573442 0 5846.85184373 0 -14907.99958232 0 1177.67461236 0 571
0.02250000 0.02255340 81189.26113495 0 3542.44638550 0 9251.99032916 0 -3531.59550718 0 13261.10198880 0 510
0.02350000 0.02348930 77604.59597491 0 -2654.86668339 0 12063.29788992 0 -5248.62520611 0 9836.81945376 0 555
0.02450000 0.02439640 83484.00045362 0 2912.01035498 0 18256.27060748 0 2566.42095274 0 18467.75201152 0 592
0.02550000 0.02547300 83872.41760825 0 502.38791569 0 22547.23936770 0 5481.13295497 0 12090.75725547 0 837
0.02650000 0.02652900 80265.82924508 0 4987.49549758 0 26235.65221129 0 1215.30944442 0 24651.31325299 0 723
0.02750000 0.02749970 79354.13401951 0 6411.34110764 0 30052.83619251 0 -4192.86796232 0 9433.15570784 0 826
0.02850000 0.02848090 72651.83436029 0 5071.15798391 0 29388.82887314 0 86.07414940 0 21540.10070219 0 831
0.02950000 0.02946900 66396.96734698 0 6413.25661983 0 34892.43864750 0 664.99939968 0 5176.35614202 0 996
0.03050000 0.03053250 62643.67067996 0 3501.27948183 0 28520.42643761 0 -451.88482773 0 4753.83622694 0 1041
0.03150000 0.03150510 60250.83056340 0 905.88779120 0 29389.38248938 0 3126.81345646 0 1851.70238570 0 1036
0.03250000 0.03246190 61171.16220233 0 148.73675375 0 26893.45902876 0 1681.94150158 0 -9328.59974458 0 1059
0.03350000 0.03345080 56504.95235401 0 2474.35457187 0 28641.77911763 0 6002.00833142 0 -1009.50925025 0 1302
0.03450000 0.03451200 59049.81549032 0 2947.44179440 0 25933.15629724 0 3361.48030867 0 -8669.04349978 0 1339
0.03550000 0.03553350 54636.49754086 0 -1183.89725891 0 22099.36382878 0 5218.49741028 0 -7467.90663113 0 1365
0.03650000 0.03647120 56371.97373293 0 587.30046750 0 27430.57750571 0 3448.75237289 0 -5710.29686175 0 1308
0.03750000 0.03744890 55364.39217444 0 814.58097182 0 24994.55532236 0 -1837.74018410 0 -1284.20144944 0 1579
0.03850000 0.03847530 54811.32954974 0 3649.70399602 0 22651.87283723 0 1370.25555793 0 -1218.69757581 0 1662
0.03950000 0.03950240 52090.19500231 0 813.08842243 0 23555.48526568 0 1394.33786441 0 1142.57534269 0 1683
0.04050000 0.04050350 50940.99840939 0 2184.91292879 0 22968.65205030 0 191.18693988 0 -265.51434915 0 1822
0.04150000 0.04152450 51221.90329004 0 1463.51774988 0 24346.38142748 0 -460.72940080 0 -7250.20258055 0 1887
0.04250000 0.04250150 48372.32977471 0 2458.75366620 0 25921.97324917 0 -1724.62531375 0 -2781.68909186 0 1920
0.04350000 0.04349210 46034.07621951 0 3298.74451624 0 27675.71877720 0 -274.24266281 0 -4750.42595089 0 2005
0.04450000 0.04448520 45237.31172556 0 1097.73907057 0 30222.90710173 0 347.85812159 0 -3129.48188674 0 2151
0.04550000 0.04548030 43550.22159294 0 909.47300998 0 29695.97516361 0 2672.82599425 0 -2298.49283678 0 2274
0.04650000 0.04648670 43308.84491189 0 -354.29446401 0 25483.39846311 0 7184.12294603 0 -2963.17556797 0 2311
0.04750000 0.04749250 41853.60926098 0 -1054.86038547 0 21646.17357396 0 5235.64844142 0 2392.75153796 0 2568
0.04850000 0.04851840 44907.46716921 0 360.34216783 0 19198.19327980 0 6699.29905920 0 -2753.86433959 0 2493
0.04950000 0.04949480 43462.86095012 0 1167.04518053 0 19788.34819264 0 3606.69908643 0 3457.46629252 0 2644
0.05050000 0.05050630 40169.39793282 0 3018.12751604 0 13618.18446420 0 3738.53725804 0 2985.05448181 0 2829
0.05150000 0.05149060 38583.28740254 0 1358.06492831 0 14558.77845754 0 1440.18836149 0 7790.13342801 0 2784
0.05250000 0.05249300 38724.68099048 0 -145.13824819 0 12169.14931518 0 1896.11348054 0 -318.04699425 0 3055
0.05350000 0.05348950 37328.23938435 0 568.78089700 0 14656.54708569 0 351.33593882 0 2406.33728051 0 3009
0.05450000 0.05448610 37406.18855107 0 1306.81113672 0 12534.53603420 0 -741.11831111 0 -135.13440271 0 3336
0.05550000 0.05550870 36327.85483699 0 639.82646920 0 12411.85467521 0 -21.71592922 0 2087.41003644 0 3349
0.05650000 0.05647670 36245.80891008 0 -346.80182181 0 11566.59339855 0 1521.64745518 0 -343.76246864 0 3324
0.05750000 0.05747970 36465.59455773 0 -289.20912426 0 12498.55097854 0 787.07288804 0 -3101.09244591 0 3639
0.05850000 0.05849280 36605.32729694 0 382.55546588 0 11595.49216633 0 -82.88686998 0 -4259.08046474 0 3846
0.05950000 0.05951020 34667.11683744 0 2461.51067508 0 11966.41504775 0 -1372.40358895 0 -4723.24339346 0 3787
0.06050000 0.06049470 33420.37306286 0 2124.81234967 0 13757.58503366 0 -776.72026433 0 -1210.55941707 0 3930
0.06150000 0.06148310 31807.91039952 0 2029.23604184 0 14077.13232793 0 1246.74377458 0 -1467.81381191 0 4083
0.06250000 0.06249100 30658.60308334 0 822.75124030 0 15129.55680194 0 968.28587772 0 661.31895891 0 4303
0.06350000 0.06350600 31007.04914539 0 -1003.16923706 0 14466.54599180 0 540.28073292 0 530.91576059 0 4470
0.06450000 0.06451750 31807.13533678 0 -747.89014497 0 14498.10211754 0 2784.92221071 0 1519.70979833 0 4479
0.06550000 0.06550280 32243.05276489 0 -633.84741380 0 12853.86188197 0 912.01743022 0 1672.51895316 0 4636
0.06650000 0.06648880 33107.91205648 0 437.67128436 0 12938.45444358 0 1022.61888283 0 3657.38818945 0 4653
0.06750000 0.06749660 31965.24813519 0 1199.60888783 0 12671.83286195 0 808.33618062 0 2202.83902267 0 5220
0.06850000 0.06852730 30846.38971227 0 938.33745355 0 12778.23790346 0 734.53470677 0 2248.22448210 0 5029
0.06950000 0.06949320 31108.80381047 0 892.97856769 0 13890.89582448 0 -332.65692685 0 3650.16903366 0 5040
0.07050000 0.07048030 29921.51842017 0 786.13063319 0 13752.82393399 0 669.24010008 0 3853.11367526 0 5475
0.07150000 0.07148790 29467.44237935 0 516.76865117 0 12884.08932872 0 1000.72225327 0 4859.46620571 0 5509
0.07250000 0.07249820 29406.65531610 0 -66.46572648 0 12326.59777410 0 858.87359279 0 3632.42009698 0 5916
0.07350000 0.07351270 29490.47281498 0 -250.68629175 0 11838.64041934 0 2321.85544215 0 3831.81052231 0 5721
0.07450000 0.07449140 29061.53095150 0 -330.69048196 0 10952.35617924 0 2350.18952136 0 2456.73850309 0 6028
0.07550000 0.07549160 28994.76483284 0 235.90141642 0 8380.29941316 0 1858.77760126 0 1172.70313852 0 6183
0.07650000 0.07648840 29250.75698265 0 -37.02884372 0 8112.16092303 0 1299.49233002 0 376.62623594 0 6330
0.07750000 0.07749960 28265.43079704 0 708.69079341 0 7392.80305189 0 208.70114327 0 818.20272926 0 6583
0.07850000 0.07848650 27789.09938334 0 1359.12787149 0 7348.75734376 0 -650.12483852 0 2103.13273768 0 6549
0.07950000 0.07947320 26187.26615183 0 1118.44874691 0 7761.25680488 0 -490.77415419 0 2014.31054798 0 6828
0.08050000 0.08048110 25834.05899011 0 239.48774243 0 7665.65835239 0 1096.91196790 0 1379.81097425 0 7147
0.08150000 0.08149960 25763.30683452 0 -223.79272200 0 8037.23450098 0 855.12561084 0 469.06021799 0 7386
0.08250000 0.08250610 25572.08778490 0 -34.53424894 0 7088.97845886 0 822.47886111 0 -413.06082799 0 7227
0.08350000 0.08350160 25738.39410368 0 532.28319270 0 8196.75348465 0 -395.43811581 0 -10.53868305 0 7798
0.08450000 0.08449610 24530.95708221 0 1728.58920604 0 6430.80625467 0 197.47048421 0 -472.89677854 0 7371
0.08550000 0.08548940 23119.23566783 0 1070.37381978 0 6526.73687690 0 1096.35613720 0 1233.43484015 0 8256
0.08650000 0.08650700 22934.32784336 0 441.37386978 0 5856.90551467 0 1415.88460851 0 522.34245948 0 8037
0.08750000 0.08749060 22130.69850802 0 16.81044643 0 5813.05910839 0 678.92395537 0 1628.84970407 0 8155
0.08850000 0.08849210 22016.87500889 0 677.52994968 0 6144.34306696 0 352.16857765 0 375.71609084 0 8718
0.08950000 0.08949900 21014.16527331 0 1371.16348857 0 6532.63842603 0 -890.12633682 0 2574.22694174 0 8571
0.09050000 0.09049190 20139.78378238 0 1281.65481473 0 7513.33637986 0 -1433.02456733 0 1884.48753948 0 8932
0.09150000 0.09150830 19503.12510531 0 666.96363010 0 8495.21907246 0 -805.30679255 0 2044.96981541 0 9285
0.09250000 0.09250820 19115.48301341 0 194.19750499 0 8022.32007945 0 801.14581288 0 2026.32402041 0 9204
0.09350000 0.09350330 18787.29930578 0 -146.59979506 0 7779.73651500 0 820.20460559 0 1682.62798572 0 9349
0.09450000 0.09448040 19315.67064613 0 -116.17083200 0 7292.01167906 0 961.85950039 0 1414.50056791 0 9564
0.09550000 0.09549270 18974.75376496 0 350.13569881 0 7099.14285305 0 519.28428337 0 933.54756583 0 10155
0.09650000 0.09649430 18577.81092021 0 299.68907970 0 6520.91283404 0 -279.40236617 0 403.03926679 0 9913
0.09750000 0.09749140 18198.80524167 0 452.66099770 0 6571.10368245 0 -252.46229265 0 9.92805541 0 10476
0.09850000 0.09850240 18312.85018730 0 230.89894007 0 6712.24260691 0 -811.28474072 0 -366.84383696 0 10575
0.09950000 0.09950330 18042.35329198 0 131.07196674 0 7086.93007877 0 -83.86898519 0 -627.13979943 0 10882
0.10050000 0.10051200 17832.97562966 0 141.72022152 0 7007.18719543 0 -183.56364424 0 -868.50319368 0 10875
0.10150000 0.10150300 17871.28587354 0 56.23157665 0 6859.91420302 0 673.74542905 0 -1052.01590523 0 11118
0.10250000 0.10250800 18018.21562388 0 117.45854337 0 6593.25940441 0 724.42567421 0 -1441.71634231 0 11575
0.10350000 0.10349800 17263.63668749 0 465.50710896 0 5688.96049182 0 1346.69365072 0 -670.61971176 0 11364
0.10450000 0.10450100 17047.06201404 0 340.93016796 0 5163.43473895 0 941.86177454 0 -1069.08943010 0 12093
0.10550000 0.10551000 16627.19945691 0 361.03529536 0 4991.96871681 0 901.81096120 0 -210.97761326 0 12067
0.10650000 0.10649700 16441.40584646 0 353.19387493 0 4982.15863702 0 -170.38979217 0 -909.99451648 0 12054
0.10750000 0.10749900 16107.68597642 0 327.13294400 0 4566.92431167 0 -101.59533433 0 431.08546556 0 12807
0.10850000 0.10850100 16026.19366576 0 275.14505728 0 5216.65940436 0 -106.28457461 0 728.72505794 0 12736
0.10950000 0.10950300 15593.81938159 0 286.62927258 0 4785.72452241 0 780.16486458 0 212.15792308 0 12933
0.11050000 0.11050200 15276.59727553 0 426.90012678 0 4866.17603455 0 805.88808960 0 615.51053667 0 13428
0.11150000 0.11150900 15132.21415990 0 355.24557671 0 4596.06667060 0 758.69784122 0 849.97697980 0 13453
0.11250000 0.11250000 14424.69260399 0 200.29724874 0 4295.59699199 0 152.91434191 0 703.21774325 0 13668
0.11350000 0.11349100 14385.27512763 0 422.53984526 0 4598.35864183 0 -68.16599268 0 161.22633615 0 13791
0.11450000 0.11448600 14114.00316958 0 306.10770640 0 4848.29422996 0 -794.34629821 0 901.09126009 0 14205
0.11550000 0.11549300 14102.26650527 0 124.32559923 0 4776.19125075 0 -612.91407650 0 310.82008784 0 14776
0.11650000 0.11649800 14070.48893304 0 -41.13722985 0 4943.83732082 0 -241.30581817 0 -45.73169103 0 14553
0.11750000 0.11747300 14062.84902891 0 182.48187810 0 4888.45355208 0 267.57269433 0 169.90925327 0 14568
0.11850000 0.11849100 13823.13319659 0 377.72461056 0 5305.49266638 0 -6.33363553 0 -295.72297295 0 16015
0.11950000 0.11950300 13688.27228030 0 321.19596343 0 5398.07944651 0 -42.69654535 0 81.72272574 0 15270
0.12050000 0.12050700 13313.47408519 0 68.81029126 0 4935.28948606 0 544.10732838 0 602.86926342 0 15999
0.12150000 0.12150000 13355.99181249 0 -16.10292488 0 4817.70139649 0 967.56285490 0 631.63737777 0 15670
0.12250000 0.12250700 13482.10559218 0 -155.99023374 0 4674.75768308 0 690.84663473 0 649.23351637 0 16887
0.12350000 0.12352200 13386.66215224 0 -104.65860371 0 4022.19914757 0 939.82335954 0 209.06652999 0 16407
0.12450000 0.12449800 13353.44517778 0 292.18315071 0 3671.79328403 0 100.34648681 0 546.38601283 0 16306
0.12550000 0.12549900 13148.16427565 0 345.46649943 0 3588.00900213 0 -268.58691929 0 320.64566889 0 17523
0.12650000 0.12650100 12846.99704058 0 203.65659209 0 3830.31575846 0 -79.77665393 0 -203.17051703 0 17154
0.12750000 0.12750600 12811.34415466 0 137.81169086 0 4076.54211778 0 -714.87690129 0 6.07074532 0 18007
0.12850000 0.12850300 12639.72311997 0 343.77464820 0 4093.44955778 0 -38.06388465 0 -612.95282964 0 17496
0.12950000 0.12949900 12416.72649813 0 159.12037997 0 4511.82842338 0 -228.50510344 0 61.19242107 0 18405
0.13050000 0.13049000 12416.83722137 0 157.44513722 0 4510.32258720 0 378.34687522 0 -40.85311399 0 18100
0.13150000 0.13148800 12402.44319911 0 -80.42715302 0 4433.90140130 0 266.15986569 0 199.58308379 0 19059
0.13250000 0.13249300 12424.47712550 0 -123.14639663 0 4201.50437568 0 673.86943909 0 225.85106719 0 18957
0.13350000 0.13349100 12389.82074882 0 51.97814308 0 4026.58378820 0 427.21458080 0 212.71928995 0 19468
0.13450000 0.13450700 12603.40589457 0 68.38611050 0 3870.10969386 0 314.27797488 0 32.00688008 0 19953
0.13550000 0.13551000 12427.02376021 0 93.70962459 0 3819.69739896 0 -310.53220740 0 5.66598542 0 19956
0.13650000 0.13649900 12206.46304982 0 276.70625508 0 3812.23465203 0 -114.47233737 0 -213.35151970 0 19723
0.13750000 0.13749600 12037.16720334 0 445.51381203 0 3920.95380943 0 -76.54995704 0 399.08201790 0 20946
0.13850000 0.13851100 11627.60190830 0 270.85896034 0 3460.52225417 0 445.59242554 0 211.83018227 0 20955
0.13950000 0.13949800 11480.22926497 0 99.32849727 0 3534.87291533 0 226.54308749 0 295.02320203 0 20506
0.14050000 0.14048300 11418.00279948 0 245.14237872 0 3472.87896867 0 325.47984590 0 278.82106912 0 21447
0.14150000 0.14148400 11345.92196492 0 103.10272063 0 3390.97698198 0 476.11550336 0 645.88967427 0 21771
0.14250000 0.14249400 11193.23460567 0 -40.18811016 0 3048.98608531 0 106.39640509 0 755.60534090 0 22470
0.14350000 0.14350900 11279.93090900 0 -5.16436481 0 3280.55268657 0 94.39511222 0 274.98561580 0 22519
0.14450000 0.14449900 11220.69397122 0 177.20037917 0 3415.98936375 0 -304.71591517 0 463.92708820 0 22218
0.14550000 0.14550500 10971.37843327 0 466.53683516 0 3307.13733846 0 -120.99504392 0 222.14073114 0 23559
0.14650000 0.14650700 10598.81684778 0 288.27240558 0 3519.07270781 0 61.82930119 0 640.87944729 0 23044
0.14750000 0.14750500 10477.98456703 0 96.80799325 0 3257.02399633 0 369.63406282 0 424.70005584 0 23649
0.14850000 0.14849900 10422.01396507 0 54.99557303 0 2948.70403943 0 442.87527703 0 730.61178209 0 23640
0.14950000 0.14949500 10288.24920894 0 -71.28595237 0 2848.64344004 0 785.36221385 0 660.43206569 0 24457
0.15050000 0.15050000 10328.64104988 0 101.75510798 0 2598.57498401 0 507.03054149 0 699.96801592 0 24591
0.15150000 0.15149900 10190.33664057 0 272.57406346 0 2304.35009661 0 355.93316809 0 737.30500244 0 25020
0.15250000 0.15250500 9916.89450685 0 157.17718696 0 2213.28022497 0 -215.35671772 0 899.52895506 0 25297
0.15350000 0.15350100 9870.08071751 0 132.77378306 0 2442.69879522 0 160.12685429 0 1152.70651989 0 25452
0.15450000 0.15450400 9709.81988809 0 10.37383828 0 2424.37409764 0 -158.82253443 0 903.10088704 0 26061
0.15550000 0.15549900 9785.35528800 0 134.72029777 0 2577.40469896 0 125.16377421 0 951.98187942 0 26128
0.15650000 0.15649500 9605.88397502 0 216.10963581 0 2608.36291915 0 -212.79126006 0 578.03846778 0 26331
0.15750000 0.15749700 9567.34121232 0 212.43362397 0 2568.84579187 0 -67.15652883 0 889.65687025 0 27345
0.15850000 0.15849900 9357.14419796 0 65.11700660 0 2686.03527776 0 -246.60503283 0 188.00586096 0 26980
0.15950000 0.15949700 9294.93987713 0 138.74398061 0 2973.78285514 0 -238.49123320 0 348.98306980 0 27777
0.16050000 0.16050000 9235.93545817 0 190.02766747 0 2952.18074942 0 19.94812184 0 157.53814475 0 28224
0.16150000 0.16150500 9079.01847084 0 130.54381684 0 2827.43993801 0 56.40009744 0 205.78801461 0 28075
0.16250000 0.16249700 8958.77302331 0 87.50513666 0 2777.01657079 0 343.28192975 0 235.72758092 0 28590
0.16350000 0.16349900 8966.75616951 0 55.73166119 0 2525.34262766 0 388.98627213 0 -45.95324825 0 29163
0.16450000 0.16449100 8804.26980279 0 187.89181601 0 2354.95062103 0 318.43341839 0 366.48952257 0 28996
0.16550000 0.16550500 8782.99986682 0 167.95388071 0 2214.12172166 0 -46.17059798 0 240.72009218 0 30777
0.16650000 0.16650700 8547.98977254 0 194.84412876 0 2186.27482474 0 -45.45731882 0 683.71052139 0 29211
0.16750000 0.16749900 8441.19719967 0 140.57645036 0 2107.26271484 0 -126.73493711 0 280.68897032 0 30922
0.16850000 0.16850800 8380.26619619 0 30.27350763 0 2388.92051357 0 14.78155363 0 640.72222028 0 30867
0.16950000 0.16949900 8332.76592272 0 140.34836047 0 2475.91576967 0 -26.24927117 0 476.67465577 0 30852
0.17050000 0.17049200 8262.31271990 0 145.15928560 0 2530.77913915 0 92.98549455 0 549.10205410 0 31257
0.17150000 0.17149500 8151.35695289 0 73.98195274 0 2574.10514616 0 120.60972702 0 488.95829292 0 32608
0.17250000 0.17250900 8096.19463064 0 92.06427713 0 2538.03151190 0 163.07098546 0 658.88858361 0 32361
0.17350000 0.17350400 8078.23531979 0 -46.47940512 0 2538.19759678 0 239.18214627 0 405.23269434 0 32508
0.17450000 0.17449800 8104.85318865 0 -37.79371992 0 2317.92476683 0 63.74747074 0 191.47039139 0 32791
0.17550000 0.17549800 8094.64450517 0 19.87360509 0 2186.41876496 0 59.38098873 0 132.52908468 0 33633
0.17650000 0.17650100 8132.83295347 0 48.59034385 0 2132.31938590 0 -77.32557339 0 -152.63531932 0 33984
0.17750000 0.17750300 8014.49194581 0 80.31499037 0 1964.24149515 0 -81.66238157 0 185.72274758 0 34069
0.17850000 0.17849800 8144.79106427 0 119.18139712 0 1893.72185838 0 4.14803612 0 9.57186979 0 34536
