### header ###
fiducial parameters:
Omega_m = 0.31
Omega_nu = 0
Omega_de = 0.69
Omega_k = 0
H_0 = 100
w_de = -1
zeff = 0
beta = 0
fgrowth = 0
b_1 = 2
gamma = 0.55
Lx = 3500 Ly = 3500 Lz = 3500
nx = 700 ny = 700 nz = 700
xoffset = -685.467585 yoffset = -31.7331281 zoffset = 572.489161
bins = 400 dk = 0.001
kx_ny = 0.628318531 ky_ny = 0.628318531 kz_ny = 0.628318531
############################
A(data) = 8.05304412 (not used)
A(ran) = 8.04527065 (used)
Ngal = 478116
weighted Ngal = 0
Nran = 23820508
weighted Nran = 0
SN(data) = 3498.85413
SN(ran) = 70.0772251
SN(data+ran) = 3568.93136
############################
13 columns: k_central k_mean P_0(k) sigma^{lin}_{P_0(k)} P^img_1(k) sigma^{lin}_{P_1(k)} P_2(k) sigma^{lin}_{P_2(k)} P^img_3(k) sigma^{lin}_{P_3(k)} P_4(k) sigma^{lin}_{P_4(k)} N_modes
### header ###
0.00050000 0 0 0 0 0 0 0 0 0 0 0 0
0.00150000 0.00179520 12414.29058667 0 -10266.31493347 0 13293.87607026 0 33796.49993695 0 34906.94339301 0 3
0.00250000 0.00253879 51575.33189825 0 -51571.78875431 0 -4150.52739222 0 -76219.66958660 0 -26822.04253368 0 6
0.00350000 0.00331552 62404.06557088 0 -36059.90457637 0 -17410.45571458 0 -2987.82256301 0 -84733.29086290 0 7
0.00450000 0.00420575 95769.85207238 0 -11916.81103256 0 13033.23354403 0 -34280.69270127 0 33657.21009073 0 24
0.00550000 0.00557378 88794.61960638 0 15432.38488573 0 36842.16432481 0 -19919.55524174 0 44782.90351500 0 45
0.00650000 0.00659388 88155.30357135 0 25756.77416288 0 63942.23293469 0 15797.99305124 0 15529.15700465 0 40
0.00750000 0.00754703 73744.67281989 0 -1078.95819321 0 40782.02966503 0 39905.65515564 0 -6819.32306023 0 57
0.00850000 0.00846663 79940.52434190 0 -5596.56194121 0 43252.04388557 0 38404.69080322 0 -17942.25947562 0 75
0.00950000 0.00948925 82379.31460646 0 4567.56650651 0 31816.10391988 0 -3646.59267275 0 -3691.51309454 0 112
0.01050000 0.01054430 75419.36194871 0 9416.53614829 0 47875.40383685 0 1570.71999877 0 9220.42313110 0 105
0.01150000 0.01145670 77972.19715889 0 5610.11446679 0 37356.03091965 0 12013.58315148 0 33957.04864682 0 144
0.01250000 0.01249090 76671.97405544 0 -7776.66948103 0 43795.69503417 0 22007.13136305 0 13538.13155576 0 169
0.01350000 0.01339930 86497.55509951 0 -7262.95789874 0 44842.69406902 0 28916.59421962 0 22411.38194217 0 180
0.01450000 0.01448870 90542.16463251 0 -4411.63495609 0 32650.73576471 0 27261.50310573 0 14444.51206541 0 267
0.01550000 0.01550050 96410.38606314 0 3332.93585528 0 40947.11802808 0 -1856.50777467 0 17590.27026964 0 238
0.01650000 0.01653350 86163.39233648 0 10829.81876047 0 34871.84412333 0 -6752.04761463 0 24336.85922814 0 315
0.01750000 0.01747870 86036.39277081 0 7429.44137471 0 48014.02934358 0 -7972.35067755 0 19061.89296129 0 297
0.01850000 0.01844180 71016.23053807 0 11340.82869550 0 36098.32554350 0 -6444.95668579 0 19040.85554413 0 388
0.01950000 0.01947590 67783.88675377 0 3066.75716664 0 42461.47989352 0 20203.22820359 0 9960.90699800 0 399
0.02050000 0.02045430 63653.24525692 0 2056.13071882 0 36260.31365559 0 12163.94532252 0 5894.25246628 0 462
0.02150000 0.02154770 62600.59933641 0 3517.00218307 0 28999.19376277 0 -347.26353775 0 -6788.59735886 0 571
0.02250000 0.02255340 63078.70232208 0 4246.64624397 0 29476.07879271 0 6866.82333370 0 9319.06647291 0 510
0.02350000 0.02348930 60816.73708488 0 -939.21991783 0 29763.18417526 0 -7525.19483974 0 8608.73254650 0 555
0.02450000 0.02439640 57774.06222472 0 3094.77014844 0 30820.36974894 0 6392.68424032 0 13201.86505102 0 592
0.02550000 0.02547300 61252.98668274 0 173.16783847 0 31738.48692291 0 9716.97260992 0 2711.94451783 0 837
0.02650000 0.02652900 54645.24467747 0 2378.73397474 0 30301.07771495 0 8435.46173541 0 7444.18971137 0 723
0.02750000 0.02749970 57376.78721023 0 1750.20238408 0 23847.57319440 0 7171.29012157 0 5269.75120186 0 826
0.02850000 0.02848090 53640.98481641 0 28.18205619 0 23591.47032135 0 5610.51307048 0 8788.70211410 0 831
0.02950000 0.02946900 55276.36719213 0 -700.53602618 0 17651.50022589 0 9849.78514612 0 2902.34421541 0 996
0.03050000 0.03053250 54320.49339053 0 -2174.78175158 0 12841.90377116 0 5374.16322490 0 -45.88039235 0 1041
0.03150000 0.03150510 56579.13693029 0 -1062.75273860 0 6908.08988830 0 -1609.86066701 0 -7472.20269316 0 1036
0.03250000 0.03246190 56718.53749976 0 2525.05474722 0 9034.77346087 0 -9566.99797025 0 -7897.87822082 0 1059
0.03350000 0.03345080 54282.07242341 0 2279.49272739 0 10779.96008181 0 -7991.06290649 0 -7035.65414254 0 1302
0.03450000 0.03451200 54201.13372899 0 2291.22939170 0 19649.94413240 0 -9242.65635934 0 -13278.70698526 0 1339
0.03550000 0.03553350 54150.09031158 0 -864.04879741 0 19927.30586911 0 -4848.64854436 0 -12655.00292822 0 1365
0.03650000 0.03647120 55689.25418462 0 1360.84408184 0 25538.64936395 0 -2289.32495183 0 -14966.79362711 0 1308
0.03750000 0.03744890 56497.64461962 0 1305.80355516 0 26059.15935368 0 931.71288161 0 -7211.11727394 0 1579
0.03850000 0.03847530 55271.60609246 0 586.67598838 0 28996.75785131 0 5196.45241156 0 380.21920534 0 1662
0.03950000 0.03950240 54271.00009859 0 -460.29868736 0 21704.30327926 0 13348.68407811 0 -5051.52675201 0 1683
0.04050000 0.04050350 54317.39313959 0 -1092.24719746 0 17742.40401265 0 11990.99560885 0 -2785.64191182 0 1822
0.04150000 0.04152450 50389.59663342 0 2477.90878814 0 13443.24173206 0 4169.09568094 0 -3508.43220366 0 1887
0.04250000 0.04250150 50995.14207775 0 1944.82063742 0 9395.75339461 0 4324.75042324 0 -4823.24863122 0 1920
0.04350000 0.04349210 46580.27400281 0 1875.68504125 0 7628.34461776 0 -2232.21390041 0 -295.95659901 0 2005
0.04450000 0.04448520 46039.50165867 0 3656.08165512 0 11060.51064806 0 -2896.78590835 0 -2417.52032858 0 2151
0.04550000 0.04548030 43091.27372921 0 3038.33450884 0 12650.57399830 0 -3556.75182917 0 -2154.96229015 0 2274
0.04650000 0.04648670 40539.65647475 0 2965.03571854 0 12813.66934287 0 -1045.16656509 0 -1376.62214470 0 2311
0.04750000 0.04749250 40384.09031105 0 -333.06217394 0 14393.91154099 0 -926.51996127 0 -1786.76320063 0 2568
0.04850000 0.04851840 40575.86297691 0 -742.14471562 0 18158.16980959 0 1458.29161256 0 -3204.30865787 0 2493
0.04950000 0.04949480 40928.62724563 0 669.83246946 0 17530.92260861 0 -1481.32204819 0 -4413.07435832 0 2644
0.05050000 0.05050630 38097.32306625 0 3303.89314729 0 14379.51751873 0 1672.10927714 0 -2803.73409058 0 2829
0.05150000 0.05149060 36999.94495348 0 8.44276947 0 11127.57571949 0 4305.24098691 0 -2046.68602575 0 2784
0.05250000 0.05249300 37158.94353787 0 -1207.16021335 0 12247.76282139 0 5893.66563307 0 192.37610756 0 3055
0.05350000 0.05348950 37669.48843526 0 -305.57844927 0 10390.24746517 0 6125.21008968 0 -469.44885659 0 3009
0.05450000 0.05448610 37807.89249549 0 1030.08273699 0 10423.73017542 0 -718.88729734 0 1028.81384857 0 3336
0.05550000 0.05550870 35735.81762893 0 1954.01066702 0 10035.36838241 0 -1045.31493425 0 5495.31660307 0 3349
0.05650000 0.05647670 35434.20750087 0 1054.15840008 0 12203.36279887 0 96.59462955 0 6104.26125112 0 3324
0.05750000 0.05747970 34906.27905352 0 156.25043338 0 14050.11585537 0 -753.14839202 0 7152.77719447 0 3639
0.05850000 0.05849280 35495.99107336 0 285.56079324 0 15292.43070003 0 149.01134741 0 4957.64450987 0 3846
0.05950000 0.05951020 34045.29507562 0 570.81599031 0 13830.55165422 0 -430.65585936 0 3762.23203315 0 3787
0.06050000 0.06049470 34170.85523907 0 414.39504313 0 12065.84452462 0 1979.60988200 0 4994.29390502 0 3930
0.06150000 0.06148310 33707.03555241 0 347.48055532 0 11828.56460376 0 1920.68296932 0 -64.20365052 0 4083
0.06250000 0.06249100 33269.12510583 0 64.22468794 0 10620.31930257 0 408.59093046 0 -1075.38736845 0 4303
0.06350000 0.06350600 32478.89328353 0 1464.01600450 0 9595.95209965 0 861.43794322 0 -707.81386529 0 4470
0.06450000 0.06451750 31940.33540435 0 477.30688551 0 10002.27320352 0 -1499.60245646 0 -496.10104966 0 4479
0.06550000 0.06550280 31848.65655485 0 -15.54133656 0 11439.92600263 0 430.96256275 0 -977.37182746 0 4636
0.06650000 0.06648880 32070.76739071 0 -194.56953511 0 12286.62668151 0 -442.05260329 0 -3074.71816819 0 4653
0.06750000 0.06749660 31617.24496614 0 1408.39971693 0 12510.17691960 0 -10.25240809 0 209.56921354 0 5220
0.06850000 0.06852730 30593.05492042 0 1467.40413589 0 11281.03814148 0 1307.91836920 0 1738.31070723 0 5029
0.06950000 0.06949320 30210.83826768 0 120.11036517 0 11759.25185040 0 3554.17197749 0 1676.81501519 0 5040
0.07050000 0.07048030 29349.96501303 0 303.07942556 0 9762.45772028 0 3588.41867815 0 1884.05571882 0 5475
0.07150000 0.07148790 29236.03079064 0 500.42036357 0 9088.10884952 0 3258.92843620 0 4058.64924087 0 5509
0.07250000 0.07249820 28541.68530127 0 701.68422627 0 6974.66777744 0 1259.94198576 0 3139.32518351 0 5916
0.07350000 0.07351270 28242.95397766 0 123.33573339 0 5966.87584477 0 -175.33801413 0 5260.17364089 0 5721
0.07450000 0.07449140 27369.56899596 0 562.66675924 0 7396.23547258 0 -133.16463613 0 4557.50176325 0 6028
0.07550000 0.07549160 27721.77964844 0 950.70745483 0 6991.76344696 0 -964.55007532 0 3398.21828242 0 6183
0.07650000 0.07648840 25910.79020111 0 733.93901570 0 7820.85912938 0 -881.34044708 0 4681.95469421 0 6330
0.07750000 0.07749960 26021.95634229 0 336.94080932 0 7896.63812044 0 998.36827702 0 3161.72449661 0 6583
0.07850000 0.07848650 26037.34687378 0 -244.93200455 0 7397.34270506 0 922.37891178 0 4339.31053038 0 6549
0.07950000 0.07947320 25960.50493954 0 -207.84303810 0 6110.47282534 0 1695.97013712 0 975.80398627 0 6828
0.08050000 0.08048110 25570.42693618 0 502.94817533 0 6363.87405114 0 617.00862222 0 1964.04219331 0 7147
0.08150000 0.08149960 25610.73019852 0 536.99889584 0 5504.40698174 0 -652.58621632 0 665.31385370 0 7386
0.08250000 0.08250610 24825.70236888 0 142.64918957 0 5993.85910035 0 -17.27205165 0 411.58267262 0 7227
0.08350000 0.08350160 25090.33093205 0 480.52228864 0 5508.16049986 0 -856.00143173 0 157.56471833 0 7798
0.08450000 0.08449610 24110.43018560 0 715.36629805 0 5559.90147373 0 -975.58586147 0 -140.31957243 0 7371
0.08550000 0.08548940 23832.84700239 0 1320.87298924 0 6927.03463607 0 -911.42173914 0 410.49426309 0 8256
0.08650000 0.08650700 22795.81305988 0 890.23484560 0 7518.39643231 0 -547.29283623 0 -653.60487021 0 8037
0.08750000 0.08749060 21817.24099241 0 735.96857284 0 7753.24044171 0 36.38377008 0 418.81400796 0 8155
0.08850000 0.08849210 21611.51719727 0 652.93278009 0 8646.52239110 0 280.97242183 0 -408.06610226 0 8718
0.08950000 0.08949900 21170.94939274 0 562.12532256 0 9328.75475713 0 354.98205538 0 -149.81519819 0 8571
0.09050000 0.09049190 20490.11213964 0 535.43437635 0 8937.01590505 0 270.63419215 0 992.77564575 0 8932
0.09150000 0.09150830 20085.97228376 0 553.73139311 0 8469.01087961 0 772.38434193 0 1624.46506344 0 9285
0.09250000 0.09250820 19685.92918806 0 227.79093849 0 8608.13464096 0 1799.51851883 0 2299.25682719 0 9204
0.09350000 0.09350330 19564.46578480 0 -295.89570122 0 7196.78968562 0 1925.23369482 0 1656.19834637 0 9349
0.09450000 0.09448040 19434.80886118 0 220.62603710 0 7536.62147896 0 1625.18476456 0 2566.90813503 0 9564
0.09550000 0.09549270 19253.66562714 0 788.92307351 0 7187.71037927 0 186.78236906 0 2278.15297609 0 10155
0.09650000 0.09649430 18260.03519792 0 856.97911801 0 6951.52661857 0 -471.22707196 0 3301.52366977 0 9913
0.09750000 0.09749140 17822.45692109 0 571.03522234 0 7004.49662050 0 -270.08168314 0 3636.72723133 0 10476
0.09850000 0.09850240 17886.34423529 0 42.92231005 0 7205.19358016 0 -91.37037453 0 3775.71812478 0 10575
0.09950000 0.09950330 17457.07020207 0 2.62937819 0 7151.80282989 0 1134.86900461 0 2991.63144275 0 10882
0.10050000 0.10051200 17780.49281002 0 2.33182053 0 6893.33047932 0 686.78973492 0 3277.95069024 0 10875
0.10150000 0.10150300 17975.36572683 0 -169.48739770 0 6802.59277743 0 660.44424525 0 2735.27390622 0 11118
0.10250000 0.10250800 17470.24626860 0 421.08272732 0 6028.13901799 0 223.93887669 0 1494.85242912 0 11575
0.10350000 0.10349800 17175.16881219 0 777.12218972 0 6223.89772078 0 -151.97651600 0 2266.96992802 0 11364
0.10450000 0.10450100 16655.87677819 0 202.25926469 0 6259.37344950 0 -263.03857732 0 2288.41702119 0 12093
0.10550000 0.10551000 16443.84175792 0 314.76515718 0 6658.55290386 0 -158.27888328 0 1077.54536456 0 12067
0.10650000 0.10649700 16372.42526284 0 30.22523229 0 6367.41719508 0 3.06609283 0 1659.84114124 0 12054
0.10750000 0.10749900 16563.86575895 0 -54.21408835 0 6470.12408010 0 -6.15510537 0 1132.22271898 0 12807
0.10850000 0.10850100 16244.42918793 0 271.36164389 0 6222.70190970 0 -101.63563759 0 1129.80895217 0 12736
0.10950000 0.10950300 16257.93742421 0 589.37763563 0 6420.80794536 0 246.92502301 0 1011.41922628 0 12933
0.11050000 0.11050200 15761.23293285 0 427.13707453 0 6448.21194928 0 -22.78750882 0 1631.60671295 0 13428
0.11150000 0.11150900 15555.28769122 0 301.45843721 0 6017.98569613 0 357.24856027 0 1408.82046527 0 13453
0.11250000 0.11250000 15271.28255962 0 51.81848015 0 6560.35245505 0 730.72361257 0 1470.80333961 0 13668
0.11350000 0.11349100 15136.08947359 0 151.72185252 0 5908.63541622 0 815.49997478 0 469.33038272 0 13791
0.11450000 0.11448600 15007.42905919 0 176.81284780 0 5369.44641453 0 160.48781208 0 438.05549403 0 14205
0.11550000 0.11549300 14619.45479755 0 43.83489106 0 5081.05664230 0 84.21554895 0 762.98947432 0 14776
0.11650000 0.11649800 14759.74115300 0 -82.80017367 0 5154.25578168 0 502.73337223 0 620.91493841 0 14553
0.11750000 0.11747300 14835.69730126 0 -52.59077481 0 4896.76886802 0 323.13915644 0 482.04030437 0 14568
0.11850000 0.11849100 14829.38607611 0 147.68820459 0 4792.84402727 0 -18.20655587 0 -94.40197706 0 16015
0.11950000 0.11950300 14623.10866474 0 346.99669472 0 4806.16403403 0 145.86016377 0 586.56969406 0 15270
0.12050000 0.12050700 14471.63926122 0 256.57123240 0 4997.72632572 0 482.12556128 0 125.36086160 0 15999
0.12150000 0.12150000 14226.27654324 0 298.01383696 0 4190.77529293 0 -83.34238542 0 -156.87269803 0 15670
0.12250000 0.12250700 13771.86833268 0 382.88985009 0 4661.84735234 0 -146.67619411 0 -347.69092949 0 16887
0.12350000 0.12352200 13658.26628004 0 367.46942331 0 4570.41209399 0 -107.45757670 0 -520.19996463 0 16407
0.12450000 0.12449800 13306.38779730 0 63.80128224 0 4370.64520961 0 137.41087270 0 -795.02503172 0 16306
0.12550000 0.12549900 13351.45215932 0 -62.55642076 0 4105.21943906 0 655.71857701 0 -990.37516573 0 17523
0.12650000 0.12650100 13233.97479299 0 -108.83508464 0 3756.77337702 0 610.18696290 0 -818.50278927 0 17154
0.12750000 0.12750600 13398.95243279 0 101.99714900 0 3728.35071921 0 658.28846361 0 -430.46098644 0 18007
0.12850000 0.12850300 13225.89199587 0 246.17431939 0 3580.61268915 0 -9.66137847 0 -246.56627969 0 17496
0.12950000 0.12949900 13268.74189292 0 175.36237325 0 3754.25995928 0 -175.58603421 0 93.55239758 0 18405
0.13050000 0.13049000 12965.24946964 0 250.81473072 0 3889.76307041 0 -183.94231775 0 493.90651488 0 18100
0.13150000 0.13148800 12984.29386833 0 167.95941687 0 4078.86730599 0 -385.15524775 0 294.85047376 0 19059
0.13250000 0.13249300 12746.23888473 0 85.42132513 0 4243.81172882 0 41.38414269 0 1044.59301867 0 18957
0.13350000 0.13349100 12608.38844074 0 233.20309087 0 4054.95108438 0 538.83579453 0 561.73336226 0 19468
0.13450000 0.13450700 12440.08910349 0 264.41929623 0 4184.04331944 0 560.95608505 0 301.90243744 0 19953
0.13550000 0.13551000 12088.76423700 0 357.34710396 0 3848.58509441 0 357.90293467 0 -138.57235957 0 19956
0.13650000 0.13649900 11744.85782813 0 325.47652421 0 3625.41131537 0 -91.72258518 0 124.75188373 0 19723
0.13750000 0.13749600 11452.21628317 0 379.45078600 0 3551.52569185 0 -267.70888393 0 315.92332235 0 20946
0.13850000 0.13851100 11431.28958927 0 77.22182571 0 3450.86718693 0 142.00699473 0 248.64676952 0 20955
0.13950000 0.13949800 11235.86305622 0 -149.52842498 0 3657.23317690 0 339.15527429 0 97.13639840 0 20506
0.14050000 0.14048300 11250.36780173 0 259.47771766 0 3323.17006479 0 488.22309055 0 -68.05227991 0 21447
0.14150000 0.14148400 11191.13086395 0 118.67428464 0 3475.18201223 0 235.18282254 0 524.15832075 0 21771
0.14250000 0.14249400 11031.35721682 0 113.03072068 0 3194.89718177 0 380.84700616 0 771.69675056 0 22470
0.14350000 0.14350900 11168.98621431 0 -87.12325218 0 3015.55873668 0 346.38218070 0 1279.99396601 0 22519
0.14450000 0.14449900 10950.94999398 0 -39.75861468 0 2853.36025041 0 629.45612978 0 907.79776723 0 22218
0.14550000 0.14550500 11112.29591124 0 115.93609871 0 2981.31203602 0 317.94623610 0 631.81121327 0 23559
0.14650000 0.14650700 10759.38770230 0 302.23349995 0 2567.05207525 0 -100.83466561 0 667.63572022 0 23044
0.14750000 0.14750500 10490.11983503 0 562.43645488 0 2580.77068570 0 -64.75505230 0 500.42147081 0 23649
0.14850000 0.14849900 10145.56015900 0 242.15174378 0 2489.92226057 0 -368.30206214 0 708.79487327 0 23640
0.14950000 0.14949500 10044.87950942 0 -90.99756935 0 2471.65292462 0 -34.44090924 0 439.71191383 0 24457
0.15050000 0.15050000 10139.26000618 0 -95.21136401 0 2366.35511559 0 217.49921258 0 -79.19114940 0 24591
0.15150000 0.15149900 10229.46623648 0 98.33619552 0 2653.38299187 0 -88.52013667 0 -517.95449716 0 25020
0.15250000 0.15250500 9814.24298345 0 445.87587705 0 2495.69094180 0 -149.88827553 0 -45.52120613 0 25297
0.15350000 0.15350100 9727.84563289 0 366.02227046 0 2466.39357033 0 -44.50476672 0 51.87605624 0 25452
0.15450000 0.15450400 9509.02327750 0 -130.79072969 0 2243.36373151 0 452.73075335 0 241.58151906 0 26061
0.15550000 0.15549900 9648.35741302 0 -190.55803183 0 2253.37311314 0 501.55749133 0 -398.68230698 0 26128
0.15650000 0.15649500 9673.09298666 0 89.89764460 0 2173.40878330 0 98.34162096 0 -171.51252591 0 26331
0.15750000 0.15749700 9553.66689117 0 195.78859807 0 2147.28916905 0 -83.90131638 0 -224.73497684 0 27345
0.15850000 0.15849900 9314.20572232 0 282.88571956 0 2194.15832001 0 -293.49522120 0 111.90466524 0 26980
0.15950000 0.15949700 9278.59712570 0 238.59088412 0 2450.99196651 0 110.67309056 0 151.77389245 0 27777
0.16050000 0.16050000 9124.17141146 0 96.77732291 0 2510.73823123 0 9.31170338 0 492.55458402 0 28224
0.16150000 0.16150500 9105.73599063 0 118.00883792 0 2685.61452941 0 -39.62475027 0 212.25646677 0 28075
0.16250000 0.16249700 9058.25786181 0 134.73247732 0 3024.70447698 0 -207.94601072 0 533.26198622 0 28590
0.16350000 0.16349900 8909.62297344 0 333.50285247 0 2779.39712063 0 -249.25906908 0 347.39862011 0 29163
0.16450000 0.16449100 8587.17473008 0 271.39707533 0 3076.55617411 0 -42.47919561 0 856.52625993 0 28996
0.16550000 0.16550500 8475.99751657 0 139.31863426 0 2849.51815370 0 274.92139632 0 850.07330902 0 30777
0.16650000 0.16650700 8499.72550866 0 -52.28008537 0 2854.51177220 0 516.40769338 0 646.40232291 0 29211
0.16750000 0.16749900 8395.19169005 0 -10.99289196 0 2627.48482411 0 244.42489207 0 262.47942492 0 30922
0.16850000 0.16850800 8504.80770575 0 60.71819339 0 2568.58005608 0 65.31298675 0 332.87615888 0 30867
0.16950000 0.16949900 8340.90408146 0 108.99950866 0 2514.83499141 0 -209.58360756 0 300.30137927 0 30852
0.17050000 0.17049200 8216.27399330 0 172.99621743 0 2469.12843456 0 -54.77778041 0 475.40908904 0 31257
0.17150000 0.17149500 8237.90931600 0 85.16333996 0 2440.89400627 0 154.29838251 0 224.59103662 0 32608
0.17250000 0.17250900 8175.47247634 0 -30.03567409 0 2335.99480094 0 115.54081672 0 -46.31365242 0 32361
0.17350000 0.17350400 8088.73188371 0 159.35622049 0 2242.62188574 0 196.10526656 0 -19.10695732 0 32508
0.17450000 0.17449800 8016.31887940 0 170.38868494 0 2274.18908380 0 -152.64196272 0 -225.38602954 0 32791
0.17550000 0.17549800 7940.08592302 0 83.19246614 0 2333.08277951 0 -68.94670231 0 -114.19885095 0 33633
0.17650000 0.17650100 7859.98872529 0 32.18237642 0 2260.61441357 0 43.72272841 0 -127.23429896 0 33984
0.17750000 0.17750300 7955.67575637 0 -52.33666495 0 2201.17817395 0 196.95894280 0 -145.23125572 0 34069
0.17850000 0.17849800 7959.22997264 0 -114.39372386 0 2291.58370609 0 191.63094010 0 -177.10515717 0 34536
