### header ###
fiducial parameters:
Omega_m = 0.31
Omega_nu = 0
Omega_de = 0.69
Omega_k = 0
H_0 = 100
w_de = -1
zeff = 0
beta = 0
fgrowth = 0
b_1 = 2
gamma = 0.55
Lx = 3500 Ly = 3500 Lz = 3500
nx = 700 ny = 700 nz = 700
xoffset = -685.467585 yoffset = -31.7331281 zoffset = 572.489161
bins = 400 dk = 0.001
kx_ny = 0.628318531 ky_ny = 0.628318531 kz_ny = 0.628318531
############################
A(data) = 8.04498258 (not used)
A(ran) = 8.04773676 (used)
Ngal = 478516
weighted Ngal = 0
Nran = 23820508
weighted Nran = 0
SN(data) = 3484.85258
SN(ran) = 70.0987059
SN(data+ran) = 3554.95128
############################
13 columns: k_central k_mean P_0(k) sigma^{lin}_{P_0(k)} P^img_1(k) sigma^{lin}_{P_1(k)} P_2(k) sigma^{lin}_{P_2(k)} P^img_3(k) sigma^{lin}_{P_3(k)} P_4(k) sigma^{lin}_{P_4(k)} N_modes
### header ###
0.00050000 0 0 0 0 0 0 0 0 0 0 0 0
0.00150000 0.00179520 113895.46924701 0 -46316.42050238 0 83527.40396690 0 94070.13948947 0 -312175.34040188 0 3
0.00250000 0.00253879 204526.87681755 0 -47338.83897614 0 24632.93319379 0 -10289.23464585 0 188443.21778599 0 6
0.00350000 0.00331552 165985.22135633 0 6790.30249688 0 -11062.55902816 0 -66934.08582394 0 161030.35599998 0 7
0.00450000 0.00420575 131995.39862805 0 45353.68185940 0 -35517.80355325 0 -46866.93649237 0 41508.48489638 0 24
0.00550000 0.00557378 88348.07274645 0 17135.19771959 0 5013.62618416 0 -28427.30818589 0 -36588.38663997 0 45
0.00650000 0.00659388 90544.82199047 0 25917.21214950 0 3941.26045315 0 -40316.43840641 0 9920.41550614 0 40
0.00750000 0.00754703 56689.97090172 0 4026.80523469 0 5122.71072827 0 -30149.94048117 0 9184.79238984 0 57
0.00850000 0.00846663 71750.32567355 0 -13641.87923931 0 4366.91383615 0 9919.07575484 0 5131.49108185 0 75
0.00950000 0.00948925 83384.34953025 0 -12104.81910799 0 24975.28947718 0 -1149.58412430 0 -7747.29460328 0 112
0.01050000 0.01054430 94760.72038841 0 4912.08189324 0 58889.26678045 0 8418.58751239 0 25831.40163216 0 105
0.01150000 0.01145670 82096.85960033 0 14163.60718476 0 61122.33324988 0 11217.26155052 0 32441.02593265 0 144
0.01250000 0.01249090 78861.96918132 0 8034.43320280 0 76810.26739242 0 42160.20193521 0 71980.63002978 0 169
0.01350000 0.01339930 76831.08336308 0 2690.35348443 0 67403.55239625 0 41403.18708736 0 43770.67158008 0 180
0.01450000 0.01448870 82449.29169931 0 -12794.29277444 0 58052.64191716 0 26810.19514613 0 41730.92790199 0 267
0.01550000 0.01550050 92230.91561385 0 -6435.54520969 0 68663.14006762 0 9016.40447400 0 49708.87010357 0 238
0.01650000 0.01653350 94307.53013359 0 808.47569191 0 58668.37390032 0 -11896.54867815 0 17530.47971562 0 315
0.01750000 0.01747870 97772.61418558 0 8786.13333474 0 58060.06037478 0 6103.24259723 0 12189.85456259 0 297
0.01850000 0.01844180 84260.28114665 0 14140.13385615 0 43099.91014257 0 -3632.68583278 0 3275.40405553 0 388
0.01950000 0.01947590 83689.83497199 0 2346.49136487 0 55187.01353084 0 4225.81920099 0 -834.79017907 0 399
0.02050000 0.02045430 77002.48295128 0 -249.23249551 0 42202.27676952 0 12552.47320040 0 -3788.91633597 0 462
0.02150000 0.02154770 78888.98565388 0 1176.75560940 0 40234.50320275 0 24537.15758411 0 -9246.87491510 0 571
0.02250000 0.02255340 74795.32572193 0 -1837.07584461 0 33749.77472621 0 11865.32472216 0 -8270.92698861 0 510
0.02350000 0.02348930 74224.87954727 0 8376.99986037 0 27370.45478195 0 20846.41955231 0 -10479.74506668 0 555
0.02450000 0.02439640 69570.62780975 0 6463.77963798 0 18652.99200573 0 3661.57352823 0 -5448.48066908 0 592
0.02550000 0.02547300 65190.63755799 0 1967.03172101 0 17142.94834697 0 -3944.44928269 0 -370.78004843 0 837
0.02650000 0.02652900 63977.33220436 0 96.00702127 0 24817.39812527 0 -6403.96693931 0 -7211.39408206 0 723
0.02750000 0.02749970 65470.76737590 0 1003.79814511 0 26102.11997397 0 -3782.02934993 0 -9684.20960078 0 826
0.02850000 0.02848090 63204.92682502 0 5393.38478079 0 29049.68356395 0 -3846.48135270 0 -9766.15587677 0 831
0.02950000 0.02946900 60022.51922564 0 2648.98727891 0 22588.87130902 0 3079.94430550 0 -9144.04623450 0 996
0.03050000 0.03053250 59981.77307031 0 133.67396307 0 27792.86397378 0 14726.52417854 0 -10784.94262798 0 1041
0.03150000 0.03150510 58621.98085933 0 -1271.54578217 0 22407.94952148 0 7452.98113728 0 -6564.74816800 0 1036
0.03250000 0.03246190 58339.63657645 0 2080.62270132 0 27344.43481863 0 717.23087754 0 -6229.34530459 0 1059
0.03350000 0.03345080 58073.67933431 0 3903.85813991 0 29046.69403624 0 -1903.57622747 0 8387.35248407 0 1302
0.03450000 0.03451200 57499.24712272 0 1759.04917161 0 30041.54242120 0 -2340.39051389 0 13869.41551433 0 1339
0.03550000 0.03553350 57295.40562281 0 -1002.81492266 0 35745.67199802 0 236.94442942 0 22208.97984449 0 1365
0.03650000 0.03647120 58451.02416413 0 -697.85430911 0 44546.95227312 0 3967.11433160 0 12905.12674588 0 1308
0.03750000 0.03744890 58771.12507464 0 3972.87194050 0 42512.08041794 0 8995.80994983 0 14062.62758242 0 1579
0.03850000 0.03847530 54863.03730665 0 4750.76919296 0 37571.94125361 0 5832.39138752 0 13223.12391467 0 1662
0.03950000 0.03950240 49722.15689335 0 1338.38940710 0 30386.77750904 0 4325.06044833 0 15290.21623506 0 1683
0.04050000 0.04050350 52209.11177087 0 -1048.00661641 0 31385.72265418 0 7313.27054272 0 9103.69868287 0 1822
0.04150000 0.04152450 48222.29977342 0 881.23415276 0 18386.25970085 0 5621.80684180 0 -1127.78271673 0 1887
0.04250000 0.04250150 48576.28199787 0 3397.73110012 0 17204.17830321 0 3806.59883870 0 -518.39849738 0 1920
0.04350000 0.04349210 44366.91627156 0 3309.31858645 0 15819.36263814 0 -2628.70277984 0 2359.18024911 0 2005
0.04450000 0.04448520 42365.92573034 0 2467.27935631 0 13882.81302736 0 1365.58303686 0 -303.24883213 0 2151
0.04550000 0.04548030 38729.10992041 0 3278.93612714 0 14811.67035640 0 2497.76146654 0 12.41473348 0 2274
0.04650000 0.04648670 38464.70280374 0 1148.14472207 0 14150.43111823 0 2628.75814147 0 -813.81587417 0 2311
0.04750000 0.04749250 36229.42186935 0 1137.64815814 0 14893.60556006 0 3107.68047917 0 147.36157101 0 2568
0.04850000 0.04851840 35254.39294582 0 858.92784718 0 12018.56569765 0 2199.61697615 0 759.11083894 0 2493
0.04950000 0.04949480 34072.64371792 0 -682.93767312 0 12051.67194886 0 1246.46696646 0 851.89470645 0 2644
0.05050000 0.05050630 35283.40243684 0 -924.59891291 0 11027.60369870 0 3364.58055962 0 -3736.64389050 0 2829
0.05150000 0.05149060 35143.22680464 0 -823.16534525 0 9159.43676600 0 1559.69196325 0 -1692.07267879 0 2784
0.05250000 0.05249300 35721.53432992 0 1063.10816023 0 9740.06947949 0 -963.72186543 0 -375.07057430 0 3055
0.05350000 0.05348950 34713.28843193 0 2587.13727248 0 11958.77514363 0 -1082.59877361 0 1272.40942351 0 3009
0.05450000 0.05448610 32929.20473390 0 1791.66824053 0 12152.98372095 0 692.54734383 0 3493.00845519 0 3336
0.05550000 0.05550870 32351.45082487 0 141.04702417 0 12392.58883002 0 2070.49152411 0 5328.47881270 0 3349
0.05650000 0.05647670 33340.87377066 0 -1034.34668928 0 14333.23520099 0 2085.12913752 0 5693.89874869 0 3324
0.05750000 0.05747970 34850.47453643 0 -1147.63539513 0 14314.30152555 0 1299.29302817 0 3918.34074077 0 3639
0.05850000 0.05849280 34882.80572490 0 -47.41557019 0 13223.23463792 0 795.98500228 0 7535.79105460 0 3846
0.05950000 0.05951020 34834.41966545 0 1032.99032949 0 13256.67305887 0 791.23608217 0 6967.10537959 0 3787
0.06050000 0.06049470 33558.88784634 0 716.83005939 0 13246.48652004 0 257.28650458 0 4819.51725776 0 3930
0.06150000 0.06148310 33445.95013319 0 1052.44218973 0 15042.19615912 0 -470.23942058 0 3580.97807587 0 4083
0.06250000 0.06249100 32417.10971104 0 1037.60195278 0 13640.10766734 0 -419.83155461 0 6628.21473386 0 4303
0.06350000 0.06350600 32635.89884946 0 -635.58133987 0 13739.53714421 0 1506.42300855 0 2892.00266403 0 4470
0.06450000 0.06451750 33203.68766616 0 -1099.60586453 0 12805.58654576 0 2886.58829720 0 3570.45936729 0 4479
0.06550000 0.06550280 33191.95100185 0 180.70366274 0 11479.01130924 0 -177.45282817 0 -775.19449797 0 4636
0.06650000 0.06648880 32429.17854509 0 2251.62368582 0 11642.10665381 0 -866.64304311 0 -572.05055452 0 4653
0.06750000 0.06749660 30708.64999152 0 2049.85271065 0 12450.60781207 0 -1666.87206750 0 62.10478063 0 5220
0.06850000 0.06852730 28682.74671946 0 1202.32160741 0 11489.08712482 0 860.37721450 0 1505.48186094 0 5029
0.06950000 0.06949320 29261.82930747 0 -62.39664711 0 12685.34109823 0 2348.42902171 0 -24.45865480 0 5040
0.07050000 0.07048030 28791.69839567 0 -523.17952724 0 11727.14210842 0 2080.61162900 0 -2061.26827754 0 5475
0.07150000 0.07148790 28876.29095729 0 715.12713583 0 11271.51594213 0 -25.67550330 0 -731.53078505 0 5509
0.07250000 0.07249820 27877.56725864 0 962.61020401 0 10292.64492189 0 -892.80694666 0 1265.71066699 0 5916
0.07350000 0.07351270 28180.28461918 0 27.03164164 0 11313.48005320 0 132.55565826 0 620.65916771 0 5721
0.07450000 0.07449140 27794.19265276 0 326.28591115 0 12553.91260263 0 1264.02767362 0 1342.01005732 0 6028
0.07550000 0.07549160 27267.81433088 0 362.00744548 0 10277.23224574 0 1876.34938074 0 -231.09381299 0 6183
0.07650000 0.07648840 27421.83036911 0 -369.02840665 0 9504.74936012 0 1911.33792717 0 270.95086064 0 6330
0.07750000 0.07749960 27708.82502841 0 -539.91313174 0 8911.97030631 0 1639.03624290 0 845.75620957 0 6583
0.07850000 0.07848650 27279.88316493 0 631.00293355 0 8759.77012935 0 970.53355965 0 26.56926136 0 6549
0.07950000 0.07947320 26763.24848889 0 1472.40882671 0 8159.83835370 0 495.86520914 0 3088.64715281 0 6828
0.08050000 0.08048110 25514.95458884 0 1252.51245581 0 8713.06706326 0 -107.11699199 0 1130.47329166 0 7147
0.08150000 0.08149960 24413.03682289 0 1212.76280971 0 8674.53537289 0 -1058.66040735 0 837.93804102 0 7386
0.08250000 0.08250610 23013.71641231 0 1052.03362095 0 9249.66514095 0 266.02035440 0 633.24175763 0 7227
0.08350000 0.08350160 22788.17315575 0 703.61413248 0 8144.15994176 0 -309.21570798 0 236.50707259 0 7798
0.08450000 0.08449610 22203.33295883 0 -339.91262131 0 8375.97013416 0 742.60421710 0 -588.07553023 0 7371
0.08550000 0.08548940 22092.05609440 0 102.04332059 0 6816.89822110 0 1607.83443157 0 -249.47165772 0 8256
0.08650000 0.08650700 21906.48393044 0 262.75512581 0 5731.38964053 0 1619.38286635 0 -1198.71202952 0 8037
0.08750000 0.08749060 21674.29727900 0 130.17067950 0 5374.72791347 0 1072.68572120 0 -129.26607056 0 8155
0.08850000 0.08849210 21264.28909096 0 307.95124848 0 5045.49233498 0 710.44575690 0 -465.42960268 0 8718
0.08950000 0.08949900 21253.99182888 0 287.80072455 0 6331.78645382 0 -735.50021350 0 233.93829323 0 8571
0.09050000 0.09049190 20536.61590388 0 568.83515140 0 7087.73835848 0 -242.95116564 0 1211.10196099 0 8932
0.09150000 0.09150830 20740.01451080 0 298.42462021 0 7845.28467793 0 -1048.91786874 0 2578.47871447 0 9285
0.09250000 0.09250820 20605.15359451 0 445.22703882 0 8245.03989318 0 171.64207211 0 2748.40568346 0 9204
0.09350000 0.09350330 20238.43819651 0 516.58152888 0 8388.55936748 0 641.04774663 0 3386.75842623 0 9349
0.09450000 0.09448040 19691.90824347 0 543.48617096 0 8614.43479378 0 1322.61134424 0 3211.06277601 0 9564
0.09550000 0.09549270 19275.36738379 0 368.96307993 0 6874.96149244 0 1185.11521464 0 2526.36128155 0 10155
0.09650000 0.09649430 18789.18160100 0 46.39514473 0 6948.24921042 0 755.68506164 0 2599.17288955 0 9913
0.09750000 0.09749140 18696.61696552 0 153.32291069 0 6397.79965439 0 198.26215544 0 1908.73593084 0 10476
0.09850000 0.09850240 18577.81092021 0 230.43279520 0 5183.07704318 0 365.68899348 0 1763.51131852 0 10575
0.09950000 0.09950330 18119.97028896 0 427.30094494 0 5437.85123726 0 13.74374463 0 1126.36545915 0 10882
0.10050000 0.10051200 17875.71480346 0 182.12977817 0 4359.35143830 0 535.77651118 0 -151.18484477 0 10875
0.10150000 0.10150300 17387.75744871 0 501.48662845 0 4632.70499342 0 -9.39197773 0 -518.87350012 0 11118
0.10250000 0.10250800 17090.46552733 0 509.72443812 0 4650.06639874 0 9.05297636 0 -880.89976855 0 11575
0.10350000 0.10349800 16906.11131909 0 -236.03206986 0 4285.62082733 0 119.19246944 0 438.63679109 0 11364
0.10450000 0.10450100 16945.30734895 0 -88.68522504 0 4421.37860193 0 166.51558572 0 -1132.48845478 0 12093
0.10550000 0.10551000 17234.62719646 0 31.86017177 0 4322.40309038 0 87.09944668 0 -64.13810236 0 12067
0.10650000 0.10649700 16992.69689918 0 476.54510957 0 5445.14789931 0 -840.07610694 0 -1344.18023298 0 12054
0.10750000 0.10749900 16834.25193102 0 840.69837160 0 5484.59859264 0 -383.84982065 0 1273.46129437 0 12807
0.10850000 0.10850100 16164.70844924 0 475.30611642 0 6029.22410582 0 148.11559633 0 935.13755167 0 12736
0.10950000 0.10950300 16028.29740747 0 218.50125797 0 6289.56767928 0 399.72974891 0 1457.93729817 0 12933
0.11050000 0.11050200 15948.79811527 0 254.03677724 0 6556.68751553 0 342.23448782 0 541.38796540 0 13428
0.11150000 0.11150900 15462.61233249 0 482.78104291 0 6078.14163687 0 323.50011423 0 876.98680896 0 13453
0.11250000 0.11250000 15098.66501570 0 285.72909257 0 5800.23735625 0 44.85620231 0 1290.66768714 0 13668
0.11350000 0.11349100 14949.74224689 0 -41.91229258 0 5815.21821173 0 888.56624625 0 705.60825818 0 13791
0.11450000 0.11448600 14759.29826001 0 -198.27101330 0 4966.62416530 0 516.00798245 0 206.05485764 0 14205
0.11550000 0.11549300 15097.77922971 0 159.12370167 0 4990.50716994 0 545.57330418 0 -20.31240133 0 14776
0.11650000 0.11649800 14948.08139817 0 204.42058250 0 4408.00323355 0 -238.65621084 0 99.33790875 0 14553
0.11750000 0.11747300 14572.61886356 0 311.96053730 0 4616.97121985 0 27.16196291 0 411.54391949 0 14568
0.11850000 0.11849100 14363.24120124 0 459.20695613 0 4625.36404207 0 -32.86409946 0 282.60891144 0 16015
0.11950000 0.11950300 14085.65801804 0 452.50819962 0 4900.83241123 0 -41.15837799 0 375.76038014 0 15270
0.12050000 0.12050700 13478.67317148 0 398.92811259 0 4674.15977754 0 -43.31360601 0 635.96997847 0 15999
0.12150000 0.12150000 13466.82578393 0 118.11956117 0 4995.05789544 0 242.99102601 0 389.17339442 0 15670
0.12250000 0.12250700 13036.33379498 0 136.96908694 0 5104.78463439 0 290.00411719 0 -67.44540578 0 16887
0.12350000 0.12352200 13286.34688938 0 282.33542502 0 5121.65885741 0 204.08619829 0 343.69603470 0 16407
0.12450000 0.12449800 12729.18750451 0 170.52376730 0 4575.47214643 0 294.88258350 0 286.63923767 0 16306
0.12550000 0.12549900 12872.35266441 0 -53.91004231 0 4187.65289734 0 764.24950489 0 793.43947481 0 17523
0.12650000 0.12650100 12897.26539526 0 -388.34961346 0 4273.96166930 0 406.52926358 0 191.72173316 0 17154
0.12750000 0.12750600 13106.31088783 0 23.53334062 0 4113.12507898 0 311.35931006 0 263.48147031 0 18007
0.12850000 0.12850300 12995.25546990 0 185.28539075 0 3883.33004969 0 -8.12758467 0 -19.73043993 0 17496
0.12950000 0.12949900 12764.72966718 0 432.32778040 0 3616.60881714 0 16.04424156 0 952.12471241 0 18405
0.13050000 0.13049000 12557.01285358 0 148.05248408 0 3684.21643248 0 30.01474740 0 909.48408230 0 18100
0.13150000 0.13148800 12551.14452142 0 96.55022953 0 3681.73623172 0 362.92312674 0 194.79651777 0 19059
0.13250000 0.13249300 12347.96736100 0 291.51991845 0 4059.85612428 0 -163.72868156 0 372.69666786 0 18957
0.13350000 0.13349100 12173.24607536 0 217.19029471 0 4005.70138359 0 102.26819951 0 564.06297940 0 19468
0.13450000 0.13450700 11986.56667892 0 187.64379593 0 3887.90291985 0 137.07095232 0 562.14857444 0 19953
0.13550000 0.13551000 11925.44744592 0 51.29099460 0 4075.60097017 0 420.50918089 0 248.40317838 0 19956
0.13650000 0.13649900 11820.26036015 0 -23.46945330 0 3779.80381264 0 594.93483546 0 654.72206778 0 19723
0.13750000 0.13749600 11772.53864018 0 205.35730118 0 3406.64432160 0 296.89221045 0 875.08236909 0 20946
0.13850000 0.13851100 11719.39148105 0 178.60434995 0 3154.47212386 0 87.79024902 0 670.90980667 0 20955
0.13950000 0.13949800 11373.04916072 0 225.11475759 0 3110.48177735 0 -35.25860043 0 536.46520979 0 20506
0.14050000 0.14048300 11171.97574201 0 321.37644233 0 3100.59419129 0 -151.16270012 0 469.43556980 0 21447
0.14150000 0.14148400 11033.63811573 0 197.14938679 0 3104.49164963 0 28.58010627 0 610.01312740 0 21771
0.14250000 0.14249400 11067.56371897 0 -20.31749460 0 3101.23638613 0 31.52412671 0 650.88107830 0 22470
0.14350000 0.14350900 10960.00715569 0 94.25327574 0 3011.98237577 0 307.57146774 0 768.47913297 0 22519
0.14450000 0.14449900 10841.75472662 0 262.08967908 0 3005.73758457 0 350.18884597 0 846.92323261 0 22218
0.14550000 0.14550500 10606.94393419 0 362.19013884 0 2682.20425337 0 240.08011181 0 956.64000647 0 23559
0.14650000 0.14650700 10393.65774121 0 64.20686150 0 2639.47615189 0 201.52406233 0 775.80126137 0 23044
0.14750000 0.14750500 10391.86402459 0 -114.03719500 0 2515.44396927 0 143.69663150 0 502.48203045 0 23649
0.14850000 0.14849900 10447.04849149 0 88.76173480 0 2692.10291176 0 -143.73095570 0 207.03586562 0 23640
0.14950000 0.14949500 10300.34018764 0 304.99161606 0 2626.02327724 0 -170.88361786 0 -62.41547007 0 24457
0.15050000 0.15050000 10003.48008693 0 236.46167606 0 2489.36864433 0 -406.20373723 0 -83.11473842 0 24591
0.15150000 0.15149900 9867.88839720 0 186.36937135 0 2459.66159684 0 175.56831849 0 -90.31440691 0 25020
0.15250000 0.15250500 9845.51122874 0 -21.50965181 0 2440.06358191 0 370.82655220 0 -74.78126387 0 25297
0.15350000 0.15350100 9907.43874145 0 -24.13490002 0 2392.97298446 0 434.79026544 0 -276.19582090 0 25452
0.15450000 0.15450400 9791.97653824 0 49.99287524 0 2205.82855037 0 22.57735609 0 -183.16836224 0 26061
0.15550000 0.15549900 9798.77494568 0 276.64867899 0 2501.57034628 0 -213.30612317 0 -190.03209640 0 26128
0.15650000 0.15649500 9518.08043920 0 189.80732820 0 2607.21139737 0 -343.54212938 0 229.84264028 0 26331
0.15750000 0.15749700 9441.05027544 0 148.00265862 0 2836.90677573 0 -11.43582924 0 4.77199484 0 27345
0.15850000 0.15849900 9411.08856448 0 15.65416355 0 2843.17371158 0 -48.14191470 0 -305.43450905 0 26980
0.15950000 0.15949700 9324.92373274 0 120.12033026 0 2689.55627705 0 63.27457175 0 -193.44237244 0 27777
0.16050000 0.16050000 9169.34649672 0 175.63032351 0 2354.54094501 0 500.69938616 0 53.14195514 0 28224
0.16150000 0.16150500 9244.58294386 0 -112.77605721 0 2186.75093471 0 586.95611819 0 23.50023436 0 28075
0.16250000 0.16249700 9184.52665404 0 -18.32724421 0 2067.76773221 0 422.14788497 0 22.66427384 0 28590
0.16350000 0.16349900 9088.87283993 0 180.60622628 0 1691.91766624 0 284.84219935 0 0.60543029 0 29163
0.16450000 0.16449100 8935.70937072 0 223.90787418 0 1902.56864591 0 -96.39632421 0 284.28083249 0 28996
0.16550000 0.16550500 8855.21356929 0 146.88103211 0 2064.75605986 0 -560.09244372 0 273.64586450 0 30777
0.16650000 0.16650700 8703.93239529 0 179.30079918 0 2380.73806553 0 -58.72606071 0 461.09368028 0 29211
0.16750000 0.16749900 8585.66889390 0 167.03930668 0 2466.46000428 0 -296.24780115 0 309.63534909 0 30922
0.16850000 0.16850800 8506.21389100 0 110.10541246 0 2450.13939749 0 90.96224864 0 563.11518839 0 30867
0.16950000 0.16949900 8537.96931858 0 -17.12357178 0 2773.06375083 0 273.45763498 0 642.51593690 0 30852
0.17050000 0.17049200 8450.07720417 0 -33.75907548 0 2271.57601514 0 555.71887542 0 485.06304905 0 31257
0.17150000 0.17149500 8451.87092079 0 100.53305549 0 2249.25420831 0 243.49703125 0 592.69822584 0 32608
0.17250000 0.17250900 8407.65912779 0 131.83484992 0 2143.77924209 0 104.00179341 0 483.59596601 0 32361
0.17350000 0.17350400 8256.16757962 0 231.77476096 0 2282.42689347 0 -323.31520640 0 319.85289043 0 32508
0.17450000 0.17449800 8175.58319959 0 211.49911976 0 2459.81660939 0 -498.43288127 0 653.15533382 0 32791
0.17550000 0.17549800 8051.47351070 0 103.93989911 0 2745.07291369 0 -357.57187216 0 600.52746672 0 33633
0.17650000 0.17650100 7986.70041051 0 113.15473072 0 2734.69814533 0 -31.77580066 0 524.40744806 0 33984
0.17750000 0.17750300 7905.49598029 0 29.39646878 0 2889.87677767 0 286.87618542 0 536.60582831 0 34069
0.17850000 0.17849800 7957.32553277 0 111.54260022 0 2731.48717114 0 318.85195227 0 255.38760087 0 34536
