### header ###
fiducial parameters:
Omega_m = 0.31
Omega_nu = 0
Omega_de = 0.69
Omega_k = 0
H_0 = 100
w_de = -1
zeff = 0
beta = 0
fgrowth = 0
b_1 = 2
gamma = 0.55
Lx = 3500 Ly = 3500 Lz = 3500
nx = 700 ny = 700 nz = 700
xoffset = -685.467585 yoffset = -31.7331281 zoffset = 572.489161
bins = 400 dk = 0.001
kx_ny = 0.628318531 ky_ny = 0.628318531 kz_ny = 0.628318531
############################
A(data) = 8.02194082 (not used)
A(ran) = 8.0172613 (used)
Ngal = 476289
weighted Ngal = 0
Nran = 23820508
weighted Nran = 0
SN(data) = 3491.15094
SN(ran) = 69.8332535
SN(data+ran) = 3560.98419
############################
13 columns: k_central k_mean P_0(k) sigma^{lin}_{P_0(k)} P^img_1(k) sigma^{lin}_{P_1(k)} P_2(k) sigma^{lin}_{P_2(k)} P^img_3(k) sigma^{lin}_{P_3(k)} P_4(k) sigma^{lin}_{P_4(k)} N_modes
### header ###
0.00050000 0 0 0 0 0 0 0 0 0 0 0 0
0.00150000 0.00179520 152226.75053668 0 -86304.89664766 0 63407.21819945 0 245565.34152538 0 -271237.63384990 0 3
0.00250000 0.00253879 248051.07844717 0 -45041.33157627 0 101689.78125992 0 -110962.41040255 0 111026.62988649 0 6
0.00350000 0.00331552 200402.43582261 0 49809.62825942 0 31893.61019361 0 -143075.47407407 0 144524.84139283 0 7
0.00450000 0.00420575 143761.95821282 0 85643.43596300 0 2520.34900917 0 -36223.88570694 0 98257.02839640 0 24
0.00550000 0.00557378 83342.93903543 0 15984.11883145 0 29346.75403883 0 28242.06819167 0 25587.69976290 0 45
0.00650000 0.00659388 104749.39677706 0 -10322.47376495 0 60377.71940582 0 16316.73146900 0 -67219.08746477 0 40
0.00750000 0.00754703 73352.49107481 0 2989.49448406 0 22962.34082515 0 27704.17465198 0 2029.35783741 0 57
0.00850000 0.00846663 105843.12102264 0 -4513.05745143 0 39932.67162819 0 4477.52636109 0 9908.97779460 0 75
0.00950000 0.00948925 75060.84007108 0 122.11556319 0 3561.10325282 0 14387.04669960 0 -17555.83533945 0 112
0.01050000 0.01054430 95674.96224869 0 -1997.01557662 0 25283.32155363 0 3820.01849638 0 -25896.83907184 0 105
0.01150000 0.01145670 82394.04079847 0 10787.78821546 0 17121.46803682 0 -15139.74334078 0 -14441.41181446 0 144
0.01250000 0.01249090 80892.85499956 0 4883.09454687 0 5167.49828216 0 -13384.33696403 0 -24685.96962967 0 169
0.01350000 0.01339930 71130.82909995 0 -7707.27922139 0 -3104.98990424 0 11168.43259807 0 9420.97615054 0 180
0.01450000 0.01448870 91166.53302903 0 -10682.19145366 0 1012.41130658 0 4522.67930170 0 -9170.69732034 0 267
0.01550000 0.01550050 93497.58957310 0 -15006.21110346 0 -6624.51657737 0 -9418.30772026 0 -12660.76053713 0 238
0.01650000 0.01653350 100139.98795506 0 552.83232034 0 12657.21739319 0 2844.01520827 0 -5079.98262679 0 315
0.01750000 0.01747870 100793.03367286 0 8563.64603984 0 7312.09687629 0 -12935.13274614 0 29751.77968070 0 297
0.01850000 0.01844180 95602.21707463 0 859.23787227 0 21326.18338670 0 10751.47099005 0 20463.53856008 0 388
0.01950000 0.01947590 95857.10199196 0 -399.97666175 0 13549.64677357 0 13495.06021221 0 30913.70944716 0 399
0.02050000 0.02045430 93705.86000294 0 3996.72172816 0 18037.92436206 0 15823.68084482 0 28669.45992967 0 462
0.02150000 0.02154770 89320.00141903 0 6940.31035352 0 21686.03394330 0 9306.99763886 0 29651.68586433 0 571
0.02250000 0.02255340 81401.07470873 0 14525.89365283 0 31468.43292058 0 -2369.16748610 0 33139.80035195 0 510
0.02350000 0.02348930 68685.39544050 0 12352.72846067 0 17659.91519275 0 1416.00640408 0 31310.09867567 0 555
0.02450000 0.02439640 63090.43898639 0 2781.57836862 0 19629.68177799 0 4966.40271881 0 24051.85758730 0 592
0.02550000 0.02547300 62035.80004742 0 -515.65256083 0 18655.64936369 0 2616.45678860 0 13591.50016138 0 837
0.02650000 0.02652900 64382.46856948 0 -1413.28261218 0 19061.45006829 0 4778.92611498 0 7415.98850006 0 723
0.02750000 0.02749970 65913.77109190 0 -1615.96151798 0 9330.39346120 0 -3830.00573337 0 5922.46474992 0 826
0.02850000 0.02848090 65009.82649370 0 -1672.12034946 0 10548.16096173 0 1086.86383313 0 -304.07482756 0 831
0.02950000 0.02946900 68653.50714502 0 1638.47155434 0 11207.73935118 0 -2783.53817011 0 -2512.33264600 0 996
0.03050000 0.03053250 63706.94603229 0 4437.71028104 0 8201.84675406 0 -1997.83492865 0 -7017.50660216 0 1041
0.03150000 0.03150510 60573.69955511 0 2039.15684488 0 9036.62253911 0 -2581.82255656 0 -3736.35601005 0 1036
0.03250000 0.03246190 61966.26584755 0 600.39127713 0 13084.05551495 0 2233.36542219 0 -13606.77996963 0 1059
0.03350000 0.03345080 57647.61627529 0 2246.32004223 0 12159.51639259 0 -5041.42879178 0 -8759.94728655 0 1302
0.03450000 0.03451200 57346.44904022 0 1352.65056147 0 20734.81051813 0 -3400.18915623 0 -17444.22630528 0 1339
0.03550000 0.03553350 56083.65039466 0 3506.56098077 0 20839.00109468 0 -1035.79937830 0 -13723.15010348 0 1365
0.03650000 0.03647120 54294.80559696 0 3207.88501878 0 22471.61538919 0 -3430.56054321 0 -11669.78746586 0 1308
0.03750000 0.03744890 52635.83916938 0 658.81993520 0 23965.93634671 0 2209.02845224 0 -9951.44016028 0 1579
0.03850000 0.03847530 51942.93308223 0 1143.56077959 0 23283.10607515 0 4979.88881043 0 -6564.74816800 0 1662
0.03950000 0.03950240 51013.41141370 0 670.15024518 0 22374.62182378 0 4818.49860388 0 -10344.18659392 0 1683
0.04050000 0.04050350 50533.09396307 0 -102.09192810 0 20639.58852469 0 3911.25445289 0 -6483.03441084 0 1822
0.04150000 0.04152450 50310.54023421 0 1341.96576802 0 17712.50873564 0 2624.12990969 0 -2640.55016740 0 1887
0.04250000 0.04250150 50374.87044141 0 1649.27814336 0 19259.31251280 0 15.69701345 0 -2528.52038489 0 1920
0.04350000 0.04349210 47442.36521319 0 3335.85894904 0 18181.97530795 0 1586.79701441 0 2451.45700415 0 2005
0.04450000 0.04448520 44360.27287667 0 2177.92629183 0 17918.01108427 0 2882.97871930 0 4725.91182374 0 2151
0.04550000 0.04548030 43016.09264369 0 2441.65799668 0 18219.95338208 0 4152.45397674 0 6066.39390024 0 2274
0.04650000 0.04648670 41663.38672060 0 1636.44531890 0 18328.57288855 0 3791.66227252 0 9253.34115279 0 2311
0.04750000 0.04749250 40443.88086507 0 -989.71082624 0 13630.47474475 0 4957.20161688 0 8094.48949262 0 2568
0.04850000 0.04851840 41710.11193133 0 -485.07855030 0 10183.98112612 0 3506.10701545 0 6822.98799975 0 2493
0.04950000 0.04949480 41313.61197957 0 -195.64355062 0 9176.31098903 0 1807.18056760 0 4526.64319398 0 2644
0.05050000 0.05050630 40397.26637758 0 1970.58593727 0 6276.04837068 0 -211.40832669 0 3697.60287319 0 2829
0.05150000 0.05149060 37434.97659560 0 3067.75367588 0 5350.70096861 0 -1200.19572104 0 -1611.80939618 0 2784
0.05250000 0.05249300 34445.22744807 0 1854.49261155 0 6209.61442177 0 -82.56311520 0 -1244.37429707 0 3055
0.05350000 0.05348950 32959.98579690 0 1721.74650930 0 6606.75656836 0 1095.26440597 0 -3587.77648331 0 3009
0.05450000 0.05448610 33075.58086800 0 656.28437281 0 6740.23344405 0 -780.67419152 0 -3430.95914690 0 3336
0.05550000 0.05550870 31936.68153716 0 74.94125896 0 10052.26475008 0 633.22625638 0 990.80255747 0 3349
0.05650000 0.05647670 32761.23756640 0 1421.77508531 0 8635.72687441 0 66.01198261 0 -595.00126941 0 3324
0.05750000 0.05747970 31549.15016851 0 8.76351258 0 11092.14428007 0 933.38148096 0 2168.53696038 0 3639
0.05850000 0.05849280 31701.28391151 0 250.08506452 0 11294.98927075 0 -564.43279505 0 999.14887591 0 3846
0.05950000 0.05951020 33005.60377515 0 -884.35433389 0 10554.72685035 0 281.08314508 0 -931.16369430 0 3787
0.06050000 0.06049470 32518.53220638 0 -758.29480860 0 11033.89277920 0 -503.48186139 0 248.00457468 0 3930
0.06150000 0.06148310 33787.42063060 0 821.92524487 0 9695.56980605 0 -1669.61800405 0 -2707.47129860 0 4083
0.06250000 0.06249100 32979.69453508 0 915.35462892 0 10728.63985628 0 -1915.03608366 0 -3866.53333295 0 4303
0.06350000 0.06350600 31998.79727939 0 1492.08434791 0 10318.16663060 0 -164.16160946 0 -4490.95709109 0 4470
0.06450000 0.06451750 31195.83228354 0 706.42428852 0 11141.41612551 0 1110.24415422 0 -4886.56018454 0 4479
0.06550000 0.06550280 30339.27723557 0 -568.83958033 0 9450.53925781 0 3393.85578644 0 -4304.31091162 0 4636
0.06650000 0.06648880 30762.12932040 0 261.59585340 0 10026.17835281 0 2333.17135811 0 -6283.00179067 0 4653
0.06750000 0.06749660 30074.87011890 0 937.53138830 0 7655.17286079 0 1812.32919864 0 -2348.32937079 0 5220
0.06850000 0.06852730 29212.22529228 0 534.12341309 0 7508.71922041 0 417.18084005 0 243.79819848 0 5029
0.06950000 0.06949320 28778.30088264 0 204.30875202 0 7378.24294475 0 326.82291890 0 9.48411055 0 5040
0.07050000 0.07048030 29773.48143734 0 -576.98548969 0 8645.42623095 0 318.08021123 0 -336.65403611 0 5475
0.07150000 0.07148790 29330.36699810 0 484.75966735 0 10200.10243106 0 -970.02533994 0 -298.75789719 0 5509
0.07250000 0.07249820 29004.28703219 0 1154.51130884 0 9864.59991673 0 38.98886666 0 2954.16269556 0 5916
0.07350000 0.07351270 28024.71845548 0 1036.87007211 0 10531.49711288 0 48.78322375 0 1630.44411884 0 5721
0.07450000 0.07449140 27825.74877849 0 131.50710910 0 12222.85009055 0 914.15438891 0 3031.96792206 0 6028
0.07550000 0.07549160 26963.65756811 0 823.32810842 0 10800.54353365 0 1654.02817071 0 2040.52981315 0 6183
0.07650000 0.07648840 27160.85567313 0 359.97124495 0 10227.55072428 0 1428.70636065 0 3995.01659014 0 6330
0.07750000 0.07749960 26403.61937878 0 -226.28288785 0 9405.85135484 0 1325.82231843 0 4285.78691220 0 6583
0.07850000 0.07848650 26641.56363914 0 528.52413843 0 10181.31269584 0 449.58621310 0 3529.05994480 0 6549
0.07950000 0.07947320 26536.81944635 0 680.16294852 0 10221.09555891 0 -792.80835229 0 3072.39297998 0 6828
0.08050000 0.08048110 25411.64979828 0 1366.23630402 0 10236.60788598 0 -507.66720017 0 4272.76585822 0 7147
0.08150000 0.08149960 24481.35306702 0 1047.57036681 0 10317.95625643 0 352.70226370 0 3783.70127098 0 7386
0.08250000 0.08250610 24053.73988252 0 281.07428722 0 10248.21168239 0 1212.03203627 0 3571.75482930 0 7227
0.08350000 0.08350160 23753.01554045 0 -80.90846698 0 9885.59304458 0 1147.23679143 0 3274.13073817 0 7798
0.08450000 0.08449610 23275.90906401 0 595.40873096 0 8568.51786276 0 659.07459867 0 2339.21684746 0 7371
0.08550000 0.08548940 22364.54600819 0 554.42562788 0 8447.24268902 0 1006.19530343 0 1837.03155531 0 8256
0.08650000 0.08650700 22253.60131351 0 464.29247492 0 7654.56388293 0 121.59848562 0 1656.26478032 0 8037
0.08750000 0.08749060 21557.59497541 0 167.23307236 0 7642.48397655 0 -128.29170598 0 368.35742376 0 8155
0.08850000 0.08849210 21772.50880014 0 253.38572454 0 7347.74976220 0 245.37157584 0 -227.60049451 0 8718
0.08950000 0.08949900 21291.85917976 0 369.17234687 0 6582.78498513 0 -352.60704171 0 -545.21345363 0 8571
0.09050000 0.09049190 21326.62627969 0 659.33479830 0 7258.21894372 0 -401.59986457 0 -793.03865665 0 8932
0.09150000 0.09150830 20134.35834322 0 858.48052526 0 7476.65376774 0 -441.53995465 0 753.36651682 0 9285
0.09250000 0.09250820 19808.49982381 0 960.70133521 0 7554.64722376 0 1963.62144496 0 890.57033705 0 9204
0.09350000 0.09350330 18672.47929741 0 662.66867530 0 7025.35688046 0 999.74899592 0 1583.18743652 0 9349
0.09450000 0.09448040 18411.39387819 0 544.50703930 0 7317.54446010 0 1907.06400979 0 1002.14061808 0 9564
0.09550000 0.09549270 17777.72472882 0 345.89832010 0 5805.87316958 0 838.80721852 0 1301.42998686 0 10155
0.09650000 0.09649430 17393.29361112 0 208.69449988 0 5614.37731184 0 266.88842466 0 1787.31681688 0 9913
0.09750000 0.09749140 17434.48265944 0 -408.35398271 0 5500.99670570 0 -305.73678352 0 1166.23690082 0 10476
0.09850000 0.09850240 17902.50982952 0 -264.34178995 0 5431.38499956 0 43.21528377 0 680.63020062 0 10575
0.09950000 0.09950330 17899.18813208 0 253.42226322 0 5846.77433746 0 -36.05359335 0 246.32379578 0 10882
0.10050000 0.10051200 17694.46084618 0 229.29013127 0 5142.61876829 0 142.66469082 0 494.91520367 0 10875
0.10150000 0.10150300 17635.99897114 0 -32.31181190 0 5880.48956653 0 376.96615631 0 -140.00068947 0 11118
0.10250000 0.10250800 17517.85726532 0 312.24288158 0 5600.23795305 0 574.62929897 0 85.12270453 0 11575
0.10350000 0.10349800 17407.57691013 0 398.88271606 0 5962.75693994 0 -5.98231067 0 -549.31021381 0 11364
0.10450000 0.10450100 16718.10324367 0 623.93879032 0 5228.15247752 0 -213.50431778 0 393.67540169 0 12093
0.10550000 0.10551000 16351.27712243 0 496.89936428 0 5176.35614202 0 -6.61039936 0 31.33191116 0 12067
0.10650000 0.10649700 16255.05861976 0 -90.94995836 0 5132.04469809 0 104.36341553 0 190.33547810 0 12054
0.10750000 0.10749900 16149.87153398 0 144.62559955 0 4957.55593128 0 835.89741156 0 -66.83122393 0 12807
0.10850000 0.10850100 15848.26140592 0 439.83924556 0 5118.90184853 0 -280.34351378 0 -256.55794561 0 12736
0.10950000 0.10950300 15582.74705677 0 264.64295719 0 4946.98186107 0 226.16109228 0 -161.12557799 0 12933
0.11050000 0.11050200 15312.91450094 0 214.38235314 0 5060.42890117 0 442.36705732 0 600.33370104 0 13428
0.11150000 0.11150900 15111.50891249 0 20.42478542 0 5012.20892658 0 317.73586193 0 282.13833763 0 13453
0.11250000 0.11250000 15258.32793958 0 -10.22549127 0 5286.26003817 0 790.33479493 0 165.13043788 0 13668
0.11350000 0.11349100 14954.50334656 0 387.78713936 0 4925.78943137 0 118.63220980 0 -268.90358778 0 13791
0.11450000 0.11448600 14636.06328478 0 592.74915854 0 4712.35929817 0 -470.23831335 0 312.50529568 0 14205
0.11550000 0.11549300 14288.06011573 0 178.97305837 0 4864.52625815 0 -529.84174508 0 -73.34219381 0 14776
0.11650000 0.11649800 14299.79678003 0 92.43121397 0 5309.30154611 0 -380.95440771 0 20.96179318 0 14553
0.11750000 0.11747300 14485.14749750 0 6.66421086 0 5642.36814898 0 139.55890371 0 187.64158147 0 14568
0.11850000 0.11849100 14475.40385166 0 -184.67419842 0 5257.27269179 0 623.76163312 0 715.47037790 0 16015
0.11950000 0.11950300 14730.84238522 0 -90.21442382 0 5313.96299486 0 918.53570784 0 1037.03062082 0 15270
0.12050000 0.12050700 14760.51621574 0 55.43226553 0 5481.38761845 0 745.03016347 0 741.83579776 0 15999
0.12150000 0.12150000 14396.67962220 0 568.57052283 0 5264.46970292 0 339.10655606 0 1766.84408829 0 15670
0.12250000 0.12250700 13961.31581033 0 591.51016539 0 4701.68557704 0 133.52227222 0 1435.36082787 0 16887
0.12350000 0.12352200 13677.97501822 0 151.06858536 0 4105.10871581 0 476.71119444 0 1565.95889910 0 16407
0.12450000 0.12449800 13320.11748008 0 62.94716310 0 3738.65905361 0 642.66984222 0 822.37588849 0 16306
0.12550000 0.12549900 13229.54586306 0 21.89729390 0 3397.47643665 0 421.89543596 0 515.43222156 0 17523
0.12650000 0.12650100 13113.17572922 0 178.07066390 0 2895.98870097 0 -6.07995750 0 -373.84376071 0 17154
0.12750000 0.12750600 12916.19907070 0 348.00870521 0 3033.96094053 0 181.73117448 0 125.21027798 0 18007
0.12850000 0.12850300 12797.94664163 0 288.42188197 0 3222.45619824 0 -885.77602040 0 -221.33466589 0 17496
0.12950000 0.12949900 12493.78987886 0 314.37873304 0 3481.32715250 0 -480.64629868 0 94.34285085 0 18405
0.13050000 0.13049000 12621.34306077 0 -12.73073763 0 3923.60009506 0 -287.29029037 0 179.66618590 0 18100
0.13150000 0.13148800 12607.72410125 0 -42.51296620 0 4056.12475081 0 460.93645327 0 -79.74288334 0 19059
0.13250000 0.13249300 12645.25928238 0 99.10826873 0 3921.83959541 0 484.73420100 0 -11.26675484 0 18957
0.13350000 0.13349100 12569.85675037 0 16.46211109 0 3852.25003393 0 643.17916916 0 -357.67484478 0 19468
0.13450000 0.13450700 12350.40327246 0 112.48817676 0 3578.68610463 0 60.36764359 0 -169.05557703 0 19953
0.13550000 0.13551000 12461.23724390 0 207.55183596 0 3449.63815887 0 -158.75388602 0 -60.47803467 0 19956
0.13650000 0.13649900 12309.65711713 0 112.52471543 0 3585.88311577 0 -14.46732105 0 40.62280963 0 19723
0.13750000 0.13749600 12157.19120438 0 52.17157659 0 3456.45871096 0 10.34353333 0 989.37754926 0 20946
0.13850000 0.13851100 12129.39966908 0 382.67504699 0 3682.75488561 0 14.14677725 0 393.08856848 0 20955
0.13950000 0.13949800 11900.53471508 0 191.22569301 0 3698.87619054 0 387.13719389 0 772.85713020 0 20506
0.14050000 0.14048300 11617.19392297 0 275.61895278 0 3631.03605638 0 11.46096342 0 450.37013370 0 21447
0.14150000 0.14148400 11338.50350729 0 293.89714659 0 3409.89958510 0 203.89021814 0 488.78224296 0 21771
0.14250000 0.14249400 11153.15278982 0 93.35586382 0 3598.87095278 0 112.91224680 0 227.80422528 0 22470
0.14350000 0.14350900 11101.33430967 0 115.30386896 0 3453.74599138 0 102.08395602 0 316.75153225 0 22519
0.14450000 0.14449900 11065.37139866 0 50.40675874 0 3273.62141123 0 205.34512162 0 243.93217361 0 22218
0.14550000 0.14550500 10813.96319133 0 326.29366178 0 3388.96181887 0 41.09626224 0 279.93162330 0 23559
0.14650000 0.14650700 10804.99460822 0 405.20612076 0 3560.19532219 0 -24.49917951 0 422.25307205 0 23044
0.14750000 0.14750500 10247.03801596 0 352.77534105 0 3601.55045539 0 216.38312223 0 978.77690548 0 23649
0.14850000 0.14849900 10173.13024780 0 157.49385545 0 3527.59839792 0 291.64614296 0 1447.19714310 0 23640
0.14950000 0.14949500 10166.61972081 0 -299.92159853 0 3483.53054514 0 555.68233674 0 796.17655350 0 24457
0.15050000 0.15050000 10314.39096784 0 -117.36664308 0 3069.86848992 0 385.09988612 0 832.50485123 0 24591
0.15150000 0.15149900 10305.87635005 0 155.43440304 0 2990.92281396 0 -151.24131363 0 566.05267617 0 25020
0.15250000 0.15250500 10158.52585136 0 275.74628452 0 2707.65952813 0 102.74331297 0 788.66065942 0 25297
0.15350000 0.15350100 9981.82261958 0 165.90992955 0 2625.92362631 0 62.84441193 0 655.89684144 0 25452
0.15450000 0.15450400 9708.00402682 0 294.22599464 0 2349.63590512 0 310.94852681 0 460.25661253 0 26061
0.15550000 0.15549900 9554.47517088 0 135.46767969 0 2231.17310188 0 212.00180330 0 -314.19271798 0 26128
0.15650000 0.15649500 9330.36024423 0 142.39895503 0 2097.08724833 0 167.86198041 0 -158.22905782 0 26331
0.15750000 0.15749700 9344.61032627 0 138.38413005 0 2310.03019924 0 -220.36030131 0 -172.39499019 0 27345
0.15850000 0.15849900 9145.80673415 0 124.53929510 0 2128.01225155 0 -59.74482532 0 -232.74137492 0 26980
0.15950000 0.15949700 9285.59483499 0 134.95724552 0 2282.03936210 0 -132.59884033 0 110.46648097 0 27777
0.16050000 0.16050000 9066.37387590 0 -32.19223079 0 2230.74128121 0 138.34094798 0 158.04304276 0 28224
0.16150000 0.16150500 9119.78677083 0 69.35305663 0 2220.15613869 0 108.42762308 0 97.76497428 0 28075
0.16250000 0.16249700 9071.60001322 0 198.63750725 0 2495.55807390 0 206.22980037 0 200.68810180 0 28590
0.16350000 0.16349900 8913.45399783 0 11.99963202 0 2160.62024814 0 158.74724262 0 339.52508994 0 29163
0.16450000 0.16449100 8858.18095234 0 131.68094460 0 2269.42798413 0 34.83585907 0 536.13525451 0 28996
0.16550000 0.16550500 9032.41505568 0 39.47272726 0 2411.23124808 0 -77.15129500 0 266.63929735 0 30777
0.16650000 0.16650700 8776.54470145 0 142.49196256 0 2561.60449144 0 -409.11243696 0 248.06215077 0 29211
0.16750000 0.16749900 8806.38461684 0 248.49618590 0 2628.92422634 0 -267.41325286 0 367.29558781 0 30922
0.16850000 0.16850800 8597.07338846 0 -4.18015693 0 2717.41424629 0 -45.56427748 0 436.36475003 0 30867
0.16950000 0.16949900 8706.47903000 0 -15.52804977 0 2383.19612164 0 554.78326397 0 -47.41922405 0 30852
0.17050000 0.17049200 8585.52495368 0 -37.65431935 0 2315.42242143 0 534.63163280 0 -120.39049499 0 31257
0.17150000 0.17149500 8658.93446723 0 -9.89323295 0 1868.35516222 0 420.07736022 0 -405.18176165 0 32608
0.17250000 0.17250900 8642.54742649 0 56.37031288 0 1622.27274313 0 377.37915403 0 -183.59796845 0 32361
0.17350000 0.17350400 8477.43691880 0 74.21580024 0 1535.59858445 0 -124.24809295 0 38.86286360 0 32508
0.17450000 0.17449800 8487.85597645 0 117.81396500 0 1827.38756039 0 62.67954501 0 -275.60012983 0 32791
0.17550000 0.17549800 8406.79548646 0 135.18976434 0 1993.21776920 0 -262.76287643 0 160.12021090 0 33633
0.17650000 0.17650100 8235.04158387 0 319.64473072 0 2194.35762186 0 -156.10427869 0 125.53801879 0 33984
0.17750000 0.17750300 8108.73957466 0 238.79904383 0 2389.55163609 0 -94.57669835 0 504.21706375 0 34069
0.17850000 0.17849800 7954.71246411 0 51.20839505 0 2334.67719429 0 -45.42365895 0 332.51741556 0 34536
