### header ###
fiducial parameters:
Omega_m = 0.31
Omega_nu = 0
Omega_de = 0.69
Omega_k = 0
H_0 = 100
w_de = -1
zeff = 0
beta = 0
fgrowth = 0
b_1 = 2
gamma = 0.55
Lx = 3500 Ly = 3500 Lz = 3500
nx = 700 ny = 700 nz = 700
xoffset = -685.467585 yoffset = -31.7331281 zoffset = 572.489161
bins = 400 dk = 0.001
kx_ny = 0.628318531 ky_ny = 0.628318531 kz_ny = 0.628318531
############################
A(data) = 8.04207276 (not used)
A(ran) = 8.04030241 (used)
Ngal = 478082
weighted Ngal = 0
Nran = 23820508
weighted Nran = 0
SN(data) = 3487.70803
SN(ran) = 70.0339499
SN(data+ran) = 3557.74198
############################
13 columns: k_central k_mean P_0(k) sigma^{lin}_{P_0(k)} P^img_1(k) sigma^{lin}_{P_1(k)} P_2(k) sigma^{lin}_{P_2(k)} P^img_3(k) sigma^{lin}_{P_3(k)} P_4(k) sigma^{lin}_{P_4(k)} N_modes
### header ###
0.00050000 0 0 0 0 0 0 0 0 0 0 0 0
0.00150000 0.00179520 21227.41824932 0 -27463.35158718 0 12112.34828886 0 -55700.43723268 0 58840.10565826 0 3
0.00250000 0.00253879 28641.00405489 0 -12721.65832363 0 -2576.10923696 0 -36107.73701959 0 -40611.29441633 0 6
0.00350000 0.00331552 36050.05020729 0 -547.90513579 0 4340.53955843 0 1046.89274053 0 47637.45957650 0 7
0.00450000 0.00420575 39851.73293377 0 -6709.05377736 0 -263.38735555 0 -24290.24474065 0 21299.05619089 0 24
0.00550000 0.00557378 45367.63298867 0 -9356.83417287 0 -2930.61186067 0 -16439.85572098 0 1541.89873727 0 45
0.00650000 0.00659388 67168.92983334 0 -19018.93234099 0 -18569.39595335 0 -11340.49652575 0 6494.57177330 0 40
0.00750000 0.00754703 73765.37806730 0 -13913.37264386 0 9290.98705717 0 -34022.37536325 0 -17005.43007272 0 57
0.00850000 0.00846663 75945.51882409 0 2720.64736514 0 598.75368029 0 -9220.88816875 0 -5933.69208729 0 75
0.00950000 0.00948925 74043.40414349 0 7518.64002345 0 -10633.11891007 0 1507.05413107 0 -14835.03296177 0 112
0.01050000 0.01054430 69608.93805362 0 8365.85002928 0 5859.38571543 0 -6952.24631968 0 -12205.02364759 0 105
0.01150000 0.01145670 68546.21631753 0 -561.46098307 0 -2310.86062360 0 -16624.09920596 0 -40741.28350970 0 144
0.01250000 0.01249090 67529.66617593 0 1689.81392452 0 25004.63113795 0 -28521.53367010 0 -40444.54520456 0 169
0.01350000 0.01339930 67859.95362527 0 4625.20902952 0 24135.89653268 0 -14973.54774525 0 -22502.06428244 0 180
0.01450000 0.01448870 80232.72299387 0 -17270.83369862 0 27906.68747292 0 -1744.52228145 0 -29366.46277701 0 267
0.01550000 0.01550050 84249.98388457 0 -11162.23209617 0 21326.29410995 0 -5185.96691996 0 -46247.77208851 0 238
0.01650000 0.01653350 101022.56296635 0 -1674.01371701 0 25048.36682098 0 5734.40131288 0 -48757.64667840 0 315
0.01750000 0.01747870 88979.19526111 0 8380.14440062 0 25350.75201178 0 -17302.16837786 0 -43263.55910339 0 297
0.01850000 0.01844180 84406.76800400 0 15556.28420045 0 17522.06474876 0 -3825.72074366 0 -27621.57510884 0 388
0.01950000 0.01947590 78431.03429938 0 1200.11821477 0 11999.85346870 0 9628.60438554 0 -30040.87808171 0 399
0.02050000 0.02045430 72355.76039463 0 -443.78099320 0 12582.25775417 0 3612.70028648 0 -26534.82642789 0 462
0.02150000 0.02154770 80332.15247074 0 -1146.01883570 0 12054.99364630 0 587.11998860 0 -37000.16639997 0 571
0.02250000 0.02255340 75398.21380830 0 1239.09279813 0 16482.04127854 0 -5307.56319112 0 -18311.85367807 0 510
0.02350000 0.02348930 72174.39571411 0 8142.70946721 0 19038.19818617 0 -12288.73042322 0 -12465.22328083 0 555
0.02450000 0.02439640 72886.01403020 0 661.15398127 0 21044.50344331 0 -1906.65433377 0 -10813.53137066 0 592
0.02550000 0.02547300 70491.73451142 0 366.03887895 0 33157.29462517 0 6659.13973708 0 -3697.19319717 0 837
0.02650000 0.02652900 75435.30609644 0 575.35896518 0 33759.40764880 0 6338.97239262 0 -4982.05898610 0 723
0.02750000 0.02749970 70826.78306043 0 1592.23352590 0 27538.64339594 0 8885.37458209 0 -2514.75748514 0 826
0.02850000 0.02848090 71937.44796299 0 3746.96329723 0 33317.84333504 0 3870.40864663 0 1648.24841715 0 831
0.02950000 0.02946900 71190.61965397 0 809.42348291 0 31936.57081391 0 72.74594912 0 11136.76574909 0 996
0.03050000 0.03053250 66755.15705487 0 863.60701165 0 28471.15459217 0 6922.78286334 0 11694.25730371 0 1041
0.03150000 0.03150510 70244.93239121 0 2479.31497339 0 29381.85330850 0 7711.35383692 0 5095.50602619 0 1036
0.03250000 0.03246190 63764.07922836 0 1121.90331225 0 26135.77984142 0 4739.17646888 0 2183.45138191 0 1059
0.03350000 0.03345080 61258.74429164 0 6921.04450834 0 25868.38319705 0 2181.38085717 0 3491.76835481 0 1302
0.03450000 0.03451200 53626.81224065 0 5960.04422036 0 20907.31733881 0 2147.02343326 0 -411.58488709 0 1339
0.03550000 0.03553350 49287.34669772 0 4396.00083345 0 22857.59663237 0 1431.37479093 0 -1276.62797927 0 1365
0.03650000 0.03647120 47106.87377119 0 1808.01099196 0 17985.10937267 0 1174.47471049 0 -74.96163204 0 1308
0.03750000 0.03744890 45835.77088201 0 -751.99797748 0 15681.29074766 0 5372.95634150 0 -3405.76960794 0 1579
0.03850000 0.03847530 47902.19886291 0 -2786.60520408 0 11270.74087940 0 6531.73049539 0 -1595.35592149 0 1662
0.03950000 0.03950240 48284.08334590 0 -1090.49223397 0 11689.16403429 0 2424.93878621 0 -7207.75128719 0 1683
0.04050000 0.04050350 48763.18284081 0 2619.39095467 0 10802.96837278 0 -1568.11800244 0 -5681.67490209 0 1822
0.04150000 0.04152450 45075.21289021 0 3706.61574559 0 12262.71045990 0 -3370.53747037 0 981.33461251 0 1887
0.04250000 0.04250150 42295.94863748 0 3601.12970704 0 14598.19593390 0 -2439.76462914 0 5079.55080613 0 1920
0.04350000 0.04349210 41726.83114181 0 987.90271560 0 16416.60383886 0 290.41157874 0 2402.98236609 0 2005
0.04450000 0.04448520 41470.28537576 0 473.07172127 0 17859.65993248 0 792.92793340 0 -2292.10410536 0 2151
0.04550000 0.04548030 40723.78923648 0 -113.50461618 0 17295.63570621 0 -198.29205071 0 -2450.81480931 0 2274
0.04650000 0.04648670 40816.46459522 0 1883.10349888 0 17644.74610775 0 -2188.88789340 0 923.78066811 0 2311
0.04750000 0.04749250 39561.08440728 0 1308.16196035 0 15971.82855090 0 2364.49496502 0 -1514.35079312 0 2568
0.04850000 0.04851840 39280.95458937 0 -492.11279826 0 13456.19635210 0 6228.20485514 0 -1821.00990130 0 2493
0.04950000 0.04949480 38345.34314219 0 -844.40649318 0 13694.91567519 0 5339.92759656 0 -1875.89541542 0 2644
0.05050000 0.05050630 37519.79060371 0 1907.60655371 0 10874.39594019 0 4604.31555259 0 -399.37100558 0 2829
0.05150000 0.05149060 37445.49530418 0 1504.89502773 0 10117.44752629 0 -427.06178272 0 386.10746768 0 2784
0.05250000 0.05249300 35143.78042088 0 1928.66611551 0 11379.91400211 0 -454.98950761 0 4511.18622854 0 3055
0.05350000 0.05348950 35995.02075294 0 459.95876699 0 14412.51304669 0 -3215.50277826 0 5047.31926858 0 3009
0.05450000 0.05448610 35581.46942096 0 -533.44910851 0 16203.57230935 0 -4078.92266762 0 4001.32781529 0 3336
0.05550000 0.05550870 37250.51166412 0 -466.49143863 0 19264.51650547 0 -1632.90217495 0 2944.38583275 0 3349
0.05650000 0.05647670 37423.01848480 0 352.23058267 0 19399.59886825 0 -1965.44837856 0 6128.65358269 0 3324
0.05750000 0.05747970 37682.22160880 0 928.00697449 0 22478.48023057 0 626.56182407 0 4970.30017714 0 3639
0.05850000 0.05849280 36724.24406549 0 540.37927661 0 22014.21765093 0 2458.93082340 0 5630.55397840 0 3846
0.05950000 0.05951020 35683.22408604 0 852.20030262 0 18596.63387241 0 4370.92201773 0 2075.85052932 0 3787
0.06050000 0.06049470 35235.01637739 0 1104.90507919 0 18979.95775763 0 2060.64822735 0 2226.79953358 0 3930
0.06150000 0.06148310 34859.00022654 0 701.51149800 0 17003.43705425 0 2584.30275732 0 2662.80554029 0 4083
0.06250000 0.06249100 33645.14125668 0 524.33658518 0 16576.48820924 0 567.31713566 0 1553.89006505 0 4303
0.06350000 0.06350600 32825.01415736 0 -140.50890918 0 13281.91795946 0 1734.45753819 0 1939.15160711 0 4470
0.06450000 0.06451750 33698.95275529 0 -459.71517584 0 13932.63848905 0 1273.39486042 0 -92.91972494 0 4479
0.06550000 0.06550280 33153.41931148 0 851.14953899 0 13542.11759269 0 -563.24252013 0 665.42789865 0 4636
0.06650000 0.06648880 32453.09476670 0 1734.30252564 0 16155.51841964 0 109.47152187 0 1771.90414073 0 4653
0.06750000 0.06749660 30547.76911191 0 2504.12805331 0 14486.47617648 0 1564.48627990 0 5087.54502465 0 5220
0.06850000 0.06852730 29424.48175906 0 868.15441545 0 15361.41128365 0 1166.23690082 0 4804.20423254 0 5029
0.06950000 0.06949320 28870.20117863 0 406.85257546 0 14378.63173274 0 3978.19772874 0 6591.80892986 0 5040
0.07050000 0.07048030 28538.69577356 0 116.65358536 0 13407.47812290 0 2375.64479611 0 4558.73079131 0 5475
0.07150000 0.07148790 28346.48021471 0 365.81964692 0 13204.85457872 0 2836.44173809 0 6826.26540789 0 5509
0.07250000 0.07249820 27706.27839370 0 112.20361801 0 11450.88760420 0 -156.76086755 0 5658.19050115 0 5916
0.07350000 0.07351270 27665.86440811 0 -44.05954853 0 11567.36846129 0 1507.38630081 0 4971.81708564 0 5721
0.07450000 0.07449140 27343.10613965 0 563.25027076 0 10298.76791752 0 658.29621423 0 4416.14139229 0 6028
0.07550000 0.07549160 27181.45019729 0 250.60878548 0 9087.89847535 0 170.99212664 0 1669.73979963 0 6183
0.07650000 0.07648840 26806.87344868 0 477.90036212 0 10375.22232039 0 -272.45558958 0 1628.61718525 0 6330
0.07750000 0.07749960 25718.57464226 0 973.89179577 0 9339.05201921 0 0.96342734 0 323.84667799 0 6583
0.07850000 0.07848650 24829.90985231 0 728.30430960 0 10415.18234066 0 -994.89710318 0 -722.35293501 0 6549
0.07950000 0.07947320 24571.59251429 0 1150.62492283 0 9765.34759705 0 417.47425666 0 603.80266041 0 6828
0.08050000 0.08048110 23564.23240229 0 598.29860774 0 9792.98411980 0 402.85768067 0 122.02034120 0 7147
0.08150000 0.08149960 23116.13541688 0 259.27509412 0 9408.96267812 0 1012.28176038 0 639.16212971 0 7386
0.08250000 0.08250610 23233.16989021 0 709.64965674 0 9794.14671391 0 491.86367095 0 513.10592612 0 7227
0.08350000 0.08350160 22526.86629003 0 497.87594333 0 9051.52588832 0 137.17946111 0 860.78246159 0 7798
0.08450000 0.08449610 22499.84981747 0 231.81129964 0 10131.69760833 0 354.26346150 0 -64.96675515 0 7371
0.08550000 0.08548940 21823.22004781 0 269.01984719 0 9135.74199089 0 521.05585534 0 728.54347181 0 8256
0.08650000 0.08650700 21817.13026916 0 205.66954074 0 9308.71384921 0 675.69083652 0 -795.33616405 0 8037
0.08750000 0.08749060 21320.42577779 0 533.91857508 0 8551.68792903 0 403.41794030 0 -454.00185624 0 8155
0.08850000 0.08849210 21126.66009347 0 357.68813157 0 7892.99532557 0 525.99411221 0 -782.50998298 0 8718
0.08950000 0.08949900 20524.43634658 0 325.55513771 0 7019.22281251 0 934.33370089 0 231.28757867 0 8571
0.09050000 0.09049190 20138.23365691 0 -235.92356107 0 5834.77193736 0 1991.44619723 0 -871.32885098 0 8932
0.09150000 0.09150830 20377.72804273 0 -488.92175425 0 4713.13436090 0 1645.66856547 0 -2175.92220104 0 9285
0.09250000 0.09250820 20440.72957095 0 5.77697440 0 4241.75227640 0 371.97807398 0 -3178.39941779 0 9204
0.09350000 0.09350330 20324.58088360 0 615.39427726 0 3389.91403880 0 -327.10858488 0 -3139.87879975 0 9349
0.09450000 0.09448040 19648.17256043 0 741.84687008 0 4140.23013014 0 -1782.65536813 0 -1641.98148131 0 9564
0.09550000 0.09549270 19211.48006959 0 750.88188713 0 4492.21933612 0 107.72751998 0 -1177.36458727 0 10155
0.09650000 0.09649430 19100.97826789 0 40.93217039 0 5679.46043713 0 -257.78475920 0 -1303.12405256 0 9913
0.09750000 0.09749140 18684.88030121 0 574.98139890 0 6335.50675496 0 466.85018196 0 -222.34335468 0 10476
0.09850000 0.09850240 18575.81790175 0 805.07316649 0 7406.43308374 0 -5.58998498 0 509.34908631 0 10575
0.09950000 0.09950330 17905.16718748 0 762.92968377 0 7144.29579366 0 182.69889567 0 1392.68808801 0 10882
0.10050000 0.10051200 17233.29851749 0 553.30067967 0 7824.76766004 0 245.47122676 0 2742.10553064 0 10875
0.10150000 0.10150300 16728.62195225 0 397.30823147 0 7246.23868826 0 532.83016555 0 1984.01666728 0 11118
0.10250000 0.10250800 16592.32163373 0 1.25666458 0 7370.68054690 0 890.94901055 0 1685.24105437 0 11575
0.10350000 0.10349800 16396.78437744 0 238.26092884 0 6683.47670703 0 566.78234237 0 1654.59285927 0 11364
0.10450000 0.10450100 16011.68892024 0 59.51020276 0 5626.90011121 0 1203.62814174 0 1885.60584429 0 12093
0.10550000 0.10551000 16245.86859016 0 -460.02741540 0 5564.60721178 0 1009.57900589 0 1243.11205204 0 12067
0.10650000 0.10649700 16593.98248246 0 -165.70619877 0 5273.29434580 0 242.47173397 0 1277.41411433 0 12054
0.10750000 0.10749900 16509.27919759 0 327.88254039 0 5278.18831337 0 -122.54406216 0 1004.53556194 0 12807
0.10850000 0.10850100 16427.67616368 0 325.59278362 0 5641.50450765 0 -1120.84036907 0 1004.01737714 0 12736
0.10950000 0.10950300 16100.04607230 0 619.95164615 0 6089.23610634 0 -826.99083347 0 1796.01966418 0 12933
0.11050000 0.11050200 15673.76156678 0 162.16859099 0 6158.58207668 0 -148.13884821 0 491.19822423 0 13428
0.11150000 0.11150900 15614.85679874 0 280.63582316 0 6121.73337968 0 267.38225035 0 66.99420855 0 13453
0.11250000 0.11250000 15565.14206031 0 178.14152677 0 6066.32746629 0 438.00123964 0 -383.00389503 0 13668
0.11350000 0.11349100 15095.56476475 0 46.50210339 0 5408.81960158 0 371.41117095 0 -669.09505263 0 13791
0.11450000 0.11448600 15224.44662564 0 178.07952176 0 5081.31130577 0 468.03713518 0 -400.15492618 0 14205
0.11550000 0.11549300 15111.50891249 0 24.62628980 0 4883.89175426 0 385.76644008 0 -1086.65899512 0 14776
0.11650000 0.11649800 15096.33982749 0 -20.79648337 0 4588.34926020 0 351.36694133 0 -678.81655382 0 14553
0.11750000 0.11747300 14850.31277002 0 300.55936443 0 4851.20625139 0 -259.77113427 0 -522.70231004 0 14568
0.11850000 0.11849100 14941.99161952 0 385.32908325 0 5022.97122630 0 -45.55143358 0 -1207.31522590 0 16015
0.11950000 0.11950300 14530.76547575 0 302.62656748 0 4740.38335228 0 283.93759042 0 184.66534056 0 15270
0.12050000 0.12050700 14453.70209501 0 47.13499748 0 4930.70554359 0 152.32640146 0 -743.66826751 0 15999
0.12150000 0.12150000 14188.85208535 0 348.90334906 0 4927.09596570 0 368.02414679 0 -275.02215447 0 15670
0.12250000 0.12250700 13909.16516043 0 313.82843850 0 4752.67363283 0 122.33590246 0 -996.96209176 0 16887
0.12350000 0.12352200 13526.83778444 0 401.30201903 0 4840.80933839 0 220.55738869 0 60.01698306 0 16407
0.12450000 0.12449800 13401.60979074 0 178.48033991 0 4747.95682246 0 42.49558265 0 -499.96639826 0 16306
0.12550000 0.12549900 13000.90235556 0 344.31829935 0 4523.55401536 0 736.71816923 0 -671.10357235 0 17523
0.12650000 0.12650100 13060.02857009 0 81.76535420 0 4331.96957902 0 -152.75047150 0 -613.28057045 0 17154
0.12750000 0.12750600 12724.20495834 0 -35.65111434 0 3735.75810451 0 528.70129563 0 -266.96150200 0 18007
0.12850000 0.12850300 13036.33379498 0 17.48519391 0 4162.90625137 0 292.50314090 0 -714.96215819 0 17496
0.12950000 0.12949900 12851.97958675 0 58.45855335 0 3630.22777667 0 175.62700181 0 -950.56683631 0 18405
0.13050000 0.13049000 12825.29528393 0 58.89004184 0 3653.62359901 0 193.23753443 0 -215.71435381 0 18100
0.13150000 0.13148800 12663.86078808 0 246.48323725 0 3474.36266019 0 -239.16553778 0 -452.09963083 0 19059
0.13250000 0.13249300 12567.42083891 0 169.32906345 0 3538.53785484 0 130.55710363 0 -510.49728639 0 18957
0.13350000 0.13349100 12348.41025400 0 118.69089313 0 3435.53201705 0 84.56919901 0 -691.29174219 0 19468
0.13450000 0.13450700 12324.82620213 0 185.24110145 0 3621.58029098 0 -422.86094268 0 -1036.07840088 0 19953
0.13550000 0.13551000 12084.00313733 0 394.22126731 0 3646.05012883 0 -196.84379063 0 -995.30788644 0 19956
0.13650000 0.13649900 11698.35406389 0 332.18967474 0 3888.87728443 0 -215.55491234 0 -882.00035764 0 19723
0.13750000 0.13749600 11779.95709781 0 -41.88173297 0 3793.38955519 0 172.89213758 0 -716.76362544 0 20946
0.13850000 0.13851100 11553.52805526 0 45.25469528 0 3925.80348770 0 256.76942701 0 -685.05137992 0 20955
0.13950000 0.13949800 11567.58990778 0 119.89556207 0 3947.57167829 0 468.13678610 0 -627.32249279 0 20506
0.14050000 0.14048300 11609.22184910 0 54.28351183 0 3849.84733944 0 401.80138088 0 -98.28947031 0 21447
0.14150000 0.14148400 11533.15497760 0 74.04750090 0 3608.89140674 0 370.33936991 0 177.84700293 0 21771
0.14250000 0.14249400 11452.76989942 0 214.23176952 0 3603.98636685 0 166.92636897 0 14.49599838 0 22470
0.14350000 0.14350900 11287.46008987 0 280.73104515 0 3537.70743048 0 -358.03137364 0 215.08433853 0 22519
0.14450000 0.14449900 11221.24758746 0 373.33000484 0 3807.56213096 0 -433.83915274 0 223.29114569 0 22218
0.14550000 0.14550500 10857.68780204 0 87.18581081 0 3806.42168150 0 -234.12320106 0 43.28968979 0 23559
0.14650000 0.14650700 10845.32001521 0 -16.43996644 0 4034.76623624 0 522.31034974 0 -307.60689918 0 23044
0.14750000 0.14750500 10720.59027613 0 99.10815801 0 4052.96913824 0 261.47295059 0 -590.52029955 0 23649
0.14850000 0.14849900 10700.58258519 0 102.97184575 0 3830.92473633 0 508.38025789 0 -353.41532142 0 23640
0.14950000 0.14949500 10654.82066671 0 -20.43286822 0 3517.75510116 0 343.57866805 0 -204.92105158 0 24457
0.15050000 0.15050000 10544.48494989 0 45.15260844 0 3505.98521988 0 519.49797924 0 86.56465339 0 24591
0.15150000 0.15149900 10502.86408090 0 222.87925520 0 3190.95543414 0 57.81779791 0 -66.20508396 0 25020
0.15250000 0.15250500 10402.44916712 0 293.86392962 0 3012.03773739 0 382.24211909 0 481.64280791 0 25297
0.15350000 0.15350100 9926.91496081 0 176.80398994 0 2621.63863661 0 342.89661284 0 311.81216815 0 25452
0.15450000 0.15450400 9879.23753014 0 277.43038512 0 2584.80101194 0 269.36530372 0 208.40440497 0 26061
0.15550000 0.15549900 9595.64207456 0 79.69516162 0 2463.49262123 0 161.79545364 0 -204.56452272 0 26128
0.15650000 0.15649500 9494.81748476 0 240.92271573 0 2402.98236609 0 28.84783508 0 281.60022265 0 26331
0.15750000 0.15749700 9280.04760025 0 150.49836063 0 2339.30542606 0 74.82522100 0 333.51613926 0 27345
0.15850000 0.15849900 9246.74204720 0 78.56179846 0 2342.44996631 0 185.77146581 0 470.44425859 0 26980
0.15950000 0.15949700 9230.27750019 0 -87.63866890 0 2247.20582822 0 275.90904769 0 507.49447190 0 27777
0.16050000 0.16050000 9322.87535265 0 28.12016190 0 2265.55267044 0 63.52834943 0 458.98772410 0 28224
0.16150000 0.16150500 9359.11507178 0 189.15295381 0 2558.31601097 0 -127.29187505 0 487.84995321 0 28075
0.16250000 0.16249700 9224.35380641 0 216.66657375 0 2680.67627254 0 -318.65818658 0 650.89879402 0 28590
0.16350000 0.16349900 8940.81371246 0 359.17625202 0 2621.90437241 0 -111.52599174 0 894.95829937 0 29163
0.16450000 0.16449100 8905.42656234 0 209.02556239 0 2860.78978037 0 79.30242626 0 1116.81004283 0 28996
0.16550000 0.16550500 8646.05735346 0 -6.62414012 0 2943.05715377 0 411.82072761 0 862.53631784 0 30777
0.16650000 0.16650700 8781.26151182 0 -26.26100784 0 2715.33264923 0 464.97785183 0 957.15376234 0 29211
0.16750000 0.16749900 8681.67702240 0 46.45604252 0 2801.40890237 0 69.33224066 0 694.65219277 0 30922
0.16850000 0.16850800 8612.28676276 0 243.27115582 0 2772.32190507 0 81.73125143 0 1105.19517410 0 30867
0.16950000 0.16949900 8412.68596326 0 154.67484155 0 2468.01012975 0 -121.95612171 0 1112.46969150 0 30852
0.17050000 0.17049200 8347.61391030 0 132.50140387 0 2563.86324571 0 42.46291930 0 1104.27174221 0 31257
0.17150000 0.17149500 8281.39033556 0 54.84498942 0 2529.47260482 0 157.18936652 0 788.69719809 0 32608
0.17250000 0.17250900 8221.22332249 0 57.61063471 0 2452.96284032 0 80.84978366 0 638.85431908 0 32361
0.17350000 0.17350400 8103.96740267 0 168.81087865 0 2262.80673389 0 33.06672301 0 670.35508319 0 32508
0.17450000 0.17449800 8067.18513962 0 6.62411797 0 2316.77324505 0 42.62977923 0 660.99675426 0 32791
0.17550000 0.17549800 8032.19659319 0 24.65109181 0 2300.08725155 0 83.38069566 0 630.40613525 0 33633
0.17650000 0.17650100 8054.31909818 0 70.21326554 0 2259.82827851 0 83.31448316 0 596.79941496 0 33984
0.17750000 0.17750300 7949.78527957 0 157.73633937 0 2070.79047688 0 100.40838111 0 590.15048390 0 34069
0.17850000 0.17849800 7889.88400230 0 129.51298340 0 2191.52310671 0 22.13545961 0 444.74871439 0 34536
