### header ###
fiducial parameters:
Omega_m = 0.31
Omega_nu = 0
Omega_de = 0.69
Omega_k = 0
H_0 = 100
w_de = -1
zeff = 0
beta = 0
fgrowth = 0
b_1 = 2
gamma = 0.55
Lx = 3500 Ly = 3500 Lz = 3500
nx = 700 ny = 700 nz = 700
xoffset = -685.467585 yoffset = -31.7331281 zoffset = 572.489161
bins = 400 dk = 0.001
kx_ny = 0.628318531 ky_ny = 0.628318531 kz_ny = 0.628318531
############################
A(data) = 8.05320911 (not used)
A(ran) = 8.04588267 (used)
Ngal = 477883
weighted Ngal = 0
Nran = 23820508
weighted Nran = 0
SN(data) = 3495.26911
SN(ran) = 70.0825561
SN(data+ran) = 3565.35166
############################
13 columns: k_central k_mean P_0(k) sigma^{lin}_{P_0(k)} P^img_1(k) sigma^{lin}_{P_1(k)} P_2(k) sigma^{lin}_{P_2(k)} P^img_3(k) sigma^{lin}_{P_3(k)} P_4(k) sigma^{lin}_{P_4(k)} N_modes
### header ###
0.00050000 0 0 0 0 0 0 0 0 0 0 0 0
0.00150000 0.00179520 20436.41136427 0 -34938.27807225 0 -6429.47757569 0 -61978.00251186 0 19473.11910505 0 3
0.00250000 0.00253879 34951.78630852 0 -33154.85871371 0 -12652.01340052 0 -18801.80405130 0 22311.50957231 0 6
0.00350000 0.00331552 47312.04395008 0 -18156.28751437 0 -7007.06539986 0 -21234.28309070 0 -58680.66418087 0 7
0.00450000 0.00420575 56186.29084572 0 -4610.40533124 0 -2766.74145336 0 -30660.70682506 0 17632.67727369 0 24
0.00550000 0.00557378 60453.34338433 0 -4968.78326864 0 11649.63583469 0 -31002.28804571 0 2955.95641218 0 45
0.00650000 0.00659388 55277.69587111 0 2125.33274894 0 -4594.05150748 0 -6432.51139269 0 31841.57026697 0 40
0.00750000 0.00754703 74296.07459585 0 -6226.36684922 0 20201.45663162 0 -28088.82721618 0 -49230.43494815 0 57
0.00850000 0.00846663 74425.95296598 0 -3088.34820004 0 21096.54336996 0 -18604.16305328 0 9755.95826561 0 75
0.00950000 0.00948925 77248.73145524 0 9923.33859989 0 24137.66810465 0 -16694.40846856 0 -26092.37632813 0 112
0.01050000 0.01054430 64594.06069676 0 12094.63256915 0 20348.93999820 0 11796.23341529 0 8530.05260634 0 105
0.01150000 0.01145670 64711.53806309 0 2718.86472084 0 9586.64027448 0 25670.63147579 0 -9867.42335956 0 144
0.01250000 0.01249090 64098.24199138 0 -8657.59471592 0 -8324.48382375 0 23508.87077820 0 -20368.98090613 0 169
0.01350000 0.01339930 63294.50193280 0 -6081.83979336 0 -21773.50530937 0 15239.28354090 0 -28583.09579609 0 180
0.01450000 0.01448870 70699.89421801 0 4459.12415724 0 -4069.41154060 0 -21595.24087979 0 -26016.08801013 0 267
0.01550000 0.01550050 65231.05154358 0 2041.10557404 0 -4174.76471125 0 -22504.27874740 0 -14155.19221790 0 238
0.01650000 0.01653350 65705.50066206 0 3452.12943196 0 12666.62886928 0 -24398.19990763 0 -6941.01898231 0 315
0.01750000 0.01747870 66001.24245797 0 6394.07935325 0 31360.80992334 0 -33863.04460911 0 -19779.04743979 0 297
0.01850000 0.01844180 70852.02796101 0 -522.33027992 0 36143.61135200 0 -2168.44838178 0 -20755.51576555 0 388
0.01950000 0.01947590 65332.25259242 0 -4739.91831464 0 41903.76689241 0 4260.08804630 0 -7934.04043367 0 399
0.02050000 0.02045430 73532.08418337 0 -1220.05947177 0 43540.14577736 0 17940.26645716 0 -21358.73602167 0 462
0.02150000 0.02154770 72360.96438730 0 3523.71201191 0 32452.09825747 0 10791.88497564 0 -22385.36197885 0 571
0.02250000 0.02255340 67807.13863589 0 2599.72650579 0 27803.93629860 0 3728.60538268 0 -12073.59515200 0 510
0.02350000 0.02348930 69311.31396250 0 -1177.96249281 0 21073.62365758 0 1321.29373758 0 -5860.23828444 0 555
0.02450000 0.02439640 72710.96057482 0 -4535.44569221 0 22956.80466274 0 4936.08669345 0 -8363.70199826 0 592
0.02550000 0.02547300 74364.39083999 0 952.85991478 0 20818.84946351 0 -965.86657474 0 -13056.70687264 0 837
0.02650000 0.02652900 71801.92270721 0 5733.11692320 0 21547.74060632 0 53.59359527 0 -4201.59295428 0 723
0.02750000 0.02749970 68819.81346380 0 1410.80241142 0 20226.03719272 0 1073.75641501 0 -7945.15704779 0 826
0.02850000 0.02848090 63682.69764094 0 726.14188456 0 18264.46412785 0 9199.75110067 0 -6466.01624759 0 831
0.02950000 0.02946900 65983.74818475 0 768.13146197 0 16101.04258153 0 10746.27806971 0 -3707.44616995 0 996
0.03050000 0.03053250 59160.64946176 0 3707.20257880 0 15779.17009905 0 6586.81531136 0 -2590.75792269 0 1041
0.03150000 0.03150510 58190.04946815 0 6096.08987540 0 8842.64648062 0 1405.03373019 0 1578.42633685 0 1036
0.03250000 0.03246190 54219.29234169 0 2901.19269363 0 13570.24129773 0 4975.60382073 0 4620.19326638 0 1059
0.03350000 0.03345080 51143.73267682 0 68.63988819 0 10434.82464489 0 -2782.01018928 0 1592.13387497 0 1302
0.03450000 0.03451200 50658.32195677 0 142.83520463 0 16332.56489349 0 -884.26575529 0 -899.51788273 0 1339
0.03550000 0.03553350 52949.85030123 0 133.68503540 0 12506.08015941 0 -3800.77479585 0 -1364.44258740 0 1365
0.03650000 0.03647120 51768.65468958 0 1775.89017766 0 17907.27092920 0 -2892.22411053 0 -490.05888201 0 1308
0.03750000 0.03744890 50583.03014800 0 4331.90314507 0 19078.50144851 0 -1851.60273477 0 1995.70904229 0 1579
0.03850000 0.03847530 47419.88839381 0 3585.67274160 0 19286.88260160 0 -182.61917493 0 403.74235942 0 1662
0.03950000 0.03950240 43787.72296030 0 2141.38761993 0 20246.52099363 0 4447.81931360 0 2446.85091702 0 1683
0.04050000 0.04050350 43744.87306325 0 -337.49664003 0 20672.58405265 0 5412.46239645 0 1785.15771354 0 1822
0.04150000 0.04152450 45662.59972184 0 -559.83888748 0 21408.67220660 0 3481.57074365 0 3580.49089358 0 1887
0.04250000 0.04250150 43850.72448852 0 633.09671018 0 19946.46099105 0 -1536.66152763 0 4810.77012115 0 1920
0.04350000 0.04349210 44381.86391007 0 2884.34061526 0 21937.26499344 0 -1522.72147068 0 7962.59595938 0 2005
0.04450000 0.04448520 43356.01301562 0 -334.07861336 0 23136.28704805 0 -33.48016362 0 7960.20433722 0 2151
0.04550000 0.04548030 43015.31758095 0 577.55460719 0 24855.81909239 0 1667.31496049 0 3889.74092576 0 2274
0.04650000 0.04648670 42912.67712988 0 1452.44542506 0 23888.54079623 0 3544.66085047 0 4355.78614971 0 2311
0.04750000 0.04749250 41626.29443245 0 1333.28506536 0 20044.00817270 0 5642.54530618 0 1695.93692015 0 2568
0.04850000 0.04851840 39880.07808530 0 1375.43740595 0 17286.22423012 0 2453.29501007 0 912.96965015 0 2493
0.04950000 0.04949480 39842.98579716 0 -359.78744435 0 15856.89781928 0 3319.52726993 0 516.71661124 0 2644
0.05050000 0.05050630 39668.04306503 0 -854.28079245 0 15613.08522677 0 3090.70660523 0 -814.68394444 0 2829
0.05150000 0.05149060 39928.57486801 0 -995.12962201 0 10661.20939813 0 2515.32217370 0 -2867.78748965 0 2784
0.05250000 0.05249300 39727.61217255 0 891.22692591 0 12886.08234719 0 1066.83953369 0 -1054.88806628 0 3055
0.05350000 0.05348950 38962.84669733 0 2401.75333804 0 11803.43042642 0 -1173.91002192 0 -902.33689663 0 3009
0.05450000 0.05448610 36655.26348187 0 2864.37721361 0 12002.51082666 0 -271.81893090 0 -2129.17484565 0 3336
0.05550000 0.05550870 33735.49142720 0 1519.32226697 0 13318.23518486 0 -82.48560892 0 -36.20063382 0 3349
0.05650000 0.05647670 33914.53091951 0 -278.68709399 0 11886.02996957 0 607.20186412 0 -3069.22629508 0 3324
0.05750000 0.05747970 33414.28328421 0 162.38117963 0 12331.80176677 0 2334.66612196 0 -2488.20605022 0 3639
0.05850000 0.05849280 32832.98623123 0 1052.84743682 0 11010.00977457 0 -249.95441108 0 -5446.55408457 0 3846
0.05950000 0.05951020 32084.71851998 0 1173.27889941 0 11652.73608564 0 -108.15767980 0 -3125.77265793 0 3787
0.06050000 0.06049470 31737.37969042 0 -86.30290363 0 11446.45867427 0 -1559.20478096 0 -3942.35661330 0 3930
0.06150000 0.06148310 31769.71087889 0 57.28809789 0 11782.06083952 0 1099.45195921 0 -3712.03011243 0 4083
0.06250000 0.06249100 33263.58894343 0 -1005.54314350 0 11218.70095275 0 1066.99565347 0 -4195.13778891 0 4303
0.06350000 0.06350600 32491.62645707 0 -851.01667110 0 10839.34095981 0 712.33248105 0 -4877.55838446 0 4470
0.06450000 0.06451750 33789.30292581 0 1010.15365955 0 12608.27771749 0 -443.03361127 0 -3726.98882326 0 4479
0.06550000 0.06550280 32642.09935135 0 1671.27885278 0 12255.51344877 0 -1532.76406929 0 -2999.33778082 0 4636
0.06650000 0.06648880 30872.18822909 0 1813.94575806 0 14149.43460900 0 -1656.91804749 0 -1644.25130789 0 4653
0.06750000 0.06749660 30630.70082480 0 816.39683309 0 15262.31397652 0 556.74638716 0 -1602.82974075 0 5220
0.06850000 0.06852730 29751.00461796 0 528.08013820 0 15626.26129331 0 1477.95606144 0 -694.00556901 0 5029
0.06950000 0.06949320 29399.90119796 0 760.72739836 0 14063.40264516 0 2366.78693626 0 -970.89230298 0 5040
0.07050000 0.07048030 29112.57436891 0 -285.49878822 0 12510.50908934 0 2384.50265597 0 -1177.19850239 0 5475
0.07150000 0.07148790 29339.00341146 0 -57.09377859 0 12541.40087558 0 1563.94373598 0 1185.59132461 0 5509
0.07250000 0.07249820 28759.81010019 0 421.96186991 0 11840.41199132 0 1279.56214534 0 1113.22260959 0 5916
0.07350000 0.07351270 29072.93544606 0 458.65112543 0 11123.36823606 0 1415.30884762 0 1243.27813691 0 5721
0.07450000 0.07449140 27775.59114706 0 696.03955507 0 10308.19046594 0 910.94784364 0 696.77032851 0 6028
0.07550000 0.07549160 27648.37013490 0 971.42045287 0 10350.55318069 0 452.95330708 0 1670.84703211 0 6183
0.07650000 0.07648840 26925.45804749 0 862.71347503 0 9922.48603088 0 -116.43546056 0 1210.05009013 0 6330
0.07750000 0.07749960 26002.24760411 0 717.58629917 0 10932.54779014 0 76.82145044 0 2044.81480286 0 6583
0.07850000 0.07848650 25348.42682357 0 481.07147595 0 10695.82148551 0 301.11187344 0 668.03432391 0 6549
0.07950000 0.07947320 25538.09574771 0 287.66232049 0 10825.79950656 0 491.21040379 0 279.63820669 0 6828
0.08050000 0.08048110 24783.40608807 0 676.52015365 0 11143.18769749 0 -172.69837189 0 1178.02892676 0 7147
0.08150000 0.08149960 24677.33321631 0 1199.26564576 0 10718.76334254 0 243.58118092 0 -51.82877741 0 7386
0.08250000 0.08250610 23580.84088952 0 -170.47947800 0 11035.83043604 0 -507.45461153 0 573.88080982 0 7227
0.08350000 0.08350160 23759.76965859 0 133.05059118 0 11321.00923407 0 -27.05998679 0 378.83073581 0 7798
0.08450000 0.08449610 23807.04848556 0 540.74244887 0 11172.19718851 0 1221.57638027 0 117.07654817 0 7371
0.08550000 0.08548940 23433.57896943 0 445.36876458 0 10792.46073653 0 1118.69233805 0 1554.85335731 0 8256
0.08650000 0.08650700 22519.22638591 0 193.29178882 0 9443.74085037 0 1621.33159552 0 1166.33655175 0 8037
0.08750000 0.08749060 22148.52495098 0 731.49756807 0 9304.22955766 0 2140.80078671 0 600.54961137 0 8155
0.08850000 0.08849210 21189.10800544 0 1041.11963037 0 8926.43076252 0 1016.26336839 0 -217.13050416 0 8718
0.08950000 0.08949900 20361.56244850 0 671.51767730 0 8228.61963547 0 594.85511472 0 1399.96260542 0 8571
0.09050000 0.09049190 19806.06391235 0 337.36155767 0 7232.61972874 0 494.24975695 0 1132.32236990 0 8932
0.09150000 0.09150830 19606.09772612 0 -205.77915675 0 6845.19908333 0 370.89852231 0 1562.09465774 0 9285
0.09250000 0.09250820 20196.36336220 0 -103.08389768 0 6911.22335623 0 794.04291651 0 -198.28651455 0 9204
0.09350000 0.09350330 19990.08595083 0 -104.70588254 0 6446.01962897 0 -170.07865984 0 -317.66278458 0 9349
0.09450000 0.09448040 19537.33858900 0 495.48321394 0 5930.07143707 0 369.23767359 0 489.47315603 0 9564
0.09550000 0.09549270 19349.33051358 0 696.16135065 0 5425.80454786 0 511.90679334 0 28.24461483 0 10155
0.09650000 0.09649430 18898.46544696 0 84.19218635 0 5069.61893076 0 926.22100850 0 459.96319592 0 9913
0.09750000 0.09749140 19058.68198709 0 -215.92583522 0 5246.79827251 0 591.88219551 0 28.59649331 0 10476
0.09850000 0.09850240 18496.65077929 0 351.54077683 0 4474.17144667 0 487.98060664 0 99.18046029 0 10575
0.09950000 0.09950330 18613.90669912 0 219.59298920 0 5414.15646215 0 -483.73658454 0 752.74978833 0 10882
0.10050000 0.10051200 18291.36987716 0 403.96602038 0 5561.70626268 0 -205.01959527 0 788.61637012 0 10875
0.10150000 0.10150300 18181.97530795 0 441.49677259 0 6149.12631128 0 -74.59292362 0 431.74648335 0 11118
0.10250000 0.10250800 17626.14460205 0 597.80256759 0 6531.17687915 0 -315.82477866 0 693.93359889 0 11575
0.10350000 0.10349800 17341.03223797 0 658.51655350 0 6014.89651751 0 72.38654146 0 993.24289786 0 11364
0.10450000 0.10450100 16516.36548548 0 177.46390050 0 5360.13458936 0 638.94511215 0 575.91368865 0 12093
0.10550000 0.10551000 16921.83402034 0 -48.90590511 0 5284.33345365 0 786.90680316 0 778.92365697 0 12067
0.10650000 0.10649700 16620.77750852 0 25.51561893 0 5233.94330340 0 791.14307464 0 -6.29338763 0 12054
0.10750000 0.10749900 16297.24417732 0 410.88068723 0 4399.22287997 0 517.46177870 0 455.64720370 0 12807
0.10850000 0.10850100 16053.65303131 0 464.78076445 0 5038.51677035 0 -440.49140549 0 31.13128063 0 12736
0.10950000 0.10950300 15671.32565532 0 423.75337206 0 4778.15105224 0 -338.22630624 0 866.21454414 0 12933
0.11050000 0.11050200 15250.57731221 0 367.06639069 0 5462.35429208 0 -16.49244926 0 1264.97989356 0 13428
0.11150000 0.11150900 15471.35946909 0 -20.40795549 0 5305.88019774 0 497.16067115 0 966.24856995 0 13453
0.11250000 0.11250000 15337.27361554 0 -183.17500564 0 5117.17456586 0 934.78102281 0 976.73073985 0 13668
0.11350000 0.11349100 15134.76079461 0 215.86383020 0 4653.70919360 0 477.32238677 0 640.72111305 0 13791
0.11450000 0.11448600 14916.85744218 0 455.64388201 0 4120.31101779 0 574.90278540 0 923.19383489 0 14205
0.11550000 0.11549300 14799.71224560 0 46.88775246 0 4305.13026366 0 -223.86026318 0 1090.19549567 0 14776
0.11650000 0.11649800 14703.71518942 0 109.36057717 0 4371.23204283 0 353.22819913 0 1223.73548361 0 14553
0.11750000 0.11747300 14603.17848006 0 282.91782930 0 4501.80796941 0 -278.61733834 0 926.09367676 0 14568
0.11850000 0.11849100 14810.34167742 0 -46.91576544 0 4238.92883357 0 -115.48877679 0 1029.29881640 0 16015
0.11950000 0.11950300 14687.88176493 0 -135.06686153 0 4563.79084375 0 53.66202223 0 960.66811824 0 15270
0.12050000 0.12050700 14650.67875354 0 523.77189662 0 5135.34425089 0 -472.80377101 0 -39.58710437 0 15999
0.12150000 0.12150000 14197.26705221 0 605.72924492 0 5367.90736138 0 -373.57802492 0 996.60999183 0 15670
0.12250000 0.12250700 13779.72968330 0 288.09414115 0 4891.65345395 0 156.31354563 0 165.50136076 0 16887
0.12350000 0.12352200 13692.47976373 0 162.84068111 0 4754.69986827 0 235.08981501 0 126.43155541 0 16407
0.12450000 0.12449800 13685.28275260 0 43.01808566 0 4748.67652357 0 419.82823292 0 -819.29556772 0 16306
0.12550000 0.12549900 13429.95494228 0 182.03566341 0 4405.53410512 0 9.00791200 0 -643.44490495 0 17523
0.12650000 0.12650100 13218.25209175 0 413.07632924 0 4169.71573113 0 2.16426304 0 -573.24636560 0 17154
0.12750000 0.12750600 12954.28786807 0 96.78208401 0 4399.33360322 0 356.28637525 0 -450.54839813 0 18007
0.12850000 0.12850300 12802.92918780 0 -17.38244273 0 4133.49815665 0 742.37944891 0 -327.79839072 0 17496
0.12950000 0.12949900 12865.04493003 0 108.29054770 0 3815.42348158 0 561.92712794 0 -1005.76348276 0 18405
0.13050000 0.13049000 12693.53461859 0 323.15022876 0 3870.81832265 0 8.72215744 0 182.04673574 0 18100
0.13150000 0.13148800 12638.06227125 0 101.73196682 0 3702.03180311 0 30.69547392 0 168.16093318 0 19059
0.13250000 0.13249300 12612.92809391 0 -82.82685798 0 3954.92370197 0 362.45033847 0 824.26925603 0 18957
0.13350000 0.13349100 12552.69464690 0 -14.86337811 0 4018.82208850 0 110.41089790 0 740.12180188 0 19468
0.13450000 0.13450700 12633.07972508 0 113.06725935 0 3996.82137909 0 697.76794498 0 859.33420150 0 19953
0.13550000 0.13551000 12302.12793625 0 317.38265476 0 3687.25024948 0 248.51722332 0 864.04769018 0 19956
0.13650000 0.13649900 12334.12695498 0 146.38499196 0 3767.48031512 0 34.86176831 0 560.08690756 0 19723
0.13750000 0.13749600 11895.77361541 0 221.32359357 0 3748.01516809 0 -72.48397792 0 961.80192430 0 20946
0.13850000 0.13851100 11762.57354784 0 314.78840906 0 3648.43067867 0 -454.98397145 0 405.63019080 0 20955
0.13950000 0.13949800 11650.74306717 0 161.79877534 0 3996.56671562 0 -209.64118365 0 -106.09800594 0 20506
0.14050000 0.14048300 11472.81080734 0 212.82779873 0 3637.50229407 0 -212.46573371 0 -397.11778748 0 21447
0.14150000 0.14148400 11376.03868842 0 92.40264737 0 3581.34346259 0 -278.52986698 0 -746.36880754 0 21771
0.14250000 0.14249400 11188.14133625 0 196.27688760 0 3493.82780722 0 29.16007464 0 -848.93507403 0 22470
0.14350000 0.14350900 11293.54986852 0 118.69089313 0 3435.25520893 0 86.14988410 0 -977.55119912 0 22519
0.14450000 0.14449900 10941.42779464 0 139.22894843 0 3339.29136973 0 129.83629529 0 -982.92349113 0 22218
0.14550000 0.14550500 10957.19478518 0 270.05843126 0 3460.44474790 0 317.84547794 0 -885.74391066 0 23559
0.14650000 0.14650700 10564.13832644 0 208.66017567 0 3284.48336188 0 352.08553521 0 -561.34361642 0 23044
0.14750000 0.14750500 10493.17579668 0 296.53125267 0 3122.39559886 0 292.19422303 0 -331.41793370 0 23649
0.14850000 0.14849900 10477.13199802 0 -50.34076768 0 3414.72711872 0 580.03480795 0 371.62154512 0 23640
0.14950000 0.14949500 10223.75291687 0 -32.83453636 0 2965.06893551 0 527.86312064 0 316.51015557 0 24457
0.15050000 0.15050000 10472.00551163 0 84.51826631 0 2826.15554834 0 390.47217812 0 168.52742713 0 24591
0.15150000 0.15149900 10111.02557789 0 309.43715447 0 2926.61475141 0 52.98926778 0 748.31532224 0 25020
0.15250000 0.15250500 10044.10444669 0 348.90445629 0 2719.08616734 0 -127.42695741 0 838.31339283 0 25297
0.15350000 0.15350100 9709.62058624 0 106.21371173 0 2755.93486434 0 70.95655071 0 851.24697545 0 25452
0.15450000 0.15450400 9766.86450555 0 -17.06477773 0 3036.90617893 0 135.05357474 0 366.34447511 0 26061
0.15550000 0.15549900 9630.22094497 0 159.58098868 0 2919.97135652 0 -193.89523053 0 492.26338188 0 26128
0.15650000 0.15649500 9489.00451423 0 299.40341372 0 2915.54242660 0 -218.55661960 0 415.07156217 0 26331
0.15750000 0.15749700 9340.10389007 0 105.58934334 0 3084.68326053 0 -57.21933875 0 863.47635821 0 27345
0.15850000 0.15849900 9313.93998652 0 -17.17915485 0 3007.85239861 0 196.89693779 0 577.72401376 0 26980
0.15950000 0.15949700 9382.98700409 0 -38.99639584 0 3001.86227088 0 323.17901681 0 545.33192750 0 27777
0.16050000 0.16050000 9429.92258900 0 15.51133056 0 3079.04744719 0 -103.29050726 0 182.75536453 0 28224
0.16150000 0.16150500 9342.08583621 0 192.27534941 0 2993.93448631 0 -2.13995929 0 443.34806530 0 28075
0.16250000 0.16249700 9182.26789978 0 240.50307462 0 2811.63973050 0 -27.42758798 0 550.90573582 0 28590
0.16350000 0.16349900 9153.84524197 0 0.66622289 0 2948.91441360 0 109.13392668 0 605.80785843 0 29163
0.16450000 0.16449100 9034.61844832 0 76.86883999 0 2820.46437338 0 438.36109020 0 387.32099448 0 28996
0.16550000 0.16550500 8951.02239594 0 168.64811548 0 2856.90339436 0 184.28998875 0 315.79045446 0 30777
0.16650000 0.16650700 8736.29680073 0 318.35591212 0 2601.64201799 0 201.65914469 0 851.28794305 0 29211
0.16750000 0.16749900 8605.98660994 0 111.46066502 0 2736.92368262 0 281.82720531 0 584.19025145 0 30922
0.16850000 0.16850800 8474.87921176 0 58.95813664 0 2419.74586587 0 171.31543852 0 540.63172562 0 30867
0.16950000 0.16949900 8490.24759861 0 92.35736156 0 2322.86302370 0 264.03951549 0 512.52130737 0 30852
0.17050000 0.17049200 8414.31359501 0 81.20365516 0 2269.52763505 0 -238.09484397 0 506.70612237 0 31257
0.17150000 0.17149500 8372.38270092 0 118.26793032 0 2264.92154793 0 -70.18824209 0 592.96063994 0 32608
0.17250000 0.17250900 8176.39147930 0 47.25767884 0 2269.98160037 0 -102.94460783 0 568.63363508 0 32361
0.17350000 0.17350400 8221.15688855 0 70.62626326 0 2009.64909923 0 176.43306706 0 266.63486842 0 32508
0.17450000 0.17449800 8202.06820056 0 -8.63837316 0 2103.16595465 0 296.08503798 0 144.60456213 0 32791
0.17550000 0.17549800 8093.88051476 0 13.20640470 0 1980.30743846 0 266.10118237 0 108.17982445 0 33633
0.17650000 0.17650100 8207.80366481 0 13.08582709 0 1855.76592890 0 -7.87987462 0 78.31322476 0 33984
0.17750000 0.17750300 8180.07856347 0 68.07221009 0 1738.70931092 0 -2.18336280 0 235.12081752 0 34069
0.17850000 0.17849800 8153.16174183 0 89.07851401 0 1871.09002645 0 -65.58813402 0 -169.41764205 0 34536
