### header ###
fiducial parameters:
Omega_m = 0.31
Omega_nu = 0
Omega_de = 0.69
Omega_k = 0
H_0 = 100
w_de = -1
zeff = 0
beta = 0
fgrowth = 0
b_1 = 2
gamma = 0.55
Lx = 3500 Ly = 3500 Lz = 3500
nx = 700 ny = 700 nz = 700
xoffset = -685.467585 yoffset = -31.7331281 zoffset = 572.489161
bins = 400 dk = 0.001
kx_ny = 0.628318531 ky_ny = 0.628318531 kz_ny = 0.628318531
############################
A(data) = 8.01624451 (not used)
A(ran) = 8.01214905 (used)
Ngal = 476136
weighted Ngal = 0
Nran = 23820508
weighted Nran = 0
SN(data) = 3490.36991
SN(ran) = 69.788724
SN(data+ran) = 3560.15863
############################
13 columns: k_central k_mean P_0(k) sigma^{lin}_{P_0(k)} P^img_1(k) sigma^{lin}_{P_1(k)} P_2(k) sigma^{lin}_{P_2(k)} P^img_3(k) sigma^{lin}_{P_3(k)} P_4(k) sigma^{lin}_{P_4(k)} N_modes
### header ###
0.00050000 0 0 0 0 0 0 0 0 0 0 0 0
0.00150000 0.00179520 21414.76198525 0 -19583.06729050 0 43490.09886918 0 -16794.50228492 0 -36519.95967259 0 3
0.00250000 0.00253879 45008.66821805 0 -19576.09172586 0 15709.30372945 0 34497.26737472 0 61376.11093472 0 6
0.00350000 0.00331552 49801.32401580 0 -11864.32821292 0 25144.25315391 0 -42033.53453928 0 28781.40113359 0 7
0.00450000 0.00420575 52620.67008438 0 3914.93046473 0 4878.08985605 0 -13795.12021480 0 24467.62338424 0 24
0.00550000 0.00557378 53396.84005416 0 2068.37671007 0 13015.07493133 0 6335.67283983 0 11010.65196941 0 45
0.00650000 0.00659388 55947.68224588 0 -1550.83410340 0 -7087.32868247 0 17639.87428483 0 5911.50314835 0 40
0.00750000 0.00754703 55474.45108313 0 -5689.76877153 0 9958.77003931 0 16561.98346373 0 -3500.86980581 0 57
0.00850000 0.00846663 59450.63364876 0 -4671.48027494 0 -271.51554920 0 -3690.29513881 0 -22120.17979944 0 75
0.00950000 0.00948925 63449.07158727 0 5264.28147340 0 -2639.14398215 0 16151.86455245 0 -9423.21276016 0 112
0.01050000 0.01054430 60855.71166824 0 -9151.24324564 0 -11905.84943099 0 -8457.37386623 0 5172.34796043 0 105
0.01150000 0.01145670 63756.32860098 0 -10285.68042958 0 -21064.43362799 0 663.56442638 0 -10649.99313309 0 144
0.01250000 0.01249090 70680.96054257 0 -2222.59205015 0 -12287.40174424 0 -3285.05912277 0 14184.20170893 0 169
0.01350000 0.01339930 69444.51403007 0 -3125.25225866 0 -11566.70412180 0 2804.63094889 0 2086.16993606 0 180
0.01450000 0.01448870 67310.76631427 0 -6222.91228387 0 -17788.13271415 0 1233.63414199 0 -958.59870073 0 267
0.01550000 0.01550050 79977.72735329 0 -8640.56548035 0 -19519.06925305 0 180.07586192 0 16104.58572547 0 238
0.01650000 0.01653350 74914.24249048 0 4267.88296297 0 -9135.28802557 0 -16570.50915384 0 4075.72276574 0 315
0.01750000 0.01747870 78611.73464042 0 5430.47706893 0 -11230.32689381 0 -12247.20920515 0 10274.28700734 0 297
0.01850000 0.01844180 74372.14146736 0 6347.09947904 0 5591.12542972 0 -10081.99394222 0 19387.08714121 0 388
0.01950000 0.01947590 69688.43734582 0 5452.37812742 0 -1911.19398695 0 -1726.02042668 0 8644.08647964 0 399
0.02050000 0.02045430 63954.08032225 0 4390.28751384 0 -949.87149431 0 382.60307688 0 -3988.91573917 0 462
0.02150000 0.02154770 66125.58466568 0 2238.81300601 0 9537.44593531 0 -1654.24961721 0 -1691.02080793 0 571
0.02250000 0.02255340 60292.24105822 0 1178.87042344 0 742.89763371 0 -2133.45983536 0 -3867.35268498 0 510
0.02350000 0.02348930 64663.37345013 0 -168.13768130 0 15501.47619260 0 -7406.06769702 0 -91.56336515 0 555
0.02450000 0.02439640 63690.89116131 0 -2301.10590544 0 9335.15456087 0 74.68582043 0 6443.41763264 0 592
0.02550000 0.02547300 65092.75820660 0 -4885.08756534 0 12016.90484893 0 8314.58516537 0 3523.63450564 0 837
0.02650000 0.02652900 68421.32049358 0 -786.06752094 0 8029.70532011 0 7090.00818507 0 -3550.57347192 0 723
0.02750000 0.02749970 70996.41107665 0 -2199.76091637 0 2245.26817137 0 6621.29453085 0 -4726.34364441 0 826
0.02850000 0.02848090 67295.15433627 0 3315.07619535 0 3922.67001978 0 -1159.30562549 0 -5707.01945360 0 831
0.02950000 0.02946900 66290.45158223 0 6829.16635700 0 1422.24012296 0 -10719.19516321 0 -4631.68633954 0 996
0.03050000 0.03053250 59845.36202854 0 7724.31952928 0 5570.91843693 0 -15088.14630712 0 -6397.29032744 0 1041
0.03150000 0.03150510 55484.41617547 0 3678.75777635 0 8646.71062063 0 -9292.14965128 0 -7393.73312717 0 1036
0.03250000 0.03246190 55111.16810583 0 1121.94760155 0 18674.80448563 0 -3432.01101776 0 -14963.69337616 0 1059
0.03350000 0.03345080 53523.50745009 0 -298.88855062 0 14120.75728772 0 4720.82962665 0 -13141.29943426 0 1302
0.03450000 0.03451200 53014.95557117 0 -299.62707468 0 16579.47773694 0 3798.50496926 0 -18385.48463811 0 1339
0.03550000 0.03553350 52745.56590833 0 2521.06871028 0 14033.06447515 0 2879.05911632 0 -14454.58788100 0 1365
0.03650000 0.03647120 50308.99010874 0 3060.06948245 0 17823.45343032 0 607.63589926 0 -9859.87203403 0 1308
0.03750000 0.03744890 48518.59518556 0 3360.89347545 0 17055.80915064 0 1186.15601317 0 -4167.36839827 0 1579
0.03850000 0.03847530 47955.34602204 0 -591.08720258 0 16708.13815134 0 2030.32112967 0 -352.09550030 0 1662
0.03950000 0.03950240 48814.55842797 0 -1337.83579086 0 19542.32113517 0 3399.03763445 0 -895.71232469 0 1683
0.04050000 0.04050350 47088.93660498 0 306.33690353 0 15465.82330669 0 4273.99488627 0 -1124.78211670 0 1822
0.04150000 0.04152450 47517.43557546 0 977.82579278 0 16752.64889711 0 1993.87103637 0 -4715.76957421 0 1887
0.04250000 0.04250150 46328.26788994 0 2250.12892197 0 17892.76618368 0 -136.17298678 0 -3804.53938629 0 1920
0.04350000 0.04349210 42569.10289076 0 2863.98968224 0 13981.68888799 0 -141.30279487 0 -3117.39090804 0 2005
0.04450000 0.04448520 41613.67198216 0 2106.69802627 0 11688.72114130 0 731.80870040 0 -3093.35289086 0 2151
0.04550000 0.04548030 40150.79642712 0 -1571.32897664 0 11502.92753084 0 1373.96478675 0 -2308.80117118 0 2274
0.04650000 0.04648670 42098.19691622 0 -1151.37784092 0 9244.73795641 0 3864.29672333 0 -4992.43375445 0 2311
0.04750000 0.04749250 41011.00534228 0 1404.88978996 0 10385.30920830 0 1083.01398579 0 -3991.07484251 0 2568
0.04850000 0.04851840 41348.60052600 0 2072.28524073 0 10435.96509434 0 -5067.07229606 0 -4203.40881555 0 2493
0.04950000 0.04949480 37726.62163133 0 2728.90731945 0 15702.32816481 0 -3862.69123623 0 2293.21133784 0 2644
0.05050000 0.05050630 38248.23885353 0 907.87084457 0 17181.03714434 0 -3778.12081927 0 -3142.41436213 0 2829
0.05150000 0.05149060 38055.58040169 0 -462.44118221 0 20222.05115578 0 -1382.62334475 0 494.19771703 0 2784
0.05250000 0.05249300 37967.22324963 0 605.84218264 0 20755.07287255 0 -107.80037588 0 -1809.39503256 0 3055
0.05350000 0.05348950 38919.00029105 0 766.19048343 0 21136.51446255 0 2777.81377818 0 466.91218697 0 3009
0.05450000 0.05448610 37914.96187649 0 -851.41970372 0 20872.88240862 0 2681.98280687 0 -1402.01098551 0 3336
0.05550000 0.05550870 37363.33865403 0 1856.64064257 0 19577.75257459 0 5447.55059380 0 2275.15237606 0 3349
0.05650000 0.05647670 36702.65303210 0 1556.94602670 0 17507.56000324 0 4101.03410028 0 2774.71352723 0 3324
0.05750000 0.05747970 36191.33307197 0 136.67456310 0 19080.82663673 0 2605.47304237 0 5150.44690194 0 3639
0.05850000 0.05849280 35427.12121299 0 357.27070492 0 16527.65925679 0 1253.22108460 0 5575.35843918 0 3846
0.05950000 0.05951020 35343.19299086 0 1546.69305392 0 18742.34566702 0 836.88949186 0 5347.19104164 0 3787
0.06050000 0.06049470 33546.70828904 0 1293.83437203 0 17778.83196130 0 -1837.58517155 0 7878.99990700 0 3930
0.06150000 0.06148310 34145.61033848 0 524.99760297 0 18296.35242332 0 2847.70229243 0 6914.22395625 0 4083
0.06250000 0.06249100 32318.78746665 0 110.36981958 0 16226.27057523 0 820.81801239 0 6891.78035384 0 4303
0.06350000 0.06350600 33091.08212275 0 695.24124046 0 15614.30318250 0 2710.36117538 0 3914.63151196 0 4470
0.06450000 0.06451750 31845.55630390 0 231.66846665 0 13363.41027012 0 1090.95727161 0 3521.33146207 0 4479
0.06550000 0.06550280 31318.95653553 0 1425.25179531 0 15079.62061701 0 578.44260764 0 3207.32033022 0 4636
0.06650000 0.06648880 31068.05765514 0 107.64779924 0 13289.22569384 0 -831.28357380 0 654.73867627 0 4653
0.06750000 0.06749660 29881.99022056 0 635.05318997 0 14651.78598602 0 509.25940048 0 2245.38996695 0 5220
0.06850000 0.06852730 29988.72743181 0 927.12893913 0 13350.56637333 0 1958.14064418 0 2663.66918162 0 5029
0.06950000 0.06949320 29507.19202545 0 -287.20171177 0 12225.28600201 0 2901.71309290 0 3102.45434186 0 5040
0.07050000 0.07048030 29388.38598015 0 101.25176009 0 11321.56285031 0 2604.86406451 0 396.42798164 0 5475
0.07150000 0.07148790 28805.64952494 0 1212.66315879 0 11769.88128222 0 688.55577073 0 2325.85255140 0 5509
0.07250000 0.07249820 27626.44693176 0 873.54442317 0 9642.65516574 0 -604.54782787 0 2707.64845580 0 5916
0.07350000 0.07351270 27420.83385987 0 378.27822680 0 10991.00966518 0 1094.03537791 0 3810.95026236 0 5721
0.07450000 0.07449140 26369.84878809 0 323.36946079 0 9354.78579278 0 695.78378437 0 837.45528766 0 6028
0.07550000 0.07549160 26363.53756294 0 512.76268405 0 10219.60079506 0 -369.26203270 0 377.47548325 0 6183
0.07650000 0.07648840 26104.22371569 0 726.85272781 0 9484.13269131 0 552.34181635 0 837.42760685 0 6330
0.07750000 0.07749960 25573.41646388 0 -33.61015271 0 9023.84507627 0 89.70144301 0 -294.10973523 0 6583
0.07850000 0.07848650 25616.26636093 0 -221.33023696 0 8656.09995207 0 -167.35597517 0 -2214.03314306 0 6549
0.07950000 0.07947320 25430.14058073 0 463.97248474 0 8287.79013930 0 -218.83896388 0 -3377.49089036 0 6828
0.08050000 0.08048110 25584.82095845 0 633.59275033 0 7415.37952219 0 164.59785906 0 -3311.68806396 0 7147
0.08150000 0.08149960 24623.63244094 0 -29.67626643 0 7639.49444885 0 -701.48935335 0 -4891.37664583 0 7386
0.08250000 0.08250610 24850.06148348 0 533.20662459 0 8841.11849979 0 -747.01875300 0 -4154.76809262 0 7227
0.08350000 0.08350160 23951.43160120 0 975.30240995 0 8537.41570234 0 504.86258029 0 -5100.84288675 0 7798
0.08450000 0.08449610 23820.55672184 0 166.56762564 0 9091.06516025 0 -738.25279345 0 -3555.55601809 0 7371
0.08550000 0.08548940 23330.60634862 0 488.66598355 0 8448.60458497 0 957.28663024 0 -3268.51706949 0 8256
0.08650000 0.08650700 22956.91538599 0 526.67838188 0 9321.80133714 0 542.37893847 0 -3624.34837219 0 8037
0.08750000 0.08749060 22528.08424576 0 543.27579678 0 8993.39618302 0 1373.00149449 0 -1759.08238859 0 8155
0.08850000 0.08849210 21546.41192734 0 1043.55000567 0 8502.54895149 0 1063.99283898 0 -1174.64079536 0 8718
0.08950000 0.08949900 20919.49689611 0 707.47726661 0 7610.35208992 0 2010.28022175 0 -927.74456039 0 8571
0.09050000 0.09049190 20631.28428108 0 -84.48360994 0 6345.97010191 0 1720.24067312 0 227.63038978 0 8932
0.09150000 0.09150830 20430.21086237 0 13.91514422 0 6485.87999832 0 1751.77465421 0 824.79962039 0 9285
0.09250000 0.09250820 19917.45150002 0 240.90942894 0 5609.70479077 0 405.31905847 0 -117.84939644 0 9204
0.09350000 0.09350330 19672.97456803 0 1263.48512971 0 6827.37264037 0 -144.76621807 0 682.62432632 0 9349
0.09450000 0.09448040 18483.80688250 0 1124.97034622 0 6364.19514856 0 -895.31925716 0 1435.82586551 0 9564
0.09550000 0.09549270 17775.84243360 0 280.42877068 0 6221.70540047 0 280.74765364 0 2344.83051614 0 10155
0.09650000 0.09649430 18135.47154371 0 -274.18065779 0 6479.86772594 0 346.79628564 0 1522.76575998 0 9913
0.09750000 0.09749140 18110.89098261 0 -101.47132429 0 6801.41911100 0 -5.52337387 0 393.81380575 0 10476
0.09850000 0.09850240 18170.79225988 0 388.43044143 0 7144.82726525 0 -503.56158212 0 -139.99293884 0 10575
0.09950000 0.09950330 17630.79497848 0 550.08859825 0 7115.17557939 0 -917.07416096 0 260.88058121 0 10882
0.10050000 0.10051200 17014.62010232 0 424.55833008 0 7428.35628688 0 9.50361998 0 521.19868833 0 10875
0.10150000 0.10150300 17384.21430476 0 42.51064102 0 6717.67911840 0 773.39413796 0 -727.90459867 0 11118
0.10250000 0.10250800 16809.22847693 0 204.44937054 0 6981.30010000 0 1023.17471354 0 -757.61164616 0 11575
0.10350000 0.10349800 16841.44894215 0 373.71864344 0 5802.37431494 0 197.65207034 0 -381.45266233 0 11364
0.10450000 0.10450100 16374.97189754 0 124.09086594 0 5961.26217609 0 868.36368239 0 126.70282736 0 12093
0.10550000 0.10551000 16390.03025930 0 10.10631984 0 5046.01273425 0 750.85642079 0 -842.37250711 0 12067
0.10650000 0.10649700 15988.43703813 0 90.49145338 0 4588.11674138 0 321.38419295 0 -999.04479606 0 12054
0.10750000 0.10749900 16138.13486967 0 657.61083733 0 4752.10894427 0 -321.60010329 0 -833.93318113 0 12807
0.10850000 0.10850100 15370.26914350 0 477.72984832 0 5192.72103810 0 -222.01118494 0 -186.82222943 0 12736
0.10950000 0.10950300 15243.04813133 0 248.79403144 0 4848.62639971 0 -43.71774587 0 299.74333410 0 12933
0.11050000 0.11050200 14984.39862357 0 73.44992753 0 5747.37807756 0 588.73322633 0 -212.88869652 0 13428
0.11150000 0.11150900 15171.41018976 0 76.35032302 0 5668.33275068 0 -41.31172968 0 -529.11650781 0 13453
0.11250000 0.11250000 14912.87140524 0 15.56414555 0 5849.63099726 0 156.57595973 0 18.14300072 0 13668
0.11350000 0.11349100 14979.74824715 0 373.76514721 0 5519.54284977 0 -445.72640067 0 -319.02135884 0 13791
0.11450000 0.11448600 14916.63599568 0 148.00930201 0 5347.92181508 0 224.00309617 0 -217.75830498 0 14205
0.11550000 0.11549300 14658.98299715 0 -156.77636880 0 4890.63480007 0 255.18829903 0 -703.36389794 0 14776
0.11650000 0.11649800 14840.12623118 0 52.99535756 0 4756.23892142 0 559.18119139 0 -976.88132347 0 14553
0.11750000 0.11747300 14861.05292509 0 104.57999021 0 4396.27764157 0 523.04555211 0 -1313.42131464 0 14568
0.11850000 0.11849100 14561.98943174 0 302.55238290 0 3870.37542966 0 289.17480006 0 -1265.90996884 0 16015
0.11950000 0.11950300 14077.68594417 0 376.66388184 0 3954.74654478 0 -335.83468407 0 -797.16531211 0 15270
0.12050000 0.12050700 13979.47442303 0 238.25317822 0 3966.16211166 0 270.18576299 0 -772.16732437 0 15999
0.12150000 0.12150000 13763.01047283 0 106.43128292 0 4204.54926501 0 340.97888619 0 -446.29994709 0 15670
0.12250000 0.12250700 13595.04330533 0 282.97651262 0 3841.25521538 0 469.03696611 0 -714.77946483 0 16887
0.12350000 0.12352200 13512.11159244 0 303.86998956 0 4117.49864728 0 196.01668796 0 -18.62553264 0 16407
0.12450000 0.12449800 12910.10929205 0 380.07415789 0 3608.64781559 0 730.24528814 0 -46.37410731 0 16306
0.12550000 0.12549900 13113.95079196 0 -110.20273820 0 3323.64617476 0 235.70654351 0 249.73185735 0 17523
0.12650000 0.12650100 13073.31535987 0 -54.62310003 0 3360.58345036 0 219.21874462 0 11.05985738 0 17154
0.12750000 0.12750600 13126.13034926 0 178.51909305 0 3523.57914401 0 -322.50360499 0 -562.28365680 0 18007
0.12850000 0.12850300 12979.53276866 0 130.14078422 0 3515.06452623 0 -549.93801463 0 30.25855999 0 17496
0.12950000 0.12949900 12968.34972059 0 148.70685848 0 3797.37559213 0 -464.17732274 0 -124.38538978 0 18405
0.13050000 0.13049000 13062.57520480 0 -85.58674566 0 4187.35394457 0 -19.77960106 0 -402.51776029 0 18100
0.13150000 0.13148800 13037.55175071 0 38.08724725 0 4136.76449247 0 -304.87535665 0 -876.50627006 0 19059
0.13250000 0.13249300 12986.84050304 0 261.44969871 0 4169.23962116 0 242.69982386 0 -709.19347696 0 18957
0.13350000 0.13349100 12575.28218953 0 276.91109309 0 4309.97994193 0 -8.82628158 0 -1008.04881060 0 19468
0.13450000 0.13450700 12314.08604706 0 525.02971272 0 4092.07658950 0 607.48310118 0 -291.10802797 0 19953
0.13550000 0.13551000 11974.94073786 0 403.03040893 0 4053.87706888 0 402.26863299 0 -123.33462615 0 19956
0.13650000 0.13649900 11735.99996828 0 50.32969536 0 3934.01915271 0 721.42728865 0 68.71484782 0 19723
0.13750000 0.13749600 11568.36497052 0 201.39119443 0 3776.43782590 0 310.61192814 0 273.08892656 0 20946
0.13850000 0.13851100 11427.30355233 0 292.91503138 0 3667.87368105 0 169.49182663 0 624.34957357 0 20955
0.13950000 0.13949800 11382.23919032 0 2.74033396 0 3701.34531898 0 2.11660776 0 979.29066135 0 20506
0.14050000 0.14048300 11311.59775798 0 15.06655527 0 3359.08868651 0 699.89936751 0 881.66375896 0 21447
0.14150000 0.14148400 11446.68012076 0 -108.65969901 0 3307.52486983 0 722.42379788 0 929.95016750 0 21771
0.14250000 0.14249400 11242.39572786 0 33.59022253 0 2663.59167535 0 528.69908116 0 1072.60157153 0 22470
0.14350000 0.14350900 11302.96134462 0 175.05124092 0 2806.69040130 0 328.27560792 0 839.01759269 0 22519
0.14450000 0.14449900 11113.29242048 0 253.62156506 0 2676.80095886 0 -329.70172336 0 847.80237520 0 22218
0.14550000 0.14550500 10779.73863531 0 315.75059409 0 2880.19956578 0 -224.19132570 0 943.99098260 0 23559
0.14650000 0.14650700 10774.74501682 0 151.36753813 0 3204.85120178 0 -375.84010088 0 1509.78899530 0 23044
0.14750000 0.14750500 10678.58187577 0 3.85308046 0 3315.16477395 0 -63.70063481 0 1296.90140601 0 23649
0.14850000 0.14849900 10696.07614898 0 166.28749582 0 3442.17541195 0 233.48211345 0 1205.32220743 0 23640
0.14950000 0.14949500 10592.40597171 0 208.43762194 0 3318.81864114 0 200.97930395 0 852.79156476 0 24457
0.15050000 0.15050000 10238.40160261 0 396.03159242 0 3514.38911441 0 -32.90052741 0 1121.15039416 0 24591
0.15150000 0.15149900 10021.83800148 0 266.36359646 0 3289.69842687 0 11.66823734 0 521.15882796 0 25020
0.15250000 0.15250500 9811.30881738 0 95.83473590 0 3028.49121207 0 86.97200422 0 654.35225213 0 25297
0.15350000 0.15350100 9771.82490707 0 10.76664008 0 3002.92521407 0 42.34378108 0 192.83782351 0 25452
0.15450000 0.15450400 9594.35768488 0 47.49816973 0 2799.47124552 0 240.87842643 0 378.08889005 0 26061
0.15550000 0.15549900 9757.46410178 0 125.90119105 0 2857.89990359 0 357.56190707 0 333.93024421 0 26128
0.15650000 0.15649500 9411.77504862 0 295.18596520 0 2673.55676768 0 -63.80847925 0 232.46013787 0 26331
0.15750000 0.15749700 9317.26168397 0 272.51870183 0 2925.29714476 0 285.08357604 0 952.48899190 0 27345
0.15850000 0.15849900 9017.23489836 0 110.32564100 0 2553.92029802 0 146.02071248 0 919.53221707 0 26980
0.15950000 0.15949700 9158.63955862 0 -53.39739367 0 2663.55845837 0 297.90200648 0 1033.97023024 0 27777
0.16050000 0.16050000 9192.73124673 0 -191.92546394 0 2551.30722936 0 226.90958144 0 770.43229107 0 28224
0.16150000 0.16150500 9306.48831192 0 -29.16406068 0 2302.48994604 0 93.97812847 0 689.09499295 0 28075
0.16250000 0.16249700 9299.25808381 0 120.88653514 0 2208.67413785 0 -69.70449222 0 580.92170117 0 28590
0.16350000 0.16349900 9036.36787564 0 328.02869508 0 2228.22786348 0 -163.28246687 0 168.99025031 0 29163
0.16450000 0.16449100 8720.09798952 0 253.45769466 0 2153.74433442 0 61.79708072 0 387.65980762 0 28996
0.16550000 0.16550500 8835.77056690 0 144.94337527 0 2156.23560751 0 240.01921402 0 150.74195178 0 30777
0.16650000 0.16650700 8475.53247893 0 -60.62075694 0 2288.73811861 0 -118.58238434 0 -138.57789573 0 29211
0.16750000 0.16749900 8677.02664598 0 141.71689982 0 2185.04579669 0 76.25476886 0 -236.23912233 0 30922
0.16850000 0.16850800 8492.16311081 0 29.76263056 0 2130.18242721 0 -162.28374317 0 259.66373272 0 30867
0.16950000 0.16949900 8544.47984557 0 45.79402822 0 2162.86793007 0 306.50188116 0 -26.57922645 0 30852
0.17050000 0.17049200 8508.17369249 0 131.25908903 0 2024.12062777 0 172.33409241 0 341.74619830 0 31257
0.17150000 0.17149500 8269.45436940 0 265.24307719 0 2094.92814499 0 231.11263594 0 52.35482357 0 32608
0.17250000 0.17250900 8264.59361881 0 144.65660206 0 1973.05506571 0 -59.71648017 0 387.84250098 0 32361
0.17350000 0.17350400 8086.31811690 0 73.01832831 0 2172.10224897 0 16.74069079 0 371.88617368 0 32508
0.17450000 0.17449800 8133.24262949 0 48.54627600 0 2245.51176252 0 -75.40618588 0 301.74521042 0 32791
0.17550000 0.17549800 8039.91400359 0 89.21337493 0 2201.25568022 0 -52.84488466 0 374.72179607 0 33633
0.17650000 0.17650100 8021.43429347 0 173.53654688 0 2178.39132947 0 -86.97909051 0 401.51350043 0 33984
0.17750000 0.17750300 7871.10533940 0 133.47244676 0 2101.04006829 0 71.79516859 0 248.45411107 0 34069
0.17850000 0.17849800 7724.02057651 0 111.15617609 0 2136.52686933 0 107.35150383 0 262.82931038 0 34536
