### header ###
fiducial parameters:
Omega_m = 0.31
Omega_nu = 0
Omega_de = 0.69
Omega_k = 0
H_0 = 100
w_de = -1
zeff = 0
beta = 0
fgrowth = 0
b_1 = 2
gamma = 0.55
Lx = 3500 Ly = 3500 Lz = 3500
nx = 700 ny = 700 nz = 700
xoffset = -685.467585 yoffset = -31.7331281 zoffset = 572.489161
bins = 400 dk = 0.001
kx_ny = 0.628318531 ky_ny = 0.628318531 kz_ny = 0.628318531
############################
A(data) = 7.97144687 (not used)
A(ran) = 7.96806494 (used)
Ngal = 473561
weighted Ngal = 0
Nran = 23820508
weighted Nran = 0
SN(data) = 3489.7335
SN(ran) = 69.4047353
SN(data+ran) = 3559.13824
############################
13 columns: k_central k_mean P_0(k) sigma^{lin}_{P_0(k)} P^img_1(k) sigma^{lin}_{P_1(k)} P_2(k) sigma^{lin}_{P_2(k)} P^img_3(k) sigma^{lin}_{P_3(k)} P_4(k) sigma^{lin}_{P_4(k)} N_modes
### header ###
0.00050000 0 0 0 0 0 0 0 0 0 0 0 0
0.00150000 0.00179520 93692.90538290 0 -63767.62237230 0 25319.41733254 0 136392.21881353 0 -211537.87289272 0 3
0.00250000 0.00253879 148975.91596992 0 -45254.69527552 0 24815.40510680 0 -9212.69464838 0 133558.81089244 0 6
0.00350000 0.00331552 134525.42484911 0 9788.90950427 0 20430.65375537 0 -109631.62768259 0 100960.00433113 0 7
0.00450000 0.00420575 115589.53494426 0 37158.38992163 0 -7615.50072097 0 -12477.62428463 0 70946.58561497 0 24
0.00550000 0.00557378 86621.45441423 0 4104.40008702 0 25016.36780226 0 23126.54340221 0 9801.22192947 0 45
0.00650000 0.00659388 101821.32047877 0 7936.78637023 0 28004.45610106 0 42410.32575286 0 33331.46229456 0 40
0.00750000 0.00754703 80763.86241542 0 2274.45481960 0 47779.84967366 0 35856.06307646 0 16510.82932307 0 57
0.00850000 0.00846663 84921.96327781 0 3244.25760581 0 38231.74108955 0 32558.28185248 0 43447.24897213 0 75
0.00950000 0.00948925 80575.19000051 0 4405.75555161 0 47107.31666418 0 33536.41102696 0 27119.55590156 0 112
0.01050000 0.01054430 79892.02755920 0 10781.14482057 0 55074.18654094 0 -1964.41865235 0 30858.90143931 0 105
0.01150000 0.01145670 79033.25804626 0 4617.77949957 0 44689.12092379 0 3722.21665126 0 30194.89411994 0 144
0.01250000 0.01249090 77224.26161739 0 1131.24835440 0 65236.80915249 0 -10031.73665987 0 15186.46855151 0 169
0.01350000 0.01339930 78619.81743754 0 6322.68500282 0 50644.81372049 0 -8477.12689370 0 -8856.39830804 0 180
0.01450000 0.01448870 77585.88374597 0 4197.02008413 0 61632.87814726 0 -10190.89025681 0 -16301.56238400 0 267
0.01550000 0.01550050 72761.45037599 0 3202.99105121 0 54142.45040745 0 9111.84791393 0 -8363.27017759 0 238
0.01650000 0.01653350 74955.43153880 0 281.31677113 0 49000.90565466 0 17346.01478414 0 -21751.58210623 0 315
0.01750000 0.01747870 78084.91342555 0 -1063.44586614 0 41972.41530628 0 25027.99374332 0 -23408.66623859 0 297
0.01850000 0.01844180 73159.94334621 0 -1954.69715116 0 31583.25292895 0 26596.05638413 0 -21207.37734139 0 388
0.01950000 0.01947590 76932.72730492 0 -2674.40933670 0 5255.57862609 0 27768.06196619 0 -24164.35240746 0 399
0.02050000 0.02045430 78165.18778048 0 -766.18605450 0 7377.88863036 0 -3086.13373508 0 -18645.68427135 0 462
0.02150000 0.02154770 75609.69521234 0 4996.24263419 0 8888.79593046 0 -14878.54719830 0 -13721.37853151 0 571
0.02250000 0.02255340 75413.71506305 0 6480.37705288 0 29144.24121790 0 -7637.53464735 0 -4075.80027202 0 510
0.02350000 0.02348930 67467.55043370 0 1320.91727854 0 24243.51952992 0 -9236.09047072 0 -6483.77625660 0 555
0.02450000 0.02439640 71575.93655766 0 2296.42231204 0 34620.72379645 0 4410.29520479 0 4936.03133183 0 592
0.02550000 0.02547300 69891.72522949 0 2884.70600198 0 36060.56891586 0 10073.60112000 0 -8090.72490218 0 837
0.02650000 0.02652900 68468.04570431 0 2913.68227603 0 43106.22136771 0 8834.43081560 0 7343.33190460 0 723
0.02750000 0.02749970 66542.34697185 0 -231.66293048 0 38198.41339185 0 -6157.58556744 0 -1686.08255106 0 826
0.02850000 0.02848090 65582.37641008 0 3993.04571632 0 44128.08622523 0 6115.28928664 0 9883.47823054 0 831
0.02950000 0.02946900 62648.98539587 0 2695.64605570 0 36404.58604798 0 734.29443732 0 -1372.33715500 0 996
0.03050000 0.03053250 64015.08883200 0 -3631.31286450 0 38013.28412088 0 1255.73450233 0 2958.64698712 0 1041
0.03150000 0.03150510 65182.99765387 0 -1868.94199544 0 30733.23055262 0 5383.96223237 0 -2394.25737413 0 1036
0.03250000 0.03246190 65068.06692225 0 4810.90298905 0 28588.18906550 0 11630.03781976 0 -253.62710123 0 1059
0.03350000 0.03345080 60927.46033307 0 851.09749907 0 25052.46358117 0 8750.28114698 0 4638.83906137 0 1302
0.03450000 0.03451200 60897.01143982 0 2668.23097945 0 24795.69636862 0 8230.23619490 0 4247.22200486 0 1339
0.03550000 0.03553350 55234.62452756 0 4413.63904688 0 24491.53960585 0 4599.56552524 0 7253.14781895 0 1365
0.03650000 0.03647120 53390.63955226 0 5084.69943717 0 24129.14241454 0 1639.44591892 0 7453.25794540 0 1308
0.03750000 0.03744890 50909.33156041 0 48.32084346 0 22572.04137529 0 -917.52812628 0 6545.39374422 0 1579
0.03850000 0.03847530 49450.22059580 0 -805.51384502 0 20814.53125683 0 671.10578682 0 5072.44237359 0 1662
0.03950000 0.03950240 51541.78275405 0 -342.27766989 0 23995.16728423 0 1016.05631591 0 4512.73635401 0 1683
0.04050000 0.04050350 52989.48922408 0 1177.85176956 0 20173.22220333 0 1011.24649801 0 633.55288996 0 1822
0.04150000 0.04152450 50439.97571134 0 2225.84731364 0 18929.68940295 0 4058.20634788 0 3289.44376340 0 1887
0.04250000 0.04250150 49298.97263878 0 43.39354820 0 19383.65472051 0 5471.84327445 0 5322.42225102 0 1920
0.04350000 0.04349210 48671.94688430 0 -739.25483884 0 14835.91874775 0 5015.40882845 0 -2858.60853238 0 2005
0.04450000 0.04448520 49605.78675951 0 863.84949556 0 17697.00748089 0 4006.11105961 0 -2268.91865719 0 2151
0.04550000 0.04548030 45674.11493965 0 3296.79578708 0 14228.71245470 0 -2814.09778661 0 -4606.39714965 0 2274
0.04650000 0.04648670 43087.17696902 0 3965.88530354 0 14147.99520677 0 -4784.20761391 0 491.84152630 0 2311
0.04750000 0.04749250 41061.16297371 0 2612.86935535 0 15476.56346176 0 -3161.46983314 0 -2559.30144788 0 2568
0.04850000 0.04851840 39135.68568775 0 1645.60213152 0 17277.47709351 0 -2687.09822094 0 -4294.06901117 0 2493
0.04950000 0.04949480 39532.73925574 0 738.57278363 0 18294.58085135 0 -1074.41743280 0 -10243.51701667 0 2644
0.05050000 0.05050630 37450.81002009 0 1096.36610229 0 17324.86664374 0 1258.50258354 0 -9157.97521913 0 2829
0.05150000 0.05149060 38066.20983351 0 773.14058172 0 16837.02001223 0 466.23677516 0 -8307.74246863 0 2784
0.05250000 0.05249300 36669.76822739 0 226.07140645 0 16603.39395855 0 1371.03062067 0 -9030.74313464 0 3055
0.05350000 0.05348950 37470.51875827 0 -192.66288077 0 16835.13771701 0 417.23287998 0 -6205.67267413 0 3009
0.05450000 0.05448610 37748.43411122 0 -608.18730103 0 15571.01039246 0 3807.04173169 0 -6045.41184471 0 3336
0.05550000 0.05550870 37291.14709621 0 -929.02562837 0 13406.48161367 0 4369.22795204 0 -4227.13680764 0 3349
0.05650000 0.05647670 37941.86762580 0 353.89475309 0 9816.99999233 0 5030.96544482 0 -4778.27284781 0 3324
0.05750000 0.05747970 37945.74293949 0 557.49930525 0 10446.88240662 0 2270.56843359 0 -5510.86214711 0 3639
0.05850000 0.05849280 36184.24678409 0 1600.11702117 0 6719.46176269 0 -1025.32938795 0 -4422.48583441 0 3846
0.05950000 0.05951020 33742.02409884 0 2693.09942099 0 6843.51608996 0 -1220.02625479 0 -67.23436727 0 3787
0.06050000 0.06049470 32583.41602982 0 1770.22114736 0 8272.18923363 0 -783.77333524 0 853.09494646 0 3930
0.06150000 0.06148310 31908.55783212 0 -306.12431489 0 10233.85087710 0 665.47661688 0 -2460.55845515 0 4083
0.06250000 0.06249100 32757.36225272 0 -157.76069848 0 11269.74437016 0 -182.22167847 0 -2075.25262378 0 4303
0.06350000 0.06350600 32716.39465089 0 638.85099739 0 12087.10338828 0 -1193.30873500 0 -3420.20791951 0 4470
0.06450000 0.06451750 31566.86588822 0 850.87826704 0 11939.39857519 0 -497.99330997 0 -5.02670260 0 4479
0.06550000 0.06550280 31856.96079846 0 809.19539302 0 14178.44410002 0 718.41783077 0 770.91282996 0 4636
0.06650000 0.06648880 31127.73748591 0 122.24732386 0 13393.74844012 0 1756.89006827 0 654.30131944 0 4653
0.06750000 0.06749660 30919.90994906 0 357.34046057 0 12908.78061307 0 2688.36046597 0 -214.70123609 0 5220
0.06850000 0.06852730 30161.23425249 0 1096.60415727 0 12090.20363922 0 435.10029054 0 -345.84738741 0 5029
0.06950000 0.06949320 29275.22682050 0 762.10811727 0 12012.03302600 0 46.10117451 0 3368.47801795 0 5040
0.07050000 0.07048030 29310.21536693 0 232.17668635 0 11271.18377239 0 1544.12427456 0 -457.14528925 0 5475
0.07150000 0.07148790 28469.93663644 0 -269.93220675 0 10644.49018765 0 -949.34002272 0 1254.23973848 0 5509
0.07250000 0.07249820 29411.97003201 0 395.56323308 0 12621.78595377 0 133.91091082 0 -628.57366549 0 5916
0.07350000 0.07351270 28789.92682370 0 515.52190739 0 12120.76325572 0 287.67892897 0 -505.55127889 0 5721
0.07450000 0.07449140 28077.86561461 0 1009.40184870 0 11055.15164285 0 -262.63554470 0 -189.53273455 0 6028
0.07550000 0.07549160 27416.51565319 0 472.77609020 0 11154.37074555 0 1726.15329458 0 -1692.60415038 0 6183
0.07650000 0.07648840 26788.27194298 0 -368.76709978 0 9995.12048169 0 1626.08162287 0 -1421.77508531 0 6330
0.07750000 0.07749960 26606.46436946 0 364.05804004 0 9280.53478254 0 1494.59776564 0 -3045.49830299 0 6583
0.07850000 0.07848650 26870.87148613 0 714.20591840 0 8478.20090921 0 775.64624882 0 -2181.01547045 0 6549
0.07950000 0.07947320 25436.23035938 0 769.12132781 0 7520.27872753 0 451.68552588 0 -2825.22547305 0 6828
0.08050000 0.08048110 25024.33987613 0 1402.58674640 0 8022.30900713 0 -878.47271495 0 -1413.44869705 0 7147
0.08150000 0.08149960 24080.75635508 0 627.48747042 0 8574.99517278 0 -629.91009510 0 -1393.59601865 0 7386
0.08250000 0.08250610 23344.00386165 0 270.37620698 0 8445.62612959 0 1145.35449622 0 72.32896537 0 7227
0.08350000 0.08350160 23915.11437579 0 111.18385690 0 9500.36471949 0 583.04980200 0 -261.25593303 0 7798
0.08450000 0.08449610 23979.55530624 0 93.12434150 0 8976.86520207 0 248.64234059 0 265.00170051 0 7371
0.08550000 0.08548940 23711.71576888 0 288.04431569 0 10140.21222611 0 91.54044544 0 1516.98600643 0 8256
0.08650000 0.08650700 23329.05622314 0 364.50646919 0 9756.41223092 0 791.92478077 0 2798.06506027 0 8037
0.08750000 0.08749060 23117.79626560 0 423.77551671 0 10170.56146844 0 885.06849884 0 2428.62587037 0 8155
0.08850000 0.08849210 22612.56608413 0 862.77548005 0 10156.18959083 0 1815.70625771 0 2864.87546823 0 8718
0.08950000 0.08949900 21349.98888506 0 1561.54104150 0 9248.04858153 0 754.30102104 0 4313.98812352 0 8571
0.09050000 0.09049190 20920.05051235 0 258.32287418 0 8428.37544753 0 1163.87849564 0 3623.96084082 0 8932
0.09150000 0.09150830 19924.42706466 0 -281.22487084 0 8311.23025095 0 1582.01377009 0 4301.57604739 0 9285
0.09250000 0.09250820 20653.42893072 0 200.58070025 0 7483.21965636 0 463.23506790 0 3038.82169113 0 9204
0.09350000 0.09350330 19955.09740441 0 559.57315168 0 7493.31761659 0 473.68069914 0 4028.67645759 0 9349
0.09450000 0.09448040 19572.88075167 0 865.00323181 0 7646.24856699 0 -485.94883504 0 3895.37673910 0 9564
0.09550000 0.09549270 18724.18705432 0 694.86588864 0 6964.93520392 0 252.79778410 0 3916.63560275 0 10155
0.09650000 0.09649430 18644.35559237 0 90.61823150 0 7827.59110287 0 170.95780243 0 3544.95980324 0 9913
0.09750000 0.09749140 18242.76237120 0 160.99049563 0 7264.04298657 0 154.46225292 0 1706.63278592 0 10476
0.09850000 0.09850240 17976.25151282 0 417.01364795 0 7541.08362586 0 332.19299644 0 1319.85433536 0 10575
0.09950000 0.09950330 17414.33102827 0 714.29892593 0 6705.58813969 0 -476.79645134 0 972.98497237 0 10882
0.10050000 0.10051200 17040.97223539 0 114.64285117 0 6175.81061410 0 -208.93698379 0 318.13446562 0 10875
0.10150000 0.10150300 16872.67289814 0 106.76511351 0 6527.75553078 0 36.60809538 0 -39.32446883 0 11118
0.10250000 0.10250800 17024.03157841 0 303.03070733 0 7022.99847527 0 -293.81964032 0 -436.07686959 0 11575
0.10350000 0.10349800 16983.50686958 0 0.18910977 0 6978.18877673 0 216.15171064 0 -18.40929014 0 11364
0.10450000 0.10450100 16820.96514124 0 -5.15189738 0 7011.08465377 0 -275.47058363 0 -693.66454140 0 12093
0.10550000 0.10551000 16928.47741523 0 226.98708771 0 7289.09965764 0 213.25297601 0 -547.99260716 0 12067
0.10650000 0.10649700 16686.87928769 0 549.70438857 0 7527.95184862 0 -111.33111882 0 -726.78850833 0 12054
0.10750000 0.10749900 16107.46452993 0 357.51872500 0 6933.35693354 0 340.04438197 0 -475.84090971 0 12807
0.10850000 0.10850100 15736.76309500 0 327.17723330 0 6504.19362357 0 1013.59825980 0 -50.58934137 0 12736
0.10950000 0.10950300 15713.40048963 0 131.58904431 0 5833.11108863 0 1238.62776049 0 -726.53605932 0 12933
0.11050000 0.11050200 15372.15143872 0 42.45428288 0 5316.12209820 0 1169.11570528 0 -261.10534941 0 13428
0.11150000 0.11150900 15332.62323912 0 144.60013320 0 5118.08249650 0 664.21437185 0 -653.64915951 0 13453
0.11250000 0.11250000 15290.43768156 0 231.72493550 0 4953.38166482 0 65.59588465 0 154.60730037 0 13668
0.11350000 0.11349100 14972.32978952 0 555.94475084 0 5487.13415503 0 -492.82031982 0 -1.97220250 0 13791
0.11450000 0.11448600 14507.73504013 0 709.39277881 0 5841.72535734 0 -432.86921709 0 1313.79777368 0 14205
0.11550000 0.11549300 14328.58482456 0 227.42223008 0 6046.96197018 0 -50.24277761 0 1125.87827686 0 14776
0.11650000 0.11649800 13961.20508708 0 -101.61980417 0 6262.00866281 0 228.19507835 0 1145.97454641 0 14553
0.11750000 0.11747300 14215.86855791 0 33.71600414 0 6528.71882304 0 727.12178531 0 972.18222882 0 14568
0.11850000 0.11849100 14085.10440180 0 -74.37645967 0 5817.48803832 0 1063.33292842 0 1271.33540800 0 16015
0.11950000 0.11950300 14236.02018908 0 -154.83981919 0 5195.07944328 0 680.49511826 0 1342.19828684 0 15270
0.12050000 0.12050700 14482.60086279 0 -178.00865888 0 5108.42742925 0 558.14814348 0 1942.94941453 0 15999
0.12150000 0.12150000 14639.49570547 0 -231.41158871 0 5225.30689004 0 366.06877422 0 1824.94057661 0 15670
0.12250000 0.12250700 14311.86561409 0 450.87613894 0 5158.89508578 0 -17.03820415 0 1729.37534110 0 16887
0.12350000 0.12352200 14221.62616681 0 584.33972784 0 5345.14266155 0 -147.47118703 0 2116.86242045 0 16407
0.12450000 0.12449800 13775.30075337 0 445.70204155 0 5558.97139845 0 -282.94218842 0 2199.36231268 0 16306
0.12550000 0.12549900 13412.68211556 0 341.09403836 0 5536.08490305 0 366.15292389 0 2667.03516837 0 17523
0.12650000 0.12650100 12984.51531483 0 151.19923879 0 5015.70778122 0 729.64627536 0 1999.00859508 0 17154
0.12750000 0.12750600 12785.76708433 0 303.79912668 0 4508.99390822 0 782.91190837 0 2038.71395188 0 18007
0.12850000 0.12850300 12631.19742986 0 197.19367609 0 4007.65011276 0 448.71149944 0 1228.08690726 0 17496
0.12950000 0.12949900 12252.08102807 0 323.01403917 0 3946.29836094 0 -52.12263691 0 822.66709063 0 18405
0.13050000 0.13049000 12145.45454007 0 339.73103518 0 3687.15059856 0 -677.35500694 0 715.41390904 0 18100
0.13150000 0.13148800 11834.76510566 0 60.31095329 0 3866.27866947 0 -423.39573597 0 688.24242394 0 19059
0.13250000 0.13249300 11953.68187421 0 -150.61683451 0 3899.79459670 0 160.04270463 0 224.68404415 0 18957
0.13350000 0.13349100 12044.58566097 0 -20.11265659 0 3974.72101875 0 217.12939693 0 339.59595282 0 19468
0.13450000 0.13450700 12077.24901919 0 -84.23027515 0 3984.67503876 0 444.59370184 0 53.58983068 0 19953
0.13550000 0.13551000 12055.43653929 0 66.77741243 0 3532.87989686 0 451.04222381 0 646.08011826 0 19956
0.13650000 0.13649900 12264.37130862 0 -28.49185984 0 3678.70241472 0 628.96119686 0 828.98717364 0 19723
0.13750000 0.13749600 12266.36432709 0 -150.40867480 0 3280.72984376 0 636.83251257 0 759.70763725 0 20946
0.13850000 0.13851100 12256.50995800 0 89.59027687 0 3467.27637231 0 -174.51755486 0 628.11305678 0 20955
0.13950000 0.13949800 12144.34730759 0 493.05505310 0 3317.12457544 0 -233.42232290 0 738.48309780 0 20506
0.14050000 0.14048300 11695.80742918 0 493.14473894 0 3465.28335384 0 -318.70579758 0 765.18068740 0 21447
0.14150000 0.14148400 11391.53994317 0 215.54273278 0 3385.07543286 0 94.76559221 0 733.46401296 0 21771
0.14250000 0.14249400 11312.26209747 0 -24.92945005 0 3210.35414722 0 453.37184095 0 474.54766217 0 22470
0.14350000 0.14350900 11204.08548399 0 63.39160622 0 2946.57815306 0 209.29019095 0 119.25890339 0 22519
0.14450000 0.14449900 11308.49750703 0 82.02389298 0 3019.29011015 0 157.52928689 0 -18.48934304 0 22218
0.14550000 0.14550500 11024.28200126 0 123.53946416 0 2906.66242209 0 -102.26543143 0 141.56963790 0 23559
0.14650000 0.14650700 10829.99591767 0 372.82178513 0 2834.54837055 0 -88.14024521 0 331.83203865 0 23044
0.14750000 0.14750500 10563.85044600 0 370.35265670 0 2980.66984118 0 63.70938194 0 231.63414244 0 23649
0.14850000 0.14849900 10236.07641439 0 229.53593689 0 3081.66051585 0 388.27764335 0 733.36325481 0 23640
0.14950000 0.14949500 10009.11590026 0 147.60516216 0 2561.99202281 0 631.36278411 0 481.77013965 0 24457
0.15050000 0.15050000 10055.89647262 0 48.81112601 0 2553.00129506 0 555.57825689 0 571.46482854 0 24591
0.15150000 0.15149900 9905.61180786 0 23.63099852 0 2236.08921410 0 155.57059263 0 267.28813559 0 25020
0.15250000 0.15250500 9829.02453709 0 219.87976241 0 2364.99321964 0 -326.69005101 0 57.63754046 0 25297
0.15350000 0.15350100 9679.03882509 0 361.69409869 0 2475.94898665 0 -526.11147885 0 190.11181714 0 25452
0.15450000 0.15450400 9340.02638379 0 200.05808652 0 2409.68112261 0 -427.44377793 0 -286.15094815 0 26061
0.15550000 0.15549900 9364.34120910 0 -1.43320172 0 2591.62156403 0 -84.09895737 0 -441.87766056 0 26128
0.15650000 0.15649500 9401.98711348 0 -26.34250015 0 2560.71870546 0 -80.02533835 0 -677.47790975 0 26331
0.15750000 0.15749700 9507.48422435 0 31.72243205 0 2498.44795068 0 65.03750731 0 -560.14448365 0 27345
0.15850000 0.15849900 9390.90371634 0 33.08233499 0 2589.80570276 0 218.02957693 0 -500.77799967 0 26980
0.15950000 0.15949700 9380.98291330 0 128.65819993 0 2504.73703117 0 170.68653047 0 -596.41852698 0 27777
0.16050000 0.16050000 9329.66268776 0 187.40684818 0 2797.04640639 0 -44.60497126 0 -319.99683065 0 28224
0.16150000 0.16150500 8960.72175248 0 395.77582171 0 2870.54449853 0 -151.18816647 0 -183.23701066 0 28075
0.16250000 0.16249700 8899.68002576 0 221.88496044 0 2895.42401240 0 -45.01486872 0 287.78411606 0 28590
0.16350000 0.16349900 8678.58784378 0 34.41655013 0 2931.25405551 0 -3.59210576 0 105.87932752 0 29163
0.16450000 0.16449100 8826.34801848 0 -52.63517483 0 2766.53107919 0 321.75622307 0 -85.71629186 0 28996
0.16550000 0.16550500 8771.62858923 0 -85.93917776 0 2724.35659395 0 137.14292244 0 -125.66867223 0 30777
0.16650000 0.16650700 8813.67020657 0 66.19578321 0 2530.65734358 0 276.62321264 0 -210.98647112 0 29211
0.16750000 0.16749900 8776.20145938 0 138.47603034 0 2355.98034724 0 332.28489674 0 -155.85847308 0 30922
0.16850000 0.16850800 8556.58189660 0 188.72888377 0 2248.54557952 0 334.95775595 0 -36.11570909 0 30867
0.16950000 0.16949900 8428.41973683 0 147.49997507 0 2300.87338661 0 270.72055628 0 -101.73285260 0 30852
0.17050000 0.17049200 8423.32646741 0 70.65494058 0 2175.47930804 0 84.30911010 0 278.26080948 0 31257
0.17150000 0.17149500 8295.25288623 0 76.17338727 0 2231.80422440 0 183.65333007 0 777.94818515 0 32608
0.17250000 0.17250900 8258.42633389 0 61.26804504 0 2160.15521049 0 204.80368494 0 729.19452451 0 32361
0.17350000 0.17350400 8137.50547454 0 109.39711584 0 2219.64681174 0 127.50003475 0 779.18053491 0 32508
0.17450000 0.17449800 8208.91089730 0 139.38617544 0 1975.85636389 0 174.91394409 0 511.68977577 0 32791
0.17550000 0.17549800 7938.75724405 0 54.89237897 0 1847.25131112 0 -34.05581378 0 757.47656380 0 33633
0.17650000 0.17650100 8071.81337139 0 29.63950631 0 1795.22245680 0 -29.49401596 0 167.64496285 0 33984
0.17750000 0.17750300 8005.33513318 0 -25.45649271 0 1626.85668560 0 -70.35953095 0 -16.22604913 0 34069
0.17850000 0.17849800 7895.82984072 0 177.00661348 0 1721.10431446 0 -222.65005808 0 -194.92606397 0 34536
