### header ###
fiducial parameters:
Omega_m = 0.31
Omega_nu = 0
Omega_de = 0.69
Omega_k = 0
H_0 = 100
w_de = -1
zeff = 0
beta = 0
fgrowth = 0
b_1 = 2
gamma = 0.55
Lx = 3500 Ly = 3500 Lz = 3500
nx = 700 ny = 700 nz = 700
xoffset = -685.467585 yoffset = -31.7331281 zoffset = 572.489161
bins = 400 dk = 0.001
kx_ny = 0.628318531 ky_ny = 0.628318531 kz_ny = 0.628318531
############################
A(data) = 8.07759257 (not used)
A(ran) = 8.07837424 (used)
Ngal = 480620
weighted Ngal = 0
Nran = 23820508
weighted Nran = 0
SN(data) = 3482.19224
SN(ran) = 70.3655694
SN(data+ran) = 3552.55781
############################
13 columns: k_central k_mean P_0(k) sigma^{lin}_{P_0(k)} P^img_1(k) sigma^{lin}_{P_1(k)} P_2(k) sigma^{lin}_{P_2(k)} P^img_3(k) sigma^{lin}_{P_3(k)} P_4(k) sigma^{lin}_{P_4(k)} N_modes
### header ###
0.00050000 0 0 0 0 0 0 0 0 0 0 0 0
0.00150000 0.00179520 48718.56137179 0 -36699.22061140 0 32581.75518109 0 -96712.66053069 0 5503.00079649 0 3
0.00250000 0.00253879 77409.94450460 0 -15919.78862425 0 12863.93769755 0 -39497.63998607 0 42443.76417381 0 6
0.00350000 0.00331552 89378.90618706 0 -4587.20881074 0 20707.24042934 0 -27111.80527419 0 -19735.64392650 0 7
0.00450000 0.00420575 87421.76205212 0 2966.71871191 0 43221.70571557 0 -32635.78812621 0 63226.96075141 0 24
0.00550000 0.00557378 79197.12845358 0 22575.69524248 0 81116.07306790 0 14104.70241673 0 11506.80284453 0 45
0.00650000 0.00659388 69372.87608849 0 10619.62174611 0 74288.32396848 0 53227.87637743 0 43871.98335217 0 40
0.00750000 0.00754703 67610.49414711 0 -9502.97778815 0 53661.57934058 0 54474.62015201 0 -24088.39625921 0 57
0.00850000 0.00846663 68630.91960239 0 -6477.27680193 0 49912.71160348 0 25476.86579146 0 -1063.39936237 0 75
0.00950000 0.00948925 74377.78835302 0 12376.86612878 0 31299.69069034 0 19180.03466710 0 -13595.70764482 0 112
0.01050000 0.01054430 67947.20354484 0 -2986.40530544 0 26250.93201954 0 1314.66141502 0 38352.20798358 0 105
0.01150000 0.01145670 68321.44812371 0 -11321.89502006 0 6044.91359009 0 7648.47410428 0 17533.02635033 0 144
0.01250000 0.01249090 84096.63218583 0 -15048.83955401 0 15439.13900387 0 22463.08969908 0 14952.39960484 0 169
0.01350000 0.01339930 88555.34666705 0 -18963.12782390 0 -3682.51129446 0 7230.75957817 0 774.93097664 0 180
0.01450000 0.01448870 91627.14174149 0 7841.40936424 0 -9167.75208194 0 -2149.20468125 0 690.86877938 0 267
0.01550000 0.01550050 98961.89259435 0 6447.01613820 0 -8442.50373400 0 -2771.89008440 0 920.95833251 0 238
0.01650000 0.01653350 76621.59497751 0 7875.47890771 0 -13558.28318693 0 -15274.60425707 0 4568.54087110 0 315
0.01750000 0.01747870 78996.38720462 0 6445.22242158 0 -7435.71938289 0 -23772.50283213 0 -19371.80733296 0 297
0.01850000 0.01844180 75366.54695932 0 -1405.25517668 0 817.31362158 0 -4856.65383520 0 -15960.75622608 0 388
0.01950000 0.01947590 77940.19814017 0 -2188.40071111 0 9683.99922661 0 1107.57572393 0 930.69754942 0 399
0.02050000 0.02045430 78659.45636039 0 -4258.54899315 0 -880.26975327 0 3762.40919035 0 -4790.96173205 0 462
0.02150000 0.02154770 84200.49059263 0 3890.51598850 0 9777.28356321 0 4693.72457550 0 -4873.82701100 0 571
0.02250000 0.02255340 81015.64708179 0 3554.96918487 0 8825.93834246 0 -841.54872614 0 17909.15322442 0 510
0.02350000 0.02348930 76386.41879837 0 7746.24273242 0 19509.32560721 0 -895.20631945 0 12974.32877599 0 555
0.02450000 0.02439640 69390.48108495 0 4519.60119540 0 20129.48652030 0 2106.38800117 0 23777.15320855 0 592
0.02550000 0.02547300 69240.89397665 0 2635.06936662 0 18256.71350047 0 -42.89617937 0 21.90991635 0 837
0.02650000 0.02652900 61030.43295388 0 7184.56583902 0 16756.63493404 0 -363.52435398 0 2494.07438237 0 723
0.02750000 0.02749970 60304.08844578 0 2544.61954517 0 16118.42613150 0 71.05431934 0 -4217.02777508 0 826
0.02850000 0.02848090 56715.54797206 0 1158.60806902 0 13174.73785521 0 3363.19651901 0 1651.69191017 0 831
0.02950000 0.02946900 54552.56931873 0 695.53576430 0 16247.75088538 0 -137.26250354 0 -7973.64613955 0 996
0.03050000 0.03053250 56112.43843918 0 2393.58196232 0 18372.64074132 0 -1842.41270517 0 -3222.31225802 0 1041
0.03150000 0.03150510 56643.46713749 0 1.09062289 0 21115.03415241 0 -6312.78634443 0 4099.60577038 0 1036
0.03250000 0.03246190 55554.06109858 0 2823.80821547 0 27563.88829653 0 -6207.14529333 0 8977.48525226 0 1059
0.03350000 0.03345080 57352.87098862 0 1412.95044243 0 35667.50138480 0 -2316.90611295 0 6771.26917052 0 1302
0.03450000 0.03451200 55778.82929240 0 1671.10169558 0 35167.36447274 0 497.49505536 0 1309.87817070 0 1339
0.03550000 0.03553350 54276.75770750 0 372.18734092 0 32859.33836430 0 4053.66669470 0 3273.17851824 0 1365
0.03650000 0.03647120 54490.34285325 0 1926.37414427 0 28093.92048560 0 4397.01948733 0 -4722.02543773 0 1308
0.03750000 0.03744890 51372.92980056 0 2768.72339950 0 26227.01579793 0 5813.67915858 0 -4890.20297940 0 1579
0.03850000 0.03847530 47981.80887836 0 2190.67053769 0 18388.80633556 0 7684.99063153 0 -5395.68782435 0 1662
0.03950000 0.03950240 47699.02170249 0 1241.00831032 0 17270.72297537 0 5388.26936672 0 -3198.42925339 0 1683
0.04050000 0.04050350 44285.64540740 0 -720.95782208 0 10177.38202053 0 3489.84177029 0 -3238.94288990 0 1822
0.04150000 0.04152450 46718.23517005 0 228.13196610 0 18365.44373019 0 2222.52561620 0 -2303.67468479 0 1887
0.04250000 0.04250150 45438.38514426 0 96.11763379 0 12845.33619186 0 -2620.38746391 0 -2076.60344741 0 1920
0.04350000 0.04349210 46171.26232401 0 1551.48737056 0 20395.99737868 0 -1382.72299568 0 -1768.29456284 0 2005
0.04450000 0.04448520 45436.94574204 0 1310.89682458 0 19051.04208296 0 -979.19211766 0 718.87290332 0 2151
0.04550000 0.04548030 43425.65793873 0 1350.63539835 0 20622.20497473 0 1759.27061811 0 -673.48855112 0 2274
0.04650000 0.04648670 41309.62594264 0 2076.16055442 0 16042.02709025 0 3756.43013495 0 2658.18838084 0 2311
0.04750000 0.04749250 41136.78695222 0 839.00209144 0 13780.94763903 0 7709.50475868 0 -750.18875960 0 2568
0.04850000 0.04851840 39423.67685628 0 -373.56252366 0 6827.53872525 0 5819.69143095 0 -3452.38409543 0 2493
0.04950000 0.04949480 39570.38516013 0 -30.72049738 0 5557.41020065 0 2408.96142149 0 -4191.38427080 0 2644
0.05050000 0.05050630 39004.25719215 0 724.34373901 0 4823.00504008 0 -1441.06307515 0 -4356.67193569 0 2829
0.05150000 0.05149060 37963.01576620 0 94.71554530 0 4194.92741474 0 -4786.74317630 0 -6401.65282342 0 2784
0.05250000 0.05249300 38561.91781564 0 1248.57070817 0 8947.12493760 0 -3316.80347802 0 -2167.28578768 0 3055
0.05350000 0.05348950 37090.95946349 0 1670.44842841 0 10505.59894513 0 -3128.24178636 0 -4515.74802636 0 3009
0.05450000 0.05448610 36359.41096272 0 2014.80880260 0 13758.80298939 0 -77.97120065 0 74.94734874 0 3336
0.05550000 0.05550870 35897.80574103 0 956.06646005 0 12400.00728765 0 3153.12130023 0 -99.99283676 0 3349
0.05650000 0.05647670 35451.14815785 0 -93.39118453 0 16581.13858567 0 2003.53717593 0 3932.40259329 0 3324
0.05750000 0.05747970 34927.87008692 0 621.09873900 0 14963.13975992 0 1977.19611519 0 2920.80178089 0 3639
0.05850000 0.05849280 34552.51827556 0 -297.22548743 0 15238.95137115 0 1638.34975877 0 2010.65668079 0 3846
0.05950000 0.05951020 33632.51880638 0 1391.34833671 0 13556.06872197 0 -572.31961202 0 1208.71033883 0 3787
0.06050000 0.06049470 32947.36334660 0 1828.39514195 0 12909.99856880 0 1021.06322120 0 -639.92390566 0 3930
0.06150000 0.06148310 31240.12158282 0 916.17176649 0 11995.86743177 0 -563.23144780 0 -2493.34360894 0 4083
0.06250000 0.06249100 29914.54285553 0 591.11709786 0 8922.72153370 0 -1020.34462732 0 -3907.25734363 0 4303
0.06350000 0.06350600 29914.54285553 0 408.46470595 0 10503.69450526 0 296.13707790 0 -5246.06749907 0 4470
0.06450000 0.06451750 30515.43792344 0 -939.92854662 0 8589.62171386 0 596.45506566 0 -8982.22420728 0 4479
0.06550000 0.06550280 29946.54187426 0 -395.52447994 0 9431.43949750 0 787.89666900 0 -7801.67079047 0 4636
0.06650000 0.06648880 31529.66287683 0 1179.49047363 0 8980.55228623 0 -1820.27912786 0 -6997.36604332 0 4653
0.06750000 0.06749660 29814.11686942 0 997.92759849 0 9899.78776500 0 190.65657552 0 -4100.84587076 0 5220
0.06850000 0.06852730 30333.85179641 0 -9.86845309 0 9972.46650511 0 -1.99327313 0 -4350.28320427 0 5029
0.06950000 0.06949320 29610.71826251 0 -530.56698236 0 10936.63347799 0 577.13939501 0 -2303.44216597 0 5040
0.07050000 0.07048030 31077.91202422 0 -49.19777159 0 11898.98458961 0 1517.74999684 0 -3178.34405617 0 5475
0.07150000 0.07148790 30062.46911511 0 116.34356026 0 11886.25141607 0 1204.91253141 0 -369.20002768 0 5509
0.07250000 0.07249820 29860.39918717 0 534.47994195 0 10371.40236833 0 1653.62956702 0 -124.51382875 0 5916
0.07350000 0.07351270 28938.51742277 0 473.94422047 0 9636.42144686 0 1880.32434535 0 256.49926228 0 5721
0.07450000 0.07449140 29122.98235424 0 835.76786536 0 8793.29712890 0 1765.81436208 0 568.18963486 0 6028
0.07550000 0.07549160 27705.50333096 0 1153.91340330 0 7621.55728264 0 767.11280809 0 -20.39334002 0 6183
0.07650000 0.07648840 26638.46338819 0 1291.69741334 0 6475.50522996 0 220.90063076 0 -658.10134132 0 6330
0.07750000 0.07749960 25544.96058910 0 916.23044981 0 7093.31881019 0 -1324.42720551 0 -575.04561839 0 6583
0.07850000 0.07848650 25066.08254069 0 439.88907102 0 6858.43051149 0 -482.38908261 0 -1590.55053252 0 6549
0.07950000 0.07947320 24846.40761629 0 393.57685800 0 8768.78300175 0 122.26393234 0 -1464.41460819 0 6828
0.08050000 0.08048110 24435.07074928 0 864.77403468 0 7556.48522968 0 43.87995543 0 -926.73144267 0 7147
0.08150000 0.08149960 23781.80358498 0 627.19958998 0 8504.05478766 0 696.55884711 0 224.90881234 0 7386
0.08250000 0.08250610 23620.14764263 0 -54.83137046 0 7967.40134835 0 990.38513082 0 1394.11641792 0 7227
0.08350000 0.08350160 23823.65697279 0 -204.07844766 0 8672.47592048 0 1820.17947694 0 1535.04496821 0 7798
0.08450000 0.08449610 23879.46148988 0 43.85083521 0 7907.19004599 0 1333.82760928 0 2456.26239312 0 7371
0.08550000 0.08548940 24132.24266549 0 89.13465070 0 7613.58520877 0 1512.05882188 0 2847.37012269 0 8256
0.08650000 0.08650700 23027.33537184 0 699.20956167 0 7297.61427542 0 -973.23188521 0 2045.72273349 0 8037
0.08750000 0.08749060 22773.66841024 0 1309.73423047 0 7155.79993915 0 -212.92634242 0 1740.81305264 0 8155
0.08850000 0.08849210 21235.83321618 0 1208.18993956 0 6884.12937739 0 -376.08258479 0 2343.93365783 0 8718
0.08950000 0.08949900 20591.86680473 0 726.57038353 0 7411.75887198 0 122.52745368 0 1226.25997367 0 8571
0.09050000 0.09049190 20658.41147689 0 -601.33796090 0 5929.65068873 0 830.04347342 0 231.34847646 0 8932
0.09150000 0.09150830 20739.23944806 0 -130.60250017 0 7040.59239941 0 383.67709238 0 -717.58629917 0 9285
0.09250000 0.09250820 20493.87673008 0 451.43307688 0 6428.09353509 0 -380.20148962 0 -678.60728688 0 9204
0.09350000 0.09350330 20035.37175934 0 957.31320382 0 6736.57957686 0 184.44500129 0 -360.66547971 0 9349
0.09450000 0.09448040 19594.36106181 0 571.88779135 0 6373.35196119 0 -14.81521350 0 -35.78198922 0 9564
0.09550000 0.09549270 19332.72202635 0 11.55607469 0 6793.32524156 0 419.58242731 0 307.85602649 0 10155
0.09650000 0.09649430 19248.12946473 0 258.16453994 0 6414.52993719 0 518.95211362 0 -213.58736022 0 9913
0.09750000 0.09749140 18891.26843583 0 657.02400411 0 6883.57576115 0 -714.50487117 0 -1245.97978417 0 10476
0.09850000 0.09850240 18081.43859859 0 571.80917784 0 6673.17944495 0 -520.63289253 0 -228.67561725 0 10575
0.09950000 0.09950330 17720.92370250 0 435.95728848 0 6830.80506107 0 502.60493326 0 -451.08097695 0 10882
0.10050000 0.10051200 17564.13958307 0 75.26457085 0 6052.45384329 0 767.50144669 0 -968.02899978 0 10875
0.10150000 0.10150300 17115.26753492 0 194.81312625 0 6397.63356951 0 837.09100817 0 -1502.95737088 0 11118
0.10250000 0.10250800 16892.82452931 0 540.25194488 0 5883.21335844 0 -165.11493663 0 -1497.21083430 0 11575
0.10350000 0.10349800 16785.09080883 0 466.17034121 0 6194.85501278 0 -472.95989079 0 -1174.97296511 0 11364
0.10450000 0.10450100 16277.86760888 0 252.77010328 0 6350.60940601 0 -4.09880856 0 -1283.75855645 0 12093
0.10550000 0.10551000 15984.00810820 0 171.26782753 0 6138.15363739 0 -169.65901873 0 -1089.12037293 0 12067
0.10650000 0.10649700 16220.95585932 0 145.83137572 0 6873.04598025 0 61.04626638 0 -887.28185657 0 12054
0.10750000 0.10749900 16300.01225852 0 -71.49654799 0 6345.78187239 0 802.37926987 0 -608.28473749 0 12807
0.10850000 0.10850100 16149.09647124 0 -56.83889367 0 6472.95859525 0 1207.49238310 0 133.15799273 0 12736
0.10950000 0.10950300 16237.01073030 0 305.50315747 0 5634.92754671 0 1160.09176055 0 438.62461153 0 12933
0.11050000 0.11050200 16041.36275076 0 96.97241727 0 5626.12504847 0 913.87425909 0 546.89533977 0 13428
0.11150000 0.11150900 15246.14838228 0 486.23339378 0 4708.56149075 0 720.63008126 0 1390.19681493 0 13453
0.11250000 0.11250000 15122.80268380 0 392.28693216 0 4397.73918844 0 337.56196675 0 1265.31206330 0 13668
0.11350000 0.11349100 14433.55046384 0 527.79115053 0 4194.60631732 0 458.97222285 0 888.89287984 0 13791
0.11450000 0.11448600 14441.85470746 0 315.40292309 0 4572.77049918 0 -265.98381572 0 740.80607155 0 14205
0.11550000 0.11549300 13932.74921230 0 338.98365325 0 4383.79913150 0 -212.97506065 0 665.45004330 0 14776
0.11650000 0.11649800 13867.64394236 0 93.70154180 0 4191.38427080 0 -123.79523487 0 1016.19693444 0 14553
0.11750000 0.11747300 13964.74823102 0 -379.00346408 0 4074.59338861 0 819.07079953 0 1011.30961026 0 14568
0.11850000 0.11849100 14456.80234596 0 -288.38977223 0 4096.07369876 0 424.11986602 0 1167.46592888 0 16015
0.11950000 0.11950300 14699.39698274 0 -47.36784847 0 3978.68491103 0 630.95753702 0 1653.15345705 0 15270
0.12050000 0.12050700 14624.10517397 0 145.24675697 0 3863.48844362 0 343.90530163 0 1598.23472595 0 15999
0.12150000 0.12150000 14330.46711978 0 259.01821618 0 4220.70378692 0 -23.37644577 0 1999.65078992 0 15670
0.12250000 0.12250700 14088.31537600 0 366.76743792 0 4064.00824609 0 -76.14958177 0 1658.49031761 0 16887
0.12350000 0.12352200 13976.59561858 0 308.04647048 0 4194.25200293 0 -263.64423349 0 1294.72015802 0 16407
0.12450000 0.12449800 13717.61394107 0 130.41427064 0 4121.82792629 0 -257.90434030 0 1289.53831000 0 16306
0.12550000 0.12549900 13362.52448414 0 512.32864892 0 4108.37505163 0 -52.83503029 0 271.18337946 0 17523
0.12650000 0.12650100 13253.12991493 0 299.79537402 0 4016.84014236 0 -503.88157231 0 -110.00122189 0 17154
0.12750000 0.12750600 12982.30084986 0 299.64479040 0 4111.40886863 0 -452.46944648 0 -566.75023263 0 18007
0.12850000 0.12850300 12703.94260392 0 191.23122918 0 4430.74578873 0 -149.41327280 0 -838.05430043 0 17496
0.12950000 0.12949900 12734.61294367 0 77.86512778 0 4536.70793724 0 2.34509625 0 -458.29459657 0 18405
0.13050000 0.13049000 12636.95503877 0 -143.62133969 0 4682.09863444 0 307.83388184 0 -446.31434111 0 18100
0.13150000 0.13148800 12815.33019160 0 102.28347932 0 4229.57271910 0 1073.99336276 0 -444.63134774 0 19059
0.13250000 0.13249300 12590.45127453 0 -55.41023160 0 3973.80201579 0 562.08878388 0 61.61959136 0 18957
0.13350000 0.13349100 12603.73806431 0 239.74794207 0 3576.74844779 0 662.91890984 0 -82.26770557 0 19468
0.13450000 0.13450700 12318.84714673 0 417.67688020 0 3827.48124331 0 -13.93562802 0 458.07757900 0 19953
0.13550000 0.13551000 11845.83743048 0 477.52501031 0 3476.82071630 0 -141.98595731 0 25.42172561 0 19956
0.13650000 0.13649900 11558.06770844 0 183.89249229 0 3470.33233396 0 32.11295295 0 978.16460592 0 19723
0.13750000 0.13749600 11423.53896189 0 72.13874283 0 3274.25253375 0 273.54842804 0 719.53170664 0 20946
0.13850000 0.13851100 11707.87626324 0 -264.26317645 0 3295.73284389 0 474.09591132 0 417.09115422 0 20955
0.13950000 0.13949800 11870.41799157 0 -260.31367818 0 3383.29278856 0 262.84813333 0 577.45717073 0 20506
0.14050000 0.14048300 11874.95764475 0 153.21772361 0 3187.15762672 0 63.76762237 0 466.20687988 0 21447
0.14150000 0.14148400 11873.18607278 0 113.29756371 0 3168.75542287 0 192.34731952 0 825.39420423 0 21771
0.14250000 0.14249400 11768.99549624 0 4.73986295 0 3030.53959216 0 15.05670090 0 586.52429753 0 22470
0.14350000 0.14350900 11656.61139933 0 218.75924314 0 2993.61338889 0 274.81178030 0 729.17680879 0 22519
0.14450000 0.14449900 11503.70259358 0 212.53327489 0 2773.71701799 0 214.01475195 0 437.98241669 0 22218
0.14550000 0.14550500 11442.80480708 0 150.81945805 0 3071.36325377 0 -64.23177423 0 259.51425633 0 23559
0.14650000 0.14650700 11087.05101066 0 208.86279922 0 2615.52671331 0 201.83740912 0 458.48614779 0 23044
0.14750000 0.14750500 11028.75522048 0 254.13974986 0 2870.52235388 0 -112.98200245 0 240.79427676 0 23649
0.14850000 0.14849900 10750.67378266 0 456.45880511 0 2862.89352208 0 -101.47154574 0 667.14410900 0 23640
0.14950000 0.14949500 10549.13532632 0 300.10539912 0 3063.73442197 0 -6.11508998 0 282.56130044 0 24457
0.15050000 0.15050000 10217.18702825 0 147.42136157 0 3046.49481223 0 81.47260193 0 917.38307883 0 24591
0.15150000 0.15149900 10243.70524619 0 202.25040683 0 3162.28918518 0 74.62602988 0 781.24995241 0 25020
0.15250000 0.15250500 10110.43874468 0 -0.54063062 0 2879.71238348 0 259.58622644 0 599.71032915 0 25297
0.15350000 0.15350100 9948.89352557 0 78.65358803 0 2824.67185681 0 104.87683924 0 625.91520030 0 25452
0.15450000 0.15450400 10019.66782581 0 155.03912104 0 2746.87770263 0 179.47020575 0 -69.45680431 0 26061
0.15550000 0.15549900 9731.03446244 0 224.02302636 0 2655.30957638 0 162.11765830 0 139.41496349 0 26128
0.15650000 0.15649500 9537.58987553 0 258.46902887 0 2488.27248417 0 -41.61754730 0 69.35095289 0 26331
0.15750000 0.15749700 9522.13291009 0 29.53598007 0 2611.88391844 0 -239.20982708 0 463.02026480 0 27345
0.15850000 0.15849900 9521.61251082 0 53.21580754 0 2704.91359157 0 3.45511896 0 -132.15262564 0 26980
0.15950000 0.15949700 9364.93911464 0 210.06525369 0 3021.29420094 0 33.56442401 0 373.73303746 0 27777
0.16050000 0.16050000 9289.14905125 0 70.11726849 0 2884.98281010 0 105.10791865 0 224.20904142 0 28224
0.16150000 0.16150500 9201.78840843 0 -4.04467597 0 3012.09309901 0 311.23972895 0 440.17805870 0 28075
0.16250000 0.16249700 9193.47309250 0 98.02218439 0 2868.49611844 0 201.97692041 0 208.07112799 0 28590
0.16350000 0.16349900 9052.27880641 0 137.47841388 0 2679.36973821 0 124.05432727 0 284.82559087 0 29163
0.16450000 0.16449100 8968.27307801 0 199.19444518 0 2826.91953875 0 -0.93200741 0 308.91454074 0 28996
0.16550000 0.16550500 8837.67500677 0 168.09449923 0 2599.90366299 0 -45.72316534 0 344.38030437 0 30777
0.16650000 0.16650700 8635.05146259 0 60.47969552 0 2704.81394065 0 14.30854392 0 551.03085309 0 29211
0.16750000 0.16749900 8700.35603437 0 68.81449875 0 2531.16667052 0 117.43086256 0 282.96876200 0 30922
0.16850000 0.16850800 8690.95563060 0 83.54224088 0 2589.15243559 0 -25.39625927 0 368.10718922 0 30867
0.16950000 0.16949900 8616.16207645 0 46.23326734 0 2632.47844261 0 103.89826717 0 117.69881282 0 30852
0.17050000 0.17049200 8564.69791069 0 127.82666833 0 2493.66470636 0 -5.47665974 0 223.51812835 0 31257
0.17150000 0.17149500 8485.96260891 0 131.25244563 0 2505.09134557 0 163.85047713 0 460.03405880 0 32608
0.17250000 0.17250900 8360.04813107 0 -16.11510443 0 2064.76713218 0 542.70778652 0 432.41746623 0 32361
0.17350000 0.17350400 8441.97226240 0 -145.69186443 0 1905.70211384 0 453.30872870 0 336.57542260 0 32508
0.17450000 0.17449800 8367.77661379 0 41.19657751 0 1741.37774120 0 393.99871358 0 -116.09111126 0 32791
0.17550000 0.17549800 8316.51174988 0 228.61361223 0 1810.19223995 0 -153.79459173 0 116.81413407 0 33633
0.17650000 0.17650100 8084.45796633 0 304.34499229 0 1806.49408346 0 -380.28010313 0 -117.16734123 0 33984
0.17750000 0.17750300 7957.91236598 0 179.53331800 0 2076.75845996 0 -301.49829758 0 386.69430090 0 34069
0.17850000 0.17849800 7843.18093621 0 165.98965029 0 2073.37032857 0 -263.04411348 0 55.81813605 0 34536
