### header ###
fiducial parameters:
Omega_m = 0.31
Omega_nu = 0
Omega_de = 0.69
Omega_k = 0
H_0 = 100
w_de = -1
zeff = 0
beta = 0
fgrowth = 0
b_1 = 2
gamma = 0.55
Lx = 3500 Ly = 3500 Lz = 3500
nx = 700 ny = 700 nz = 700
xoffset = -685.467585 yoffset = -31.7331281 zoffset = 572.489161
bins = 400 dk = 0.001
kx_ny = 0.628318531 ky_ny = 0.628318531 kz_ny = 0.628318531
############################
A(data) = 8.08800567 (not used)
A(ran) = 8.08717666 (used)
Ngal = 480849
weighted Ngal = 0
Nran = 23820508
weighted Nran = 0
SN(data) = 3489.92253
SN(ran) = 70.4422417
SN(data+ran) = 3560.36477
############################
13 columns: k_central k_mean P_0(k) sigma^{lin}_{P_0(k)} P^img_1(k) sigma^{lin}_{P_1(k)} P_2(k) sigma^{lin}_{P_2(k)} P^img_3(k) sigma^{lin}_{P_3(k)} P_4(k) sigma^{lin}_{P_4(k)} N_modes
### header ###
0.00050000 0 0 0 0 0 0 0 0 0 0 0 0
0.00150000 0.00179520 17773.73869188 0 -20123.61818815 0 17919.33976325 0 20490.22286289 0 -23262.06865799 0 3
0.00250000 0.00253879 41032.48565243 0 -26026.16382572 0 11783.16807200 0 -12419.38385608 0 41133.24380828 0 6
0.00350000 0.00331552 54162.93420836 0 -14283.52046255 0 25309.45224021 0 -26586.53418479 0 -25847.78867289 0 7
0.00450000 0.00420575 59006.41197703 0 9906.89619753 0 29601.08533991 0 -14763.83791318 0 18848.97215502 0 24
0.00550000 0.00557378 44776.81373635 0 22200.56487763 0 38971.37238744 0 13665.57401442 0 34402.48827427 0 45
0.00650000 0.00659388 43433.07639636 0 -775.90534122 0 37679.01063461 0 41688.52089793 0 16427.67616368 0 40
0.00750000 0.00754703 47622.17976825 0 -16451.03876905 0 19380.33302307 0 59770.07021978 0 602.15620570 0 57
0.00850000 0.00846663 61803.83484246 0 -24799.23951256 0 3379.17388373 0 34511.10778074 0 -36827.10596306 0 75
0.00950000 0.00948925 83462.52014347 0 -16193.93938676 0 -10302.83146072 0 -840.46253108 0 -29687.00658051 0 112
0.01050000 0.01054430 81304.08114332 0 8992.57683099 0 -2242.11255880 0 -43683.86455350 0 -13125.90890276 0 105
0.01150000 0.01145670 77116.86006665 0 15050.38967949 0 -7362.07735052 0 -29387.61091741 0 4408.67864537 0 144
0.01250000 0.01249090 72015.06495996 0 3561.60150744 0 6331.03353573 0 -20024.52088102 0 -4010.50677256 0 169
0.01350000 0.01339930 73623.09869338 0 -11989.88837637 0 22123.16932714 0 -17300.39680589 0 -15506.90163176 0 180
0.01450000 0.01448870 84045.25659867 0 -6884.15152204 0 25291.73652050 0 12835.03892977 0 -28439.70918969 0 267
0.01550000 0.01550050 82729.20007073 0 -499.27769965 0 26912.83559719 0 -5587.77051530 0 -18018.65851687 0 238
0.01650000 0.01653350 85864.66101287 0 8313.46686056 0 34127.56244902 0 -5833.13323328 0 -21088.01767985 0 315
0.01750000 0.01747870 82813.12829285 0 12499.21531803 0 41623.19418150 0 -1913.08735449 0 1431.55194813 0 297
0.01850000 0.01844180 73036.59764773 0 10953.88416006 0 42304.25288110 0 -8779.54530147 0 3543.66434123 0 388
0.01950000 0.01947590 75541.82186120 0 -1743.35968735 0 39107.56198271 0 11241.06704888 0 1312.36944378 0 399
0.02050000 0.02045430 78201.61572914 0 -8145.49969306 0 49465.38968081 0 7882.04479632 0 -21887.55025500 0 462
0.02150000 0.02154770 80320.96942267 0 -277.38498859 0 41144.53757959 0 4640.31168057 0 -31759.85650981 0 571
0.02250000 0.02255340 82976.44508393 0 5040.96375413 0 47200.87780890 0 -1400.29477516 0 -30189.80085052 0 510
0.02350000 0.02348930 76309.90903387 0 2748.71570855 0 22484.57000923 0 -2485.05043765 0 -22280.17489307 0 555
0.02450000 0.02439640 79251.16139869 0 -614.64246640 0 35660.85798991 0 9118.88991252 0 -32621.50482719 0 592
0.02550000 0.02547300 73217.29798877 0 3494.14890464 0 26619.97260574 0 3368.13477588 0 -30008.32544674 0 837
0.02650000 0.02652900 73176.21966370 0 4786.80961025 0 23310.23327095 0 5108.05097021 0 -28157.58635331 0 723
0.02750000 0.02749970 66091.48190524 0 3191.18795296 0 9834.04030023 0 7907.10146739 0 -21345.11706214 0 826
0.02850000 0.02848090 63310.22463404 0 1846.79734580 0 14246.98179065 0 9139.16333926 0 -13068.22209046 0 831
0.02950000 0.02946900 59806.83033817 0 3414.89320359 0 11214.82563906 0 7975.00803550 0 -18771.35515804 0 996
0.03050000 0.03053250 55914.35454818 0 4467.70520897 0 14921.06492561 0 4399.98687038 0 -3904.41175615 0 1041
0.03150000 0.03150510 52665.40227664 0 4516.02483448 0 10795.87101257 0 6453.13913383 0 1281.65481473 0 1036
0.03250000 0.03246190 49867.42579497 0 -1180.37625962 0 10533.25761253 0 1850.76123809 0 6892.65506751 0 1059
0.03350000 0.03345080 52614.46958248 0 1700.79767074 0 15809.95116205 0 -618.18671758 0 5209.49561020 0 1302
0.03450000 0.03451200 51546.76530022 0 1287.68923176 0 17945.35972657 0 -3667.43078806 0 5228.93861258 0 1339
0.03550000 0.03553350 50973.88321410 0 2332.42951235 0 22783.52277933 0 -5073.26172563 0 8783.37632586 0 1365
0.03650000 0.03647120 48993.26575054 0 2198.54296064 0 23407.78045260 0 -590.00432922 0 4314.20957001 0 1308
0.03750000 0.03744890 48335.79110281 0 -716.66176005 0 20418.25275157 0 -107.74888957 0 4159.52919230 0 1579
0.03850000 0.03847530 48042.26377187 0 1367.46533208 0 21988.64058060 0 3748.19232528 0 -365.14755680 0 1662
0.03950000 0.03950240 48892.61831794 0 -546.70821748 0 23523.81841670 0 3597.09938081 0 1058.58290108 0 1683
0.04050000 0.04050350 45732.13392170 0 357.53422625 0 17072.86053086 0 3916.19270976 0 -1334.50302109 0 1822
0.04150000 0.04152450 44379.53872186 0 3740.87351858 0 14388.15393209 0 3234.08213930 0 -1330.77164763 0 1887
0.04250000 0.04250150 44345.10379167 0 695.35307094 0 14105.14530972 0 1677.39077608 0 2922.26332776 0 1920
0.04350000 0.04349210 43735.46158716 0 -2267.74499076 0 14218.85808561 0 1736.21803784 0 -1258.40293261 0 2005
0.04450000 0.04448520 44784.12147073 0 129.88169182 0 12260.27454844 0 1082.12709257 0 -5359.40381592 0 2151
0.04550000 0.04548030 43505.60012392 0 -217.13050416 0 11842.29428653 0 1683.35875915 0 -5383.63006262 0 2274
0.04650000 0.04648670 43470.16868450 0 1906.73184004 0 10784.85404938 0 -142.43438647 0 -2037.32991128 0 2311
0.04750000 0.04749250 42072.84129239 0 1943.21515032 0 9458.43382541 0 -820.04848581 0 -948.39555341 0 2568
0.04850000 0.04851840 41326.23442987 0 705.15540010 0 10627.32808418 0 3235.51046921 0 512.57556176 0 2493
0.04950000 0.04949480 40268.82740969 0 378.61261101 0 11538.91258650 0 1306.81113672 0 508.55630785 0 2644
0.05050000 0.05050630 38596.02057609 0 2545.50533116 0 12035.72780112 0 725.81967991 0 4270.45174233 0 2829
0.05150000 0.05149060 38134.96897064 0 1590.24050743 0 13648.85480395 0 -159.96519835 0 1923.07459148 0 2784
0.05250000 0.05249300 35758.51589481 0 1894.31976392 0 14625.65529945 0 150.47843045 0 6409.46988474 0 3055
0.05350000 0.05348950 34923.21971049 0 907.35708870 0 14643.03884941 0 -476.32366307 0 8895.52790395 0 3009
0.05450000 0.05448610 35695.29292010 0 -1045.96377248 0 14142.68049086 0 2964.93606761 0 5666.26222594 0 3336
0.05550000 0.05550870 35859.38477391 0 -699.19627488 0 12894.82948380 0 2769.03342460 0 5368.49419459 0 3349
0.05650000 0.05647670 37719.20317370 0 -51.57411394 0 11112.29591124 0 2395.28710034 0 2438.54667341 0 3324
0.05750000 0.05747970 35629.19114093 0 1340.48207649 0 12107.47646594 0 -84.44651765 0 2457.49142117 0 3639
0.05850000 0.05849280 35543.26990034 0 1203.74993731 0 12596.87322293 0 -1128.88994921 0 2965.11322481 0 3846
0.05950000 0.05951020 33878.76731035 0 1060.72207423 0 12334.45912472 0 -327.50829581 0 2548.29555701 0 3787
0.06050000 0.06049470 33476.39902644 0 609.84039913 0 11735.88924503 0 1152.88367709 0 3931.01855269 0 3930
0.06150000 0.06148310 33371.43338716 0 -79.01653884 0 13435.49110469 0 815.14123145 0 1980.96070563 0 4083
0.06250000 0.06249100 33195.71559229 0 -207.33260393 0 12386.94194436 0 2365.76828238 0 3104.04875663 0 4303
0.06350000 0.06350600 32895.32341996 0 983.08736153 0 11689.82837378 0 -31.65799112 0 3498.95429362 0 4470
0.06450000 0.06451750 32411.35210213 0 1153.74731843 0 10721.07745842 0 2413.06925400 0 3151.28329431 0 4479
0.06550000 0.06550280 30930.87155063 0 947.93826640 0 11366.40576583 0 1159.91460335 0 3263.71168052 0 4636
0.06650000 0.06648880 29895.60918009 0 942.33456281 0 10852.38415845 0 105.61237377 0 4179.62546184 0 4653
0.06750000 0.06749660 30633.91179900 0 103.06762136 0 11903.08134979 0 543.18168202 0 4937.94684402 0 5220
0.06850000 0.06852730 30165.66318242 0 -173.43468149 0 11855.13818332 0 -918.29543839 0 5643.39787519 0 5029
0.06950000 0.06949320 30163.00582446 0 239.59292952 0 13314.47059442 0 -87.25202331 0 5913.80619191 0 5040
0.07050000 0.07048030 30427.96655737 0 124.85374912 0 12901.36215544 0 -506.60425698 0 3233.00812380 0 5475
0.07150000 0.07148790 29312.42983189 0 891.83036761 0 11587.85226220 0 383.64941157 0 3708.39838989 0 5509
0.07250000 0.07249820 29172.58636943 0 912.61976469 0 11120.93232460 0 -531.95988082 0 203.33881636 0 5916
0.07350000 0.07351270 28027.48653669 0 873.41155527 0 10584.42282551 0 1167.26662703 0 2357.01007344 0 5721
0.07450000 0.07449140 27545.06534434 0 189.03226547 0 8965.68215400 0 1705.61413204 0 -417.69570316 0 6028
0.07550000 0.07549160 26623.40502644 0 -101.24190572 0 8123.21110320 0 2528.11070887 0 -255.89692781 0 6183
0.07650000 0.07648840 26801.00511653 0 442.76787548 0 7784.36474677 0 1441.52811279 0 -682.37962795 0 6330
0.07750000 0.07749960 26400.40840459 0 385.99895890 0 6465.93874132 0 1432.52631271 0 -426.65764286 0 6583
0.07850000 0.07848650 26267.09761377 0 854.38265784 0 6874.40787620 0 -156.78190497 0 1205.77617275 0 6549
0.07950000 0.07947320 25751.34872372 0 599.46784524 0 7534.44023097 0 -696.91980490 0 951.16142015 0 6828
0.08050000 0.08048110 24892.57921078 0 708.35862367 0 8421.04556850 0 -773.57572408 0 3118.69744237 0 7147
0.08150000 0.08149960 24239.97638597 0 1273.59416226 0 8386.73243388 0 649.11172080 0 1438.12890907 0 7386
0.08250000 0.08250610 23571.87230642 0 658.27296235 0 8997.03897789 0 -152.93205763 0 2821.52731656 0 7227
0.08350000 0.08350160 23187.88408171 0 126.59099688 0 8181.44045942 0 1563.72228949 0 964.67076366 0 7798
0.08450000 0.08449610 23076.71794053 0 -609.14173543 0 7340.38666620 0 1524.07229431 0 818.50721820 0 7371
0.08550000 0.08548940 23280.44871719 0 -461.00067275 0 6416.03577336 0 616.43286133 0 420.65755005 0 8256
0.08650000 0.08650700 24047.42865738 0 -115.97263738 0 6780.23775362 0 -246.65817998 0 -936.69985671 0 8037
0.08750000 0.08749060 23326.17741869 0 822.24412782 0 6478.50582999 0 -740.18159243 0 -78.05800768 0 8155
0.08850000 0.08849210 22451.79592776 0 1500.83148452 0 7208.48206063 0 -683.26652116 0 -1386.24399497 0 8718
0.08950000 0.08949900 21527.69969840 0 1265.89889652 0 7198.18479855 0 -666.65360501 0 616.41736007 0 8571
0.09050000 0.09049190 20848.08040103 0 499.69844800 0 7664.35181807 0 776.52206972 0 93.75391389 0 8932
0.09150000 0.09150830 20414.37743788 0 -28.05992845 0 6882.82284307 0 939.71817245 0 -390.00492602 0 9285
0.09250000 0.09250820 20109.99922862 0 187.44006516 0 7207.68485325 0 998.53989805 0 -317.54320347 0 9204
0.09350000 0.09350330 19795.21303402 0 356.79570219 0 5818.59527080 0 637.92756550 0 -1438.25070464 0 9349
0.09450000 0.09448040 19621.26681112 0 380.27678143 0 5424.77482165 0 97.24291417 0 -423.12557125 0 9564
0.09550000 0.09549270 18868.12727696 0 672.96372292 0 4383.13479201 0 -331.02154448 0 -880.40705009 0 10155
0.09650000 0.09649430 18771.46588129 0 264.53887733 0 4949.45098951 0 864.83936140 0 -1179.03650831 0 9913
0.09750000 0.09749140 18455.90462396 0 101.84014343 0 3825.14498277 0 -216.34658356 0 -2104.90430965 0 10476
0.09850000 0.09850240 18026.18769775 0 498.59232275 0 4626.85880592 0 221.27266087 0 -2407.04590930 0 10575
0.09950000 0.09950330 17891.65895120 0 578.51125605 0 5128.25796300 0 -506.32966333 0 -1566.00318840 0 10882
0.10050000 0.10051200 17302.05765461 0 694.80388362 0 5492.17206282 0 -194.15321569 0 -264.45915660 0 10875
0.10150000 0.10150300 17217.68653949 0 486.06841614 0 6142.60471197 0 430.79979958 0 367.28672995 0 11118
0.10250000 0.10250800 16567.63034939 0 19.48419143 0 6625.21413384 0 809.19207133 0 1358.14243458 0 11575
0.10350000 0.10349800 16835.80205650 0 88.65322602 0 6400.18020422 0 575.93140437 0 1059.72113607 0 11364
0.10450000 0.10450100 16805.35316325 0 271.50115518 0 6943.62097865 0 714.04315523 0 1620.13578444 0 12093
0.10550000 0.10551000 16581.02786242 0 229.32334825 0 6863.03659862 0 -347.42962262 0 2142.76058820 0 12067
0.10650000 0.10649700 16448.82430408 0 400.37526544 0 6444.15947840 0 403.42679816 0 2090.62101063 0 12054
0.10750000 0.10749900 15954.00210794 0 68.40648358 0 6055.63160051 0 445.75518871 0 2080.68913527 0 12807
0.10850000 0.10850100 15920.12079399 0 79.38247917 0 6237.17343824 0 671.57968232 0 2217.29947888 0 12736
0.10950000 0.10950300 15892.77215169 0 497.06544915 0 6373.46268443 0 260.08226660 0 1567.47580760 0 12933
0.11050000 0.11050200 15313.91101017 0 589.37652840 0 6354.71723852 0 358.69239143 0 2759.42264665 0 13428
0.11150000 0.11150900 14903.12775940 0 102.06635103 0 5917.52649305 0 -57.54995837 0 2776.13078480 0 13453
0.11250000 0.11250000 14874.78260787 0 -46.56864806 0 5837.92754993 0 289.08511423 0 3147.71800572 0 13668
0.11350000 0.11349100 15214.26008681 0 -191.57668571 0 5961.50576723 0 754.98639794 0 2593.86924596 0 13791
0.11450000 0.11448600 14825.17859268 0 69.25141269 0 5520.58364830 0 472.91892319 0 2900.79408994 0 14205
0.11550000 0.11549300 15028.57719960 0 267.67566696 0 5059.28845171 0 510.23708676 0 2204.10126770 0 14776
0.11650000 0.11649800 14580.59093743 0 152.34854611 0 4772.22735846 0 398.97129466 0 2292.12625001 0 14553
0.11750000 0.11747300 14508.51010287 0 220.20971769 0 4628.98469228 0 554.36030116 0 1748.89584975 0 14568
0.11850000 0.11849100 14086.98669702 0 303.08164003 0 4047.17831236 0 167.22532174 0 2078.26429614 0 16015
0.11950000 0.11950300 14143.34483035 0 138.72626489 0 4342.42185365 0 117.58255341 0 1253.13250600 0 15270
0.12050000 0.12050700 13787.03741768 0 185.09716123 0 4031.40024949 0 -89.38100993 0 1606.57218654 0 15999
0.12150000 0.12150000 13762.01396359 0 151.66206197 0 3814.41590002 0 243.43170453 0 1420.70106981 0 15670
0.12250000 0.12250700 13591.83233113 0 89.98345512 0 4253.11248166 0 -212.63735475 0 1244.46287567 0 16887
0.12350000 0.12352200 13704.43787453 0 128.57183579 0 4441.30878661 0 -180.38256532 0 793.43283141 0 16407
0.12450000 0.12449800 13375.81127392 0 322.93764013 0 4250.33332813 0 -75.87000557 0 1006.69577251 0 16306
0.12550000 0.12549900 13292.10449829 0 367.22804663 0 4303.81265701 0 -117.04333119 0 335.82804068 0 17523
0.12650000 0.12650100 12903.13372741 0 250.29543869 0 4074.32765282 0 8.13119425 0 190.32994194 0 17154
0.12750000 0.12750600 12759.96856750 0 176.43971045 0 4093.65993195 0 82.49978150 0 -140.68938808 0 18007
0.12850000 0.12850300 12576.27869876 0 149.39666431 0 3533.56638100 0 190.16939323 0 -662.52030615 0 17496
0.12950000 0.12949900 12435.88162006 0 113.20566341 0 3444.76633595 0 174.18870681 0 -719.39440981 0 18405
0.13050000 0.13049000 12294.82020187 0 173.77460187 0 3085.32545537 0 252.11794335 0 -564.85354339 0 18100
0.13150000 0.13148800 12149.10840726 0 -12.56520637 0 3031.62467999 0 552.92532786 0 -709.83345733 0 19059
0.13250000 0.13249300 12025.54126228 0 101.38241352 0 2625.22606985 0 505.50588236 0 -698.04918203 0 18957
0.13350000 0.13349100 11924.56165994 0 387.39628629 0 2673.30210421 0 118.96437955 0 -964.92985606 0 19468
0.13450000 0.13450700 11776.85684686 0 317.49669971 0 2938.41784967 0 -347.47280469 0 -611.39495353 0 19953
0.13550000 0.13551000 11408.92349313 0 214.95811403 0 2924.16776763 0 -260.30260586 0 -219.22206632 0 19956
0.13650000 0.13649900 11335.29253309 0 277.49460460 0 3540.29835449 0 -412.78734156 0 -17.31656240 0 19723
0.13750000 0.13749600 11510.67815822 0 -176.33230890 0 3510.71310257 0 5.44198121 0 -32.95002070 0 20946
0.13850000 0.13851100 11346.36485791 0 120.20226546 0 3756.29726705 0 -0.86886083 0 -174.77996896 0 20955
0.13950000 0.13949800 11448.34096949 0 197.65760650 0 3867.08694919 0 -134.52542485 0 -194.61050271 0 20506
0.14050000 0.14048300 11257.67553611 0 225.94628918 0 3945.47900890 0 120.82342289 0 23.14381623 0 21447
0.14150000 0.14148400 11147.94879716 0 10.88695196 0 3765.94126197 0 178.40394087 0 179.31187151 0 21771
0.14250000 0.14249400 11161.34631019 0 -63.55292999 0 3715.77255821 0 406.36650040 0 47.01275901 0 22470
0.14350000 0.14350900 11104.76673036 0 162.01468568 0 3615.12512561 0 111.77511904 0 71.52278940 0 22519
0.14450000 0.14449900 11019.19980417 0 234.84068771 0 3778.87373736 0 -155.68020865 0 -272.52423799 0 22218
0.14550000 0.14550500 10633.48429678 0 315.68969630 0 3842.90499178 0 -173.03829227 0 218.37835517 0 23559
0.14650000 0.14650700 10564.88017221 0 252.99487148 0 3908.78532445 0 -232.59411300 0 228.73872950 0 23044
0.14750000 0.14750500 10393.05983567 0 38.19918845 0 4004.01839022 0 332.92709158 0 241.79964385 0 23649
0.14850000 0.14849900 10523.11536299 0 -222.08426228 0 3766.72739703 0 569.40537612 0 -190.70972268 0 23640
0.14950000 0.14949500 10568.52296707 0 4.29448976 0 3580.12550686 0 398.44868092 0 -485.37750307 0 24457
0.15050000 0.15050000 10478.78177442 0 272.02266168 0 3041.01401144 0 5.46541025 0 -524.42848548 0 24591
0.15150000 0.15149900 10025.25934985 0 409.63062176 0 2837.56004290 0 138.89124253 0 -151.34539348 0 25020
0.15250000 0.15250500 9801.75340106 0 251.17125958 0 2650.01700512 0 255.24033895 0 -304.96504248 0 25297
0.15350000 0.15350100 9646.61905802 0 77.35436143 0 2675.52764150 0 437.88387300 0 -684.62730988 0 25452
0.15450000 0.15450400 9439.13476325 0 86.97300073 0 2233.04432477 0 496.72995771 0 -739.88928305 0 26061
0.15550000 0.15549900 9372.93333316 0 162.92704524 0 2141.55370480 0 190.78390725 0 -283.51573484 0 26128
0.15650000 0.15649500 9304.35135323 0 94.21009368 0 2106.44336280 0 308.86360805 0 -15.24559477 0 26331
0.15750000 0.15749700 9291.42995017 0 -52.61867707 0 1969.82194686 0 359.11756870 0 -43.96853402 0 27345
0.15850000 0.15849900 9136.33989643 0 126.12374478 0 1884.06679114 0 178.97195114 0 254.51399444 0 26980
0.15950000 0.15949700 9089.14964805 0 228.51506854 0 2060.88074617 0 -70.49959586 0 228.35451983 0 27777
0.16050000 0.16050000 8884.59951935 0 163.98777396 0 1937.19180562 0 207.41896806 0 462.44893284 0 28224
0.16150000 0.16150500 8912.11424653 0 39.41437610 0 1719.24416389 0 -17.61629023 0 427.33416191 0 28075
0.16250000 0.16249700 8841.12957212 0 11.83365787 0 1981.66933442 0 45.34903148 0 459.60334536 0 28590
0.16350000 0.16349900 8978.38211057 0 139.24777138 0 1950.79969282 0 -153.68608295 0 443.88618028 0 29163
0.16450000 0.16449100 8713.47673928 0 183.16061162 0 2065.02179565 0 -34.37657903 0 444.66013579 0 28996
0.16550000 0.16550500 8723.23145745 0 121.42354289 0 2100.69682622 0 -12.59233357 0 947.40679480 0 30777
0.16650000 0.16650700 8644.20827522 0 -93.30315955 0 2334.38931384 0 175.37233834 0 497.90140968 0 29211
0.16750000 0.16749900 8785.22540411 0 -47.46373480 0 2142.79380518 0 270.23115952 0 516.03898496 0 30922
0.16850000 0.16850800 8665.50035584 0 77.69660699 0 2302.41243976 0 53.80773403 0 470.71774502 0 30867
0.16950000 0.16949900 8619.22911043 0 272.46666190 0 2026.85549200 0 -343.91637396 0 652.21972237 0 30852
0.17050000 0.17049200 8403.98311595 0 356.36831045 0 2251.35795002 0 -224.19354016 0 915.53400058 0 31257
0.17150000 0.17149500 8243.96587767 0 136.55498199 0 2326.38402300 0 31.92306258 0 941.95146037 0 32608
0.17250000 0.17250900 8140.72752106 0 -24.22082126 0 2447.94707718 0 271.37050175 0 713.86489080 0 32361
0.17350000 0.17350400 8132.77759184 0 12.73682741 0 2531.49884026 0 225.87099737 0 715.15260218 0 32508
0.17450000 0.17449800 8165.87277073 0 57.33648395 0 2333.80248062 0 56.55787807 0 524.31554776 0 32791
0.17550000 0.17549800 8103.53558200 0 62.22502608 0 2330.29255366 0 -102.25601995 0 775.14467251 0 33633
0.17650000 0.17650100 8060.36458753 0 158.06075848 0 2236.08921410 0 69.61912459 0 649.53357637 0 33984
0.17750000 0.17750300 7984.12055883 0 66.98180754 0 2353.68837600 0 109.88728766 0 772.10753381 0 34069
0.17850000 0.17849800 7842.81554949 0 81.11795536 0 2025.12820933 0 243.84470225 0 368.24780775 0 34536
