### header ###
fiducial parameters:
Omega_m = 0.31
Omega_nu = 0
Omega_de = 0.69
Omega_k = 0
H_0 = 100
w_de = -1
zeff = 0
beta = 0
fgrowth = 0
b_1 = 2
gamma = 0.55
Lx = 3500 Ly = 3500 Lz = 3500
nx = 700 ny = 700 nz = 700
xoffset = -685.467585 yoffset = -31.7331281 zoffset = 572.489161
bins = 400 dk = 0.001
kx_ny = 0.628318531 ky_ny = 0.628318531 kz_ny = 0.628318531
############################
A(data) = 8.05346348 (not used)
A(ran) = 8.05086891 (used)
Ngal = 478210
weighted Ngal = 0
Nran = 23820508
weighted Nran = 0
SN(data) = 3488.32554
SN(ran) = 70.125988
SN(data+ran) = 3558.45152
############################
13 columns: k_central k_mean P_0(k) sigma^{lin}_{P_0(k)} P^img_1(k) sigma^{lin}_{P_1(k)} P_2(k) sigma^{lin}_{P_2(k)} P^img_3(k) sigma^{lin}_{P_3(k)} P_4(k) sigma^{lin}_{P_4(k)} N_modes
### header ###
0.00050000 0 0 0 0 0 0 0 0 0 0 0 0
0.00150000 0.00179520 24831.01708479 0 -25563.67281804 0 8152.85171674 0 -2896.01084562 0 22115.75086952 0 3
0.00250000 0.00253879 42857.97984528 0 -19269.16688189 0 -14596.09219218 0 14555.23531360 0 20975.19068995 0 6
0.00350000 0.00331552 50624.10847308 0 -17163.87504087 0 -1083.92302366 0 -70528.05173682 0 -82949.42861137 0 7
0.00450000 0.00420575 58704.58040248 0 -18390.68863078 0 -45081.30266886 0 7347.97120870 0 3610.03185620 0 24
0.00550000 0.00557378 71472.41032060 0 -11414.23820905 0 -34475.23344833 0 -44844.02274800 0 -36804.07552744 0 45
0.00650000 0.00659388 65109.25597058 0 5606.58239517 0 -63861.18351702 0 -13291.66160530 0 -8984.58261247 0 40
0.00750000 0.00754703 67131.06248246 0 8919.47734253 0 -12739.70621309 0 -71585.34803375 0 -16710.79550929 0 57
0.00850000 0.00846663 56063.72020998 0 5884.16557837 0 -32592.60605942 0 -35925.48655308 0 -8858.34703721 0 75
0.00950000 0.00948925 59091.55815489 0 -3858.74948860 0 -9173.53183550 0 -26434.84333477 0 -31842.12388321 0 112
0.01050000 0.01054430 62842.52963370 0 -805.86815942 0 -15534.91461355 0 -14051.22308785 0 -1703.79827077 0 105
0.01150000 0.01145670 63881.77804118 0 -2777.84699515 0 6389.67256797 0 5835.11517943 0 -16738.14415160 0 144
0.01250000 0.01249090 66097.46096064 0 -5812.46120285 0 633.73669055 0 7792.84614759 0 -10965.11149743 0 169
0.01350000 0.01339930 70165.21165251 0 -6125.85228451 0 521.60393542 0 20021.30990682 0 1338.10152666 0 180
0.01450000 0.01448870 68753.93313113 0 7774.58788396 0 5070.80366952 0 16164.15483300 0 11214.60419257 0 267
0.01550000 0.01550050 68377.91698029 0 3169.23153284 0 -6709.51881500 0 7194.19876162 0 39003.14995967 0 238
0.01650000 0.01653350 63325.28299579 0 -1507.24236059 0 -773.86914069 0 -1753.88946825 0 25874.03008271 0 315
0.01750000 0.01747870 64814.06779091 0 2824.55006124 0 4324.37396420 0 -514.11793661 0 31215.87319147 0 297
0.01850000 0.01844180 68172.63607815 0 1805.91832257 0 12233.03662939 0 -4624.67755793 0 16208.88702526 0 388
0.01950000 0.01947590 60963.00249574 0 -1018.52765881 0 5864.03609185 0 1291.57561777 0 23860.30636794 0 399
0.02050000 0.02045430 68527.50408859 0 -2901.92346707 0 11663.47624071 0 -672.35695952 0 7696.89338071 0 462
0.02150000 0.02154770 65235.36975026 0 802.75572891 0 12889.84693763 0 -3622.45500464 0 2601.48700544 0 571
0.02250000 0.02255340 63751.34605482 0 6191.86548508 0 7875.85536675 0 -4811.06907392 0 -6717.65697375 0 510
0.02350000 0.02348930 59404.46205426 0 4218.63326218 0 14517.36796272 0 -9994.47828685 0 -5401.53401185 0 555
0.02450000 0.02439640 58233.67442794 0 3321.27669725 0 16487.46671770 0 -6074.98602430 0 -9363.77652053 0 592
0.02550000 0.02547300 57643.63023835 0 5.63444036 0 18019.76574935 0 -5146.13976759 0 -11518.53950884 0 837
0.02650000 0.02652900 57174.60655904 0 -219.07148270 0 18119.30594947 0 7579.72603948 0 -5252.45623049 0 723
0.02750000 0.02749970 54428.89145051 0 3272.38131085 0 15883.02850585 0 8526.48731774 0 -12733.72715768 0 826
0.02850000 0.02848090 55344.90488276 0 983.96761136 0 19167.63366330 0 11579.21584884 0 1480.49162383 0 831
0.02950000 0.02946900 54232.24696173 0 -608.36224377 0 12383.95241666 0 4798.10338156 0 -4868.94411575 0 996
0.03050000 0.03053250 55983.77802479 0 56.61844368 0 19293.96888948 0 2381.81208104 0 6023.59936481 0 1041
0.03150000 0.03150510 55478.10495032 0 368.86785794 0 25116.35089537 0 -6042.86521000 0 6582.90678070 0 1036
0.03250000 0.03246190 56797.26172922 0 2629.77679535 0 22893.91385777 0 -6341.02077272 0 12610.27073596 0 1059
0.03350000 0.03345080 55915.57250391 0 604.05732388 0 27480.51369065 0 -93.79643162 0 18609.47776920 0 1302
0.03450000 0.03451200 55240.71430621 0 -853.11487665 0 25991.95034203 0 6293.60907784 0 9058.15821089 0 1339
0.03550000 0.03553350 57374.68346851 0 -872.21352973 0 29020.67407292 0 7270.76388774 0 4262.44645149 0 1365
0.03650000 0.03647120 54325.03304371 0 3708.54233011 0 27389.05628764 0 6688.09386648 0 954.17419973 0 1308
0.03750000 0.03744890 54058.07929233 0 3159.39930840 0 20657.30424440 0 938.94975311 0 2971.11442486 0 1579
0.03850000 0.03847530 49848.93501252 0 3190.65648137 0 21965.72086822 0 -866.57328747 0 4222.69680539 0 1662
0.03950000 0.03950240 49096.45981785 0 2658.13301921 0 24094.59676110 0 758.18851428 0 5934.65537955 0 1683
0.04050000 0.04050350 47752.39030811 0 -406.87804181 0 21592.80496833 0 4167.32410897 0 3964.06944227 0 1822
0.04150000 0.04152450 47154.37404466 0 1003.68188570 0 22534.94908715 0 1841.37190664 0 -150.61683451 0 1887
0.04250000 0.04250150 44913.99984085 0 1223.20401202 0 18549.46576868 0 6048.05813034 0 -365.55169666 0 1920
0.04350000 0.04349210 43380.48285347 0 3584.83124491 0 18232.02221613 0 3300.50501589 0 1024.94628551 0 2005
0.04450000 0.04448520 40898.95341512 0 1726.86192337 0 12634.40840406 0 2539.86951782 0 1579.11282099 0 2151
0.04550000 0.04548030 38319.43390212 0 529.05228832 0 14673.59846591 0 1934.66731556 0 326.61586643 0 2274
0.04650000 0.04648670 39056.96145829 0 -657.70052316 0 14187.52340637 0 -387.06411655 0 679.00035441 0 2311
0.04750000 0.04749250 39327.56907685 0 -463.48308798 0 14911.65344951 0 1536.06362209 0 -947.81093466 0 2568
0.04850000 0.04851840 40119.35102463 0 458.57915532 0 12798.61098112 0 -1342.30901009 0 -2192.06565062 0 2493
0.04950000 0.04949480 39625.19316798 0 1012.07913684 0 13888.34918977 0 -2870.61093248 0 -593.38692445 0 2644
0.05050000 0.05050630 39457.44744698 0 874.66715691 0 15482.76396366 0 156.59146098 0 -1174.70722931 0 2829
0.05150000 0.05149060 39513.03051757 0 -270.42049628 0 16387.04073160 0 458.84378388 0 1975.61277274 0 2784
0.05250000 0.05249300 40515.62952989 0 -1007.76314462 0 13332.07559088 0 3353.19820970 0 -1663.77181655 0 3055
0.05350000 0.05348950 40569.44102851 0 -1268.71126702 0 13985.56420168 0 662.70632121 0 -1134.10501420 0 3009
0.05450000 0.05448610 40712.38474192 0 1837.97270292 0 12626.76849994 0 898.45272508 0 -5240.98530198 0 3336
0.05550000 0.05550870 39441.61402249 0 2045.98846929 0 12815.33019160 0 -1173.94323890 0 -2969.24320197 0 3349
0.05650000 0.05647670 37621.32382230 0 810.03688971 0 14171.91142838 0 -1376.28997496 0 -3434.04832553 0 3324
0.05750000 0.05747970 37598.07194018 0 680.72210092 0 14552.02433940 0 -283.14702642 0 -3690.15119858 0 3639
0.05850000 0.05849280 37006.03473213 0 1451.03923981 0 17098.54832444 0 895.11220469 0 -3089.46650485 0 3846
0.05950000 0.05951020 35065.49908441 0 1742.05315302 0 15006.10038021 0 2472.49442130 0 -57.92619597 0 3787
0.06050000 0.06049470 34974.48457440 0 65.83748277 0 15484.09264264 0 3425.78837121 0 1152.06432506 0 3930
0.06150000 0.06148310 34797.88099355 0 11.50613851 0 14462.33850837 0 2545.71570533 0 2017.61010078 0 4083
0.06250000 0.06249100 33525.67087188 0 2001.09019215 0 14055.54129453 0 2146.90163769 0 5369.64571638 0 4303
0.06350000 0.06350600 32677.19862103 0 1243.70995758 0 14102.70939826 0 -179.45802620 0 6572.18877028 0 4470
0.06450000 0.06451750 31186.42080745 0 401.23337062 0 14085.65801804 0 1305.03956475 0 6064.82163011 0 4479
0.06550000 0.06550280 30607.55966593 0 521.05696257 0 13576.99541587 0 1330.19588674 0 5077.91210205 0 4636
0.06650000 0.06648880 30955.56283498 0 -18.29524519 0 12463.67315536 0 1405.13338111 0 3628.36762610 0 4653
0.06750000 0.06749660 30508.79452855 0 137.96006001 0 11667.90517064 0 625.45237712 0 4442.84783976 0 5220
0.06850000 0.06852730 30841.73933584 0 631.99612109 0 12651.79195403 0 157.50603501 0 3656.93422413 0 5029
0.06950000 0.06949320 29357.93708690 0 734.24904079 0 11338.17133754 0 1237.95234867 0 4651.47258399 0 5040
0.07050000 0.07048030 29115.89606636 0 1635.12771224 0 14340.43221212 0 103.69409350 0 4343.90554518 0 5475
0.07150000 0.07148790 28450.22789826 0 581.68236988 0 14561.98943174 0 1384.98174994 0 6061.30063082 0 5509
0.07250000 0.07249820 27986.74038135 0 70.41644270 0 15097.00416698 0 1385.91182523 0 6695.95521710 0 5916
0.07350000 0.07351270 27558.90575036 0 186.33504714 0 13437.59484641 0 1262.32253560 0 6159.01389735 0 5721
0.07450000 0.07449140 27772.82306586 0 14.49776995 0 12646.47723811 0 2052.79794905 0 5616.32604101 0 6028
0.07550000 0.07549160 26718.62701988 0 428.80235218 0 10739.25821578 0 1065.12443058 0 4236.34898189 0 6183
0.07650000 0.07648840 26913.05704369 0 397.35694970 0 9095.91483852 0 968.45306982 0 2260.97980029 0 6330
0.07750000 0.07749960 25734.07589700 0 500.74478269 0 9200.88047780 0 260.32253604 0 703.95294562 0 6583
0.07850000 0.07848650 24769.23351230 0 1254.83764402 0 6975.85251619 0 234.23503154 0 -953.55636401 0 6549
0.07950000 0.07947320 24170.99580235 0 635.19713020 0 7216.05553081 0 -26.93841267 0 -691.06254507 0 6828
0.08050000 0.08048110 23500.56653458 0 582.58365712 0 6686.51052403 0 39.82338778 0 -1614.54426041 0 7147
0.08150000 0.08149960 23673.73769475 0 296.87228027 0 7064.58612729 0 -378.37344880 0 -1218.17717655 0 7386
0.08250000 0.08250610 23279.34148471 0 83.88326849 0 6915.70764778 0 11.00506045 0 -1920.31758260 0 7227
0.08350000 0.08350160 23825.64999126 0 -514.18326332 0 7291.34733957 0 369.67060149 0 -631.93411607 0 7798
0.08450000 0.08449610 23560.24636536 0 325.07792051 0 8009.83049706 0 317.58084938 0 -2039.56652089 0 7371
0.08550000 0.08548940 23581.50522901 0 223.55134532 0 6858.09834175 0 1586.32090444 0 -1036.62648096 0 8256
0.08650000 0.08650700 22742.99807049 0 629.03981036 0 6728.18675465 0 1009.01210286 0 -946.31838528 0 8037
0.08750000 0.08749060 22333.98639169 0 740.29674461 0 6529.77069390 0 680.21166675 0 623.69519917 0 8155
0.08850000 0.08849210 21989.85853633 0 342.62091196 0 7131.61798174 0 578.94861288 0 -1089.78581965 0 8718
0.08950000 0.08949900 21212.69205731 0 791.02238630 0 6956.13270569 0 -496.07004715 0 1292.16245099 0 8571
0.09050000 0.09049190 20311.18337057 0 1362.25026709 0 7471.29476253 0 -228.59811097 0 1218.40969537 0 8932
0.09150000 0.09150830 20119.74287446 0 624.09048117 0 7657.88558037 0 300.52836193 0 1578.12738408 0 9285
0.09250000 0.09250820 19247.02223225 0 27.73119112 0 7171.48942341 0 23.59390623 0 1611.68760060 0 9204
0.09350000 0.09350330 19792.33422957 0 -162.57605254 0 7106.47273208 0 654.36332446 0 1467.82488423 0 9349
0.09450000 0.09448040 19596.02191054 0 -51.38178766 0 7462.30403477 0 -137.78179558 0 944.15928194 0 9564
0.09550000 0.09549270 19871.16918228 0 338.11558299 0 6508.97686789 0 105.08599545 0 232.54982370 0 10155
0.09650000 0.09649430 18987.92983150 0 356.43917333 0 6805.17262911 0 -234.44983464 0 95.00132201 0 9913
0.09750000 0.09749140 19102.86056311 0 411.47084214 0 6885.75700914 0 102.48953528 0 -553.23092403 0 10476
0.09850000 0.09850240 18913.41308547 0 338.84082026 0 7147.27424903 0 78.45838294 0 -231.10267085 0 10575
0.09950000 0.09950330 18262.02821639 0 439.36977899 0 6894.96918339 0 -186.80783541 0 -969.34549920 0 10882
0.10050000 0.10051200 18394.12105147 0 259.61280002 0 6603.82240229 0 92.03039581 0 -1306.12465258 0 10875
0.10150000 0.10150300 17713.39452162 0 286.25613523 0 6898.91093103 0 -300.93028732 0 -640.76983128 0 11118
0.10250000 0.10250800 17854.01304682 0 750.45560263 0 6625.61273753 0 447.08829662 0 -1105.79972303 0 11575
0.10350000 0.10349800 17075.73933532 0 393.35541151 0 6888.66903057 0 891.66649720 0 674.11635193 0 11364
0.10450000 0.10450100 16826.05841066 0 206.44792517 0 6229.54460644 0 1394.84719135 0 867.45575175 0 12093
0.10550000 0.10551000 16585.01389935 0 96.26312414 0 6324.98804638 0 1243.65459596 0 1267.44902199 0 12067
0.10650000 0.10649700 16468.42231901 0 195.99675778 0 5847.75977437 0 897.04432537 0 1287.55636386 0 12054
0.10750000 0.10749900 16335.88659093 0 105.65622018 0 6159.35713942 0 234.99570025 0 2396.49398375 0 12807
0.10850000 0.10850100 15935.51132549 0 456.83415693 0 6184.43595513 0 -261.08541922 0 1463.82777497 0 12736
0.10950000 0.10950300 15791.90327259 0 509.21068225 0 6174.14976537 0 -402.38267793 0 1744.48906448 0 12933
0.11050000 0.11050200 15401.16092974 0 374.69522249 0 6384.61251553 0 -256.22577586 0 1482.30748510 0 13428
0.11150000 0.11150900 15075.63458008 0 309.68406732 0 6162.55704129 0 -188.09222509 0 1063.88765190 0 13453
0.11250000 0.11250000 14904.23499188 0 193.30175392 0 6579.88403603 0 -121.55308909 0 497.69435720 0 13668
0.11350000 0.11349100 14599.96750587 0 330.23208772 0 6569.30996583 0 389.80451694 0 445.24254007 0 13791
0.11450000 0.11448600 14615.24731412 0 248.84496414 0 6251.21314611 0 20.36300185 0 286.91050963 0 14205
0.11550000 0.11549300 14188.18774586 0 90.58113922 0 5463.38401829 0 640.41662412 0 -181.52522924 0 14776
0.11650000 0.11649800 14058.08792924 0 119.97971173 0 5296.02582866 0 706.16962505 0 -103.84567363 0 14553
0.11750000 0.11747300 13790.58056162 0 131.92010682 0 4581.45120184 0 755.77031854 0 -632.23085438 0 14568
0.11850000 0.11849100 13875.28384649 0 -16.83668784 0 4707.08887155 0 357.59512404 0 -455.78007160 0 16015
0.11950000 0.11950300 13783.16210400 0 -75.83258111 0 3910.19150970 0 499.99518630 0 -489.38236296 0 15270
0.12050000 0.12050700 13671.22090008 0 206.49664340 0 4283.83818303 0 344.25407987 0 -346.84721834 0 15999
0.12150000 0.12150000 13620.62037566 0 262.75401857 0 4117.42114101 0 -130.80290925 0 203.66655718 0 15670
0.12250000 0.12250700 13524.18042649 0 276.70514785 0 4772.93598725 0 -214.92268259 0 420.47042776 0 16887
0.12350000 0.12352200 13571.79142321 0 156.64682260 0 5324.86923481 0 -202.53496558 0 1123.82989677 0 16407
0.12450000 0.12449800 13636.34307690 0 -241.87936459 0 4832.80404754 0 208.59927789 0 1886.10409891 0 16306
0.12550000 0.12549900 13889.01352926 0 -183.39866660 0 5629.55746917 0 42.18068574 0 1850.89410598 0 17523
0.12650000 0.12650100 14129.06153133 0 -17.90206694 0 5120.10873194 0 860.98729960 0 1543.07240370 0 17154
0.12750000 0.12750600 14094.29443140 0 -5.67530832 0 5162.05069835 0 461.13686235 0 1869.05271869 0 18007
0.12850000 0.12850300 13753.04538049 0 552.76920808 0 4382.28222300 0 57.13751427 0 1513.33213924 0 17496
0.12950000 0.12949900 13298.08355369 0 530.74192509 0 4433.21491716 0 520.64839378 0 1625.09618596 0 18405
0.13050000 0.13049000 12984.62603807 0 239.91070524 0 3909.28357907 0 323.97400973 0 1192.97656526 0 18100
0.13150000 0.13148800 12558.78442555 0 300.73762886 0 3995.06087944 0 -276.59663906 0 402.10144088 0 19059
0.13250000 0.13249300 12254.62766278 0 470.52840826 0 4229.45092353 0 -441.29636351 0 44.31299405 0 18957
0.13350000 0.13349100 12067.17320360 0 288.04763739 0 4339.90843592 0 -306.61371165 0 -146.57654318 0 19468
0.13450000 0.13450700 11803.98404266 0 -120.81788672 0 4231.15606155 0 -194.38241282 0 -143.55269127 0 19953
0.13550000 0.13551000 11971.61904042 0 -123.58928963 0 4409.99625202 0 -174.81207870 0 -983.23240899 0 19956
0.13650000 0.13649900 12123.75278342 0 245.18223909 0 4593.48681891 0 -49.14285286 0 -536.94464145 0 19723
0.13750000 0.13749600 11908.72823545 0 -29.54162696 0 4429.40603743 0 208.72771685 0 -349.16465592 0 20946
0.13850000 0.13851100 12085.33181630 0 34.03278335 0 4507.89774807 0 352.27930090 0 237.61209061 0 20955
0.13950000 0.13949800 12101.82958028 0 -39.02518389 0 4402.64422834 0 691.56079969 0 66.71529669 0 20506
0.14050000 0.14048300 12005.72180086 0 26.38236052 0 4017.23874605 0 993.09785040 0 435.25419585 0 21447
0.14150000 0.14148400 12009.81856104 0 158.59223007 0 3748.92309872 0 586.56637236 0 830.75763838 0 21771
0.14250000 0.14249400 11897.32374088 0 97.97280182 0 3394.83015102 0 427.33859084 0 975.75637527 0 22470
0.14350000 0.14350900 11507.79935376 0 380.56355464 0 3368.28978843 0 65.53952651 0 1133.32995146 0 22519
0.14450000 0.14449900 11430.73597303 0 318.03813639 0 3219.24522405 0 7.24194263 0 891.14166901 0 22218
0.14550000 0.14550500 10896.82847027 0 244.99733126 0 3102.28825699 0 18.54470467 0 1173.55570753 0 23559
0.14650000 0.14650700 10937.67427653 0 254.29365518 0 3207.10995605 0 29.65179659 0 704.57078135 0 23044
0.14750000 0.14750500 10630.36190119 0 -55.56103666 0 2701.38151995 0 249.20702916 0 511.16273311 0 23649
0.14850000 0.14849900 10614.74992319 0 110.59912743 0 2871.06489780 0 58.85472113 0 51.94005428 0 23640
0.14950000 0.14949500 10609.45735193 0 287.35008093 0 2709.88506541 0 -103.97632706 0 27.60950627 0 24457
0.15050000 0.15050000 10344.28624485 0 305.86743695 0 2865.75018189 0 -341.02428272 0 181.75885529 0 24591
0.15150000 0.15149900 9980.37214503 0 169.73652500 0 2859.32823349 0 -58.56772647 0 9.67303763 0 25020
0.15250000 0.15250500 10195.00916164 0 -36.47290229 0 3050.13760709 0 107.30810032 0 -82.89251686 0 25297
0.15350000 0.15350100 10107.82567602 0 -17.18889849 0 2945.30483571 0 289.89228670 0 -388.06394748 0 25452
0.15450000 0.15450400 10135.97152571 0 177.04868832 0 2908.40077709 0 241.02015219 0 -218.04729265 0 26061
0.15550000 0.15549900 9919.31934598 0 132.96422705 0 2786.90415685 0 199.43250017 0 26.21937589 0 26128
0.15650000 0.15649500 9839.99721098 0 110.69003121 0 2749.30254177 0 162.38560856 0 27.30446373 0 26331
0.15750000 0.15749700 9710.70567407 0 218.08826026 0 2712.48706175 0 202.72651680 0 428.02950391 0 27345
0.15850000 0.15849900 9477.95433406 0 114.97169922 0 2850.39286736 0 139.62090873 0 76.28654643 0 26980
0.15950000 0.15949700 9312.85489869 0 150.24480439 0 2695.80106825 0 456.26282496 0 758.76648964 0 27777
0.16050000 0.16050000 9275.82904450 0 125.26453237 0 2524.67828817 0 356.35723813 0 588.86277253 0 28224
0.16150000 0.16150500 9231.81655334 0 64.74874107 0 2521.31230143 0 110.64496685 0 519.15473717 0 28075
0.16250000 0.16249700 9183.64086806 0 121.31281964 0 2621.24003292 0 -80.15200575 0 837.79410080 0 28590
0.16350000 0.16349900 9037.26473395 0 139.90103855 0 2500.55169239 0 -56.61135740 0 486.88333925 0 29163
0.16450000 0.16449100 9061.39132973 0 122.76661589 0 2650.31595789 0 -242.10191832 0 1125.42431154 0 28996
0.16550000 0.16550500 8881.08959239 0 188.84514318 0 2622.09260193 0 98.83832545 0 934.26837418 0 30777
0.16650000 0.16650700 8875.38734510 0 222.11415756 0 2671.87377431 0 188.05015025 0 1156.94722030 0 29211
0.16750000 0.16749900 8672.67522233 0 94.58367391 0 2680.49911535 0 129.30925263 0 1185.65775856 0 30922
0.16850000 0.16850800 8583.22191012 0 73.40962427 0 2755.63591157 0 92.23390514 0 897.76070478 0 30867
0.16950000 0.16949900 8524.50537160 0 119.97639004 0 2934.64218691 0 -44.46889238 0 1100.20930623 0 30852
0.17050000 0.17049200 8542.04393411 0 87.93784311 0 2915.03309965 0 -18.78453122 0 1108.80475199 0 31257
0.17150000 0.17149500 8379.19218068 0 39.79913939 0 2773.60629475 0 317.80783204 0 1424.77568534 0 32608
0.17250000 0.17250900 8486.01797053 0 19.68327183 0 2524.62292655 0 362.95855818 0 1267.88084266 0 32361
0.17350000 0.17350400 8381.15198218 0 32.43117156 0 2316.00925464 0 408.41820219 0 1128.13703112 0 32508
0.17450000 0.17449800 8437.28866901 0 49.57312340 0 2094.88385569 0 134.68597356 0 823.43108104 0 32791
0.17550000 0.17549800 8222.06481918 0 216.04652356 0 2182.72060847 0 -214.08450760 0 675.58454220 0 33633
0.17650000 0.17650100 8106.90156874 0 180.09468487 0 2054.01590478 0 -296.38177628 0 784.86063754 0 33984
0.17750000 0.17750300 8066.21077503 0 101.99792406 0 2466.84753565 0 -167.39029938 0 851.48392320 0 34069
0.17850000 0.17849800 7995.60255966 0 -39.50594423 0 2305.91129441 0 20.27896291 0 582.01896856 0 34536
