### header ###
fiducial parameters:
Omega_m = 0.31
Omega_nu = 0
Omega_de = 0.69
Omega_k = 0
H_0 = 100
w_de = -1
zeff = 0
beta = 0
fgrowth = 0
b_1 = 2
gamma = 0.55
Lx = 3500 Ly = 3500 Lz = 3500
nx = 700 ny = 700 nz = 700
xoffset = -685.467585 yoffset = -31.7331281 zoffset = 572.489161
bins = 400 dk = 0.001
kx_ny = 0.628318531 ky_ny = 0.628318531 kz_ny = 0.628318531
############################
A(data) = 8.00599081 (not used)
A(ran) = 8.00984494 (used)
Ngal = 476245
weighted Ngal = 0
Nran = 23820508
weighted Nran = 0
SN(data) = 3477.65014
SN(ran) = 69.7686544
SN(data+ran) = 3547.4188
############################
13 columns: k_central k_mean P_0(k) sigma^{lin}_{P_0(k)} P^img_1(k) sigma^{lin}_{P_1(k)} P_2(k) sigma^{lin}_{P_2(k)} P^img_3(k) sigma^{lin}_{P_3(k)} P_4(k) sigma^{lin}_{P_4(k)} N_modes
### header ###
0.00050000 0 0 0 0 0 0 0 0 0 0 0 0
0.00150000 0.00179520 42696.43462617 0 -65477.96438704 0 -18208.54888751 0 -3611.36053517 0 20287.37787221 0 3
0.00250000 0.00253879 63658.55997284 0 -45971.51758428 0 -444.85611594 0 -45799.78582635 0 17117.03910689 0 6
0.00350000 0.00331552 77590.97701539 0 -8160.36982529 0 794.35515607 0 -63875.68826253 0 -24461.53360559 0 7
0.00450000 0.00420575 80024.34184078 0 13010.53527815 0 -10237.94763729 0 -46738.49752447 0 38276.14111207 0 24
0.00550000 0.00557378 48861.28363870 0 20842.10134563 0 3770.79094024 0 -35075.13200700 0 24860.69091531 0 45
0.00650000 0.00659388 50097.17653496 0 -172.60093544 0 6911.47801970 0 -32845.83012802 0 -14092.30141293 0 40
0.00750000 0.00754703 66938.84692361 0 -27165.06315656 0 39861.69802610 0 -20939.09491104 0 -59855.54856738 0 57
0.00850000 0.00846663 76972.58767427 0 -2751.90453810 0 45748.85313218 0 -52832.48365816 0 -20330.00632276 0 75
0.00950000 0.00948925 93832.74884536 0 14835.69730126 0 84088.21721897 0 -48442.52831406 0 -40878.58033745 0 112
0.01050000 0.01054430 87923.00619666 0 -7808.13702816 0 67829.17256228 0 14044.02607672 0 -27655.78859253 0 105
0.01150000 0.01145670 89816.48446390 0 -10310.75924530 0 79106.66755981 0 16265.79877483 0 -16554.23283636 0 144
0.01250000 0.01249090 90426.68028465 0 12055.76870904 0 75289.48357858 0 41981.71605913 0 -50987.72362012 0 169
0.01350000 0.01339930 101996.26321090 0 -6814.72804543 0 68102.32681555 0 58359.01314489 0 -31207.34750135 0 180
0.01450000 0.01448870 79053.85257043 0 8180.83148156 0 43602.92585908 0 23431.03233472 0 -6365.93350356 0 267
0.01550000 0.01550050 82823.53627818 0 4097.52417331 0 22359.00984578 0 14297.58231507 0 4197.46297712 0 238
0.01650000 0.01653350 78841.37465716 0 -988.34560859 0 26908.40666727 0 4819.97122308 0 20193.26311125 0 315
0.01750000 0.01747870 88229.04525465 0 -2677.85282971 0 33958.70949554 0 -16202.79724661 0 5878.24188460 0 297
0.01850000 0.01844180 79224.69854238 0 7385.72783633 0 30749.06397711 0 -14614.69369788 0 -12818.31971930 0 388
0.01950000 0.01947590 81508.91915246 0 9459.50784091 0 37738.13684914 0 -21525.48523343 0 -1524.95808030 0 399
0.02050000 0.02045430 70762.56357648 0 4641.31926213 0 43074.44379548 0 -3671.58290986 0 -12297.92045282 0 462
0.02150000 0.02154770 69510.94797898 0 5782.33340702 0 44931.49411407 0 8552.09760505 0 -18977.63256942 0 571
0.02250000 0.02255340 63447.41073854 0 2862.72743721 0 33840.45706648 0 22651.76211399 0 -13922.56267346 0 510
0.02350000 0.02348930 62012.65888854 0 -1890.89841555 0 19997.83657821 0 24853.27245768 0 -13554.85076624 0 555
0.02450000 0.02439640 60977.95013424 0 -1706.10131433 0 13403.38136272 0 14656.65780894 0 -10248.48849051 0 592
0.02550000 0.02547300 63643.94450408 0 -191.61876054 0 11429.96091029 0 7445.51839035 0 -8374.64145518 0 837
0.02650000 0.02652900 62016.20203249 0 2678.56145850 0 14021.88142709 0 1517.93822636 0 16014.78917119 0 723
0.02750000 0.02749970 61545.18533470 0 1885.60584429 0 14296.25363609 0 -424.83513820 0 14972.66195926 0 826
0.02850000 0.02848090 62314.15829336 0 -3629.76273902 0 24601.04489831 0 7356.16472906 0 24692.83447106 0 831
0.02950000 0.02946900 64347.14785331 0 154.27180893 0 24966.87451032 0 3200.63264603 0 24948.05155813 0 996
0.03050000 0.03053250 61315.76676446 0 4555.79662523 0 23623.13717033 0 8761.06559135 0 16324.92498936 0 1041
0.03150000 0.03150510 61678.27467902 0 2083.78938622 0 22095.15634535 0 4368.07643026 0 24571.92468404 0 1036
0.03250000 0.03246190 60501.50799730 0 2684.14191021 0 25033.75135222 0 -7021.70301327 0 11536.69812154 0 1059
0.03350000 0.03345080 57234.06494331 0 1963.03461175 0 26660.05442158 0 -1367.17745163 0 17691.24987198 0 1302
0.03450000 0.03451200 56087.52570834 0 1673.20543729 0 27619.47136712 0 1517.22959757 0 11487.86916909 0 1339
0.03550000 0.03553350 55709.40581579 0 867.34281404 0 28177.29509148 0 7362.75276233 0 7567.18109546 0 1365
0.03650000 0.03647120 58056.73867734 0 -313.49516152 0 27320.29715052 0 2300.26440875 0 2870.38948599 0 1308
0.03750000 0.03744890 53920.11812509 0 3251.82000366 0 21348.88165258 0 2734.47669884 0 1469.60752853 0 1579
0.03850000 0.03847530 50359.14774017 0 5506.00139652 0 24540.47928155 0 -2544.40917100 0 4176.32590905 0 1662
0.03950000 0.03950240 47593.17027722 0 4106.24916527 0 24560.74163597 0 203.72966943 0 2781.79981511 0 1683
0.04050000 0.04050350 43742.10498205 0 960.15989853 0 21821.00558284 0 563.16612109 0 746.48174525 0 1822
0.04150000 0.04152450 43305.52321445 0 622.46838558 0 20376.28864051 0 594.41000726 0 -2643.80543090 0 1887
0.04250000 0.04250150 43368.96763566 0 -867.41921308 0 21563.57403081 0 2307.74930033 0 -7736.26656776 0 1920
0.04350000 0.04349210 42094.98594203 0 427.07617674 0 19350.76991580 0 522.71891853 0 -8110.95403963 0 2005
0.04450000 0.04448520 41598.94579015 0 1775.97875626 0 15660.80694674 0 1171.14194072 0 -8551.80972460 0 2151
0.04550000 0.04548030 40471.67240036 0 375.69837512 0 18993.46599391 0 1597.79183295 0 -11297.64662871 0 2274
0.04650000 0.04648670 40433.80504948 0 766.67766572 0 14515.26422100 0 532.73826525 0 -9845.00190180 0 2311
0.04750000 0.04749250 39881.51748753 0 -211.34189274 0 14881.31527951 0 3463.06888888 0 -6137.25677908 0 2568
0.04850000 0.04851840 41362.55165527 0 -1457.46118820 0 14015.57020194 0 1770.35401525 0 -8766.08135450 0 2493
0.04950000 0.04949480 40936.71004275 0 52.13149477 0 13661.47725424 0 2911.35708781 0 -4451.87178448 0 2644
0.05050000 0.05050630 40200.40044231 0 2197.32500491 0 14224.06207827 0 2307.61643243 0 -4400.69549917 0 2829
0.05150000 0.05149060 39548.12978724 0 469.38242264 0 12241.11942650 0 4239.54888376 0 1165.22931926 0 2784
0.05250000 0.05249300 40005.97041849 0 -1102.22889828 0 12122.64555094 0 2276.66928456 0 1114.41842067 0 3055
0.05350000 0.05348950 38898.73793663 0 1937.07001005 0 11977.26592607 0 749.49231037 0 2842.49829977 0 3009
0.05450000 0.05448610 38192.10216670 0 3253.83516678 0 13281.36434321 0 -1126.81942447 0 2510.33962753 0 3336
0.05550000 0.05550870 35273.88023750 0 2141.73086200 0 11538.46969351 0 -1179.74513710 0 7661.74982173 0 3349
0.05650000 0.05647670 34522.62299855 0 359.77083587 0 13206.40470419 0 1693.52315334 0 5591.31365924 0 3324
0.05750000 0.05747970 34865.75434468 0 100.18748823 0 14503.74900319 0 2902.74281911 0 3915.71659979 0 3639
0.05850000 0.05849280 33615.79959591 0 399.61459673 0 11167.21464234 0 2248.19126513 0 6014.27646732 0 3846
0.05950000 0.05951020 33150.54050703 0 599.88195019 0 10790.71130921 0 2733.00407964 0 3064.95237770 0 3787
0.06050000 0.06049470 32419.21345276 0 211.91654640 0 9670.35812243 0 512.48033977 0 4184.03224712 0 3930
0.06150000 0.06148310 32167.87167937 0 1089.97847810 0 7475.90084965 0 3324.47659912 0 2249.34278691 0 4083
0.06250000 0.06249100 31763.39965375 0 23.64705339 0 8118.85967955 0 -2029.67893483 0 3298.32376790 0 4303
0.06350000 0.06350600 31935.35285818 0 444.22056449 0 9982.71947789 0 -1367.73106787 0 3930.64209364 0 4470
0.06450000 0.06451750 31895.82465858 0 56.90499545 0 10936.45632080 0 -3822.14438275 0 2973.56140865 0 4479
0.06550000 0.06550280 32084.38635024 0 989.20592823 0 13226.00271912 0 -1599.59662190 0 2557.26414011 0 4636
0.06650000 0.06648880 31289.39342826 0 320.06215737 0 14854.63097670 0 -1297.61003480 0 2983.33827146 0 4653
0.06750000 0.06749660 31708.03802965 0 -340.92795349 0 14627.64831791 0 2578.29048495 0 2647.73610621 0 5220
0.06850000 0.06852730 32628.03749884 0 -729.63631027 0 14253.40373904 0 2952.46862987 0 -246.30940175 0 5029
0.06950000 0.06949320 31167.37640876 0 394.34084842 0 11613.42933253 0 1892.83607240 0 -51.23120404 0 5040
0.07050000 0.07048030 31781.11537346 0 1087.96885115 0 11819.26385091 0 243.29219324 0 -2699.39957381 0 5475
0.07150000 0.07148790 29943.10945356 0 1542.76237861 0 10670.51015098 0 -608.86382008 0 -300.24823211 0 5509
0.07250000 0.07249820 28605.46189222 0 1893.65542443 0 10435.10145301 0 -850.46194762 0 -2243.71804590 0 5916
0.07350000 0.07351270 27002.96432122 0 970.77825803 0 10329.74828236 0 -303.86223893 0 -2615.91424468 0 5721
0.07450000 0.07449140 26873.08595110 0 576.69760925 0 9708.36941354 0 223.32879159 0 -4157.17078711 0 6028
0.07550000 0.07549160 26073.11048295 0 476.89056610 0 10087.31973045 0 1546.56018602 0 -2432.82228148 0 6183
0.07650000 0.07648840 26358.22284703 0 92.33864933 0 9690.70905545 0 517.38095073 0 -2622.52442260 0 6330
0.07750000 0.07749960 25693.77263466 0 -249.30335838 0 9940.06888269 0 2274.65412144 0 -335.17920245 0 6583
0.07850000 0.07848650 26100.90201824 0 253.36468713 0 9819.18124032 0 1420.37997239 0 -459.74396389 0 6549
0.07950000 0.07947320 25790.54475358 0 612.25748764 0 9639.68778269 0 1402.52031245 0 311.14118526 0 6828
0.08050000 0.08048110 25040.17330062 0 1026.02915888 0 9595.94102733 0 58.44349498 0 1086.19949364 0 7147
0.08150000 0.08149960 24641.23743740 0 213.75676679 0 9002.56406797 0 1251.06198126 0 1591.40310153 0 7386
0.08250000 0.08250610 24887.26449487 0 -313.92033879 0 9035.37136641 0 477.16405252 0 262.69312079 0 7227
0.08350000 0.08350160 24116.40924100 0 656.35745016 0 8019.02052666 0 658.89190531 0 -1168.48458276 0 7798
0.08450000 0.08449610 24208.08809050 0 932.73264272 0 7934.01828902 0 325.97588606 0 -122.79872563 0 7371
0.08550000 0.08548940 22777.21155418 0 1017.84449637 0 8096.41607714 0 -89.34502487 0 -497.14074096 0 8256
0.08650000 0.08650700 22204.10802157 0 410.48761970 0 6582.70747886 0 651.17117321 0 -1483.97940614 0 8037
0.08750000 0.08749060 21679.39054841 0 437.12874045 0 7996.57692425 0 480.88103197 0 -792.51936461 0 8155
0.08850000 0.08849210 21262.07462600 0 533.97947287 0 7519.91334081 0 802.83655688 0 -1707.38570401 0 8718
0.08950000 0.08949900 21097.98277219 0 526.30524453 0 8056.27889967 0 403.78886318 0 264.91644361 0 8571
0.09050000 0.09049190 20397.32605766 0 240.13879513 0 6883.96329252 0 724.78884647 0 1318.18241431 0 8932
0.09150000 0.09150830 20370.64175485 0 22.21363022 0 7896.54954184 0 1032.55518713 0 1574.50673386 0 9285
0.09250000 0.09250820 20356.80134883 0 171.08070524 0 6853.45903765 0 1293.73472111 0 702.09500952 0 9204
0.09350000 0.09350330 19958.64054835 0 257.99956230 0 6365.02557292 0 314.53817452 0 11.68694957 0 9349
0.09450000 0.09448040 19689.80450175 0 293.37896179 0 5747.16770339 0 123.47303022 0 512.51355674 0 9564
0.09550000 0.09549270 19287.76838759 0 178.88115807 0 5652.58790479 0 -38.17272560 0 -692.69682021 0 10155
0.09650000 0.09649430 19304.59832131 0 579.10583990 0 5509.20129839 0 -491.74076815 0 -1464.94607978 0 9913
0.09750000 0.09749140 18718.98306165 0 325.16760634 0 4728.17057801 0 -541.49536695 0 -1571.51720616 0 10476
0.09850000 0.09850240 18422.57692626 0 574.80534894 0 5736.78186271 0 -410.16209335 0 -1660.16223866 0 10575
0.09950000 0.09950330 18009.46848727 0 404.09888828 0 5633.95318212 0 -630.64640470 0 -2215.33967739 0 10882
0.10050000 0.10051200 18104.02614122 0 573.00055999 0 6615.09402895 0 -323.20116146 0 -2127.35898438 0 10875
0.10150000 0.10150300 17441.23677758 0 194.89616869 0 6854.92058452 0 -19.74571974 0 -476.17086499 0 11118
0.10250000 0.10250800 17955.87843515 0 -110.64496685 0 7263.68867218 0 1209.50754621 0 -456.45991235 0 11575
0.10350000 0.10349800 17594.69919957 0 -55.72656792 0 7261.61814744 0 1187.01965451 0 3.24647207 0 11364
0.10450000 0.10450100 17733.32470630 0 389.98499583 0 7482.95392056 0 406.30006645 0 -407.50805709 0 12093
0.10550000 0.10551000 16963.24451516 0 504.94119380 0 6591.54319406 0 181.21741861 0 571.87118286 0 12067
0.10650000 0.10649700 16801.81001930 0 310.63960895 0 6413.66629585 0 563.35877954 0 545.87004249 0 12054
0.10750000 0.10749900 16717.10673444 0 -42.24523739 0 6546.82207412 0 65.89096210 0 541.04250887 0 12807
0.10850000 0.10850100 16632.73561932 0 211.45704492 0 6244.45902797 0 21.66543942 0 -380.84147000 0 12736
0.10950000 0.10950300 16383.71903415 0 661.86261006 0 6429.01253805 0 -336.07606076 0 187.56739689 0 12933
0.11050000 0.11050200 15927.53925162 0 353.45961072 0 6085.90333657 0 279.21192218 0 1164.64248605 0 13428
0.11150000 0.11150900 15781.16311752 0 106.53314831 0 6649.46252519 0 283.75378982 0 1123.20984658 0 13453
0.11250000 0.11250000 15524.61735147 0 209.01781176 0 6457.06980914 0 1036.40614170 0 1368.62792618 0 13668
0.11350000 0.11349100 15722.70124248 0 134.42688116 0 6140.31274073 0 1150.82422468 0 1254.14008756 0 13791
0.11450000 0.11448600 15298.63120192 0 250.93320460 0 5998.64234467 0 233.49761471 0 1928.38930739 0 14205
0.11550000 0.11549300 14946.53127269 0 366.57145777 0 5535.54235913 0 -209.42638055 0 960.96042762 0 14776
0.11650000 0.11649800 14861.38509484 0 288.23475968 0 5582.35614847 0 -33.40188228 0 1033.09330211 0 14553
0.11750000 0.11747300 14450.26967432 0 82.20149307 0 5535.74166098 0 -54.99158700 0 587.52634292 0 14568
0.11850000 0.11849100 14381.62126044 0 196.86372081 0 4606.12034153 0 343.53991492 0 -355.94091871 0 16015
0.11950000 0.11950300 14272.89103072 0 -6.56762697 0 4516.82204187 0 621.41872919 0 -542.28260925 0 15270
0.12050000 0.12050700 14245.32094193 0 -31.65633027 0 3946.99591740 0 -91.15955746 0 -776.30948108 0 15999
0.12150000 0.12150000 14327.47759208 0 42.29960250 0 4353.56061242 0 -249.06087447 0 -764.58278186 0 15670
0.12250000 0.12250700 14048.23356015 0 302.37079677 0 4515.41585662 0 -126.13260264 0 -1086.17181283 0 16887
0.12350000 0.12352200 13932.85993554 0 452.18267327 0 4737.46025853 0 -77.74621101 0 8.63842852 0 16407
0.12450000 0.12449800 13736.99050950 0 208.95580675 0 4763.18126908 0 213.23636752 0 -114.57641722 0 16306
0.12550000 0.12549900 13568.24827927 0 77.63581993 0 4714.29695501 0 853.51901651 0 752.12530921 0 17523
0.12650000 0.12650100 13462.61830050 0 185.57770012 0 4732.68808653 0 284.52220917 0 320.16623722 0 17154
0.12750000 0.12750600 13432.28013049 0 168.97474906 0 4838.51736715 0 743.95393349 0 540.05707196 0 18007
0.12850000 0.12850300 12967.46393461 0 268.37654512 0 4244.60893620 0 314.32669311 0 841.28741928 0 17496
0.12950000 0.12949900 12988.05845877 0 123.59039686 0 4006.19963821 0 213.52756966 0 177.31442411 0 18405
0.13050000 0.13049000 12879.99256854 0 -46.43566944 0 4124.27491007 0 -3.61616592 0 32.81471690 0 18100
0.13150000 0.13148800 12706.04634564 0 357.21423607 0 4038.32045251 0 -29.86416378 0 -308.38528362 0 19059
0.13250000 0.13249300 12464.22677160 0 188.23284361 0 3787.18905329 0 -71.02232032 0 -307.10310840 0 18957
0.13350000 0.13349100 12441.86067546 0 81.68762648 0 3691.63489011 0 134.76680153 0 -838.79725343 0 19468
0.13450000 0.13450700 12319.95437921 0 67.86061796 0 3546.13346967 0 586.29842210 0 -753.21593321 0 19953
0.13550000 0.13551000 12155.19818591 0 306.08224005 0 3250.00414239 0 333.58478767 0 -606.45891113 0 19956
0.13650000 0.13649900 11847.38755595 0 401.51903660 0 3045.89690669 0 196.26249357 0 -408.78580337 0 19723
0.13750000 0.13749600 11643.32460954 0 143.62466139 0 3054.13471635 0 433.41951163 0 132.97308491 0 20946
0.13850000 0.13851100 11608.00389337 0 -117.53162072 0 3020.45270425 0 186.34833393 0 -461.39816922 0 20955
0.13950000 0.13949800 11660.37598976 0 -130.77190674 0 3123.29245717 0 140.09923316 0 42.20903089 0 20506
0.14050000 0.14048300 11676.20941426 0 246.73568626 0 3346.31122367 0 -15.21448153 0 -536.76969872 0 21447
0.14150000 0.14148400 11585.74852049 0 165.97857796 0 3100.95957801 0 -247.97689387 0 118.95662892 0 21771
0.14250000 0.14249400 11245.38525556 0 317.95287949 0 3149.34563747 0 -310.04613234 0 123.93806786 0 22470
0.14350000 0.14350900 11155.92087103 0 237.16144699 0 3176.10744655 0 105.71523567 0 369.38272104 0 22519
0.14450000 0.14449900 11047.30136456 0 177.91232965 0 3671.51647591 0 -94.27663835 0 -210.15604676 0 22218
0.14550000 0.14550500 10900.86986883 0 202.61136462 0 3530.74293817 0 127.17672287 0 148.09788061 0 23559
0.14650000 0.14650700 10769.37493928 0 270.17801236 0 3605.68043254 0 -21.45550814 0 171.31211683 0 23044
0.14750000 0.14750500 10520.48014968 0 283.42826348 0 3605.16003328 0 0.93531582 0 -15.17008151 0 23649
0.14850000 0.14849900 10452.76181109 0 113.18905492 0 3571.43373188 0 137.93348643 0 527.61177886 0 23640
0.14950000 0.14949500 10316.99296417 0 52.71212749 0 3392.05099749 0 363.86427435 0 265.24639889 0 24457
0.15050000 0.15050000 10218.78144303 0 6.99914869 0 3138.67191634 0 241.44200776 0 202.68001304 0 24591
0.15150000 0.15149900 10310.30527998 0 57.55649104 0 3165.26764056 0 185.06062255 0 41.38580354 0 25020
0.15250000 0.15250500 10069.95832514 0 104.07664232 0 2864.46579221 0 7.92779564 0 29.26050063 0 25297
0.15350000 0.15350100 9946.47975876 0 227.94484381 0 2740.31181402 0 -173.65169906 0 -192.09819221 0 25452
0.15450000 0.15450400 9829.81067215 0 288.38091437 0 2929.69285771 0 26.62916264 0 136.45200937 0 26061
0.15550000 0.15549900 9591.37922950 0 261.19503524 0 3300.17284615 0 11.14783807 0 171.66089506 0 26128
0.15650000 0.15649500 9386.51907571 0 245.94401503 0 3087.07488269 0 259.95272039 0 346.63462970 0 26331
0.15750000 0.15749700 9254.37087900 0 205.62192974 0 3242.14279177 0 138.83034474 0 352.54171499 0 27345
0.15850000 0.15849900 9232.06014449 0 18.01090789 0 3035.41141508 0 367.94221158 0 405.93135804 0 26980
0.15950000 0.15949700 9078.04410626 0 -61.46635038 0 2952.43541289 0 226.60841420 0 439.91896630 0 27777
0.16050000 0.16050000 9189.73064671 0 -63.68557645 0 2709.11000268 0 4.90622463 0 -218.81128307 0 28224
0.16150000 0.16150500 9228.53914520 0 98.14309417 0 2759.09047691 0 -76.24546810 0 43.81285714 0 28075
0.16250000 0.16249700 9063.22933565 0 210.05861030 0 2527.06991033 0 -112.35198717 0 -92.79914732 0 28590
0.16350000 0.16349900 8946.85920181 0 107.13703290 0 2422.75753822 0 198.19904318 0 464.54381670 0 29163
0.16450000 0.16449100 8943.80324016 0 10.61572429 0 2651.11316528 0 335.17145182 0 121.16777219 0 28996
0.16550000 0.16550500 8972.70200794 0 82.16539729 0 2690.32026746 0 135.18201371 0 168.00259894 0 30777
0.16650000 0.16650700 8793.31927355 0 309.93098016 0 2651.33461177 0 -110.76753749 0 363.41916690 0 29211
0.16750000 0.16749900 8523.87424909 0 352.49521123 0 2861.22160104 0 -446.36527381 0 808.61963213 0 30922
0.16850000 0.16850800 8281.45676951 0 268.60352778 0 2814.15314823 0 -27.99537679 0 785.11087208 0 30867
0.16950000 0.16949900 8237.10103628 0 -38.76398774 0 3022.45679505 0 308.64659048 0 488.53422288 0 30852
0.17050000 0.17049200 8061.84827905 0 41.43684695 0 2541.72966839 0 372.64462793 0 233.91393412 0 31257
0.17150000 0.17149500 8192.23597612 0 -35.34385733 0 2500.81742819 0 120.85442540 0 -338.90393251 0 32608
0.17250000 0.17250900 8087.71322983 0 5.26618591 0 2275.37382256 0 -56.47893239 0 -131.27459028 0 32361
0.17350000 0.17350400 8133.16512321 0 81.64643743 0 2274.14479450 0 -28.15736491 0 28.82369741 0 32508
0.17450000 0.17449800 8077.48240170 0 -17.45806671 0 2325.39858609 0 239.59846568 0 102.66901767 0 32791
0.17550000 0.17549800 8116.98845665 0 -32.81881366 0 2163.70942676 0 466.10612173 0 403.00383535 0 33633
0.17650000 0.17650100 8102.66086834 0 91.40060198 0 2118.76686032 0 351.55184915 0 231.53559875 0 33984
0.17750000 0.17750300 8071.33726142 0 45.74841024 0 2037.38527290 0 275.15945130 0 316.94529793 0 34069
0.17850000 0.17849800 7980.06808794 0 97.77538227 0 2052.86438300 0 187.64822486 0 515.84521928 0 34536
