### header ###
fiducial parameters:
Omega_m = 0.31
Omega_nu = 0
Omega_de = 0.69
Omega_k = 0
H_0 = 100
w_de = -1
zeff = 0
beta = 0
fgrowth = 0
b_1 = 2
gamma = 0.55
Lx = 3500 Ly = 3500 Lz = 3500
nx = 700 ny = 700 nz = 700
xoffset = -685.467585 yoffset = -31.7331281 zoffset = 572.489161
bins = 400 dk = 0.001
kx_ny = 0.628318531 ky_ny = 0.628318531 kz_ny = 0.628318531
############################
A(data) = 8.02827632 (not used)
A(ran) = 8.03122997 (used)
Ngal = 477034
weighted Ngal = 0
Nran = 23820508
weighted Nran = 0
SN(data) = 3482.25223
SN(ran) = 69.9549257
SN(data+ran) = 3552.20716
############################
13 columns: k_central k_mean P_0(k) sigma^{lin}_{P_0(k)} P^img_1(k) sigma^{lin}_{P_1(k)} P_2(k) sigma^{lin}_{P_2(k)} P^img_3(k) sigma^{lin}_{P_3(k)} P_4(k) sigma^{lin}_{P_4(k)} N_modes
### header ###
0.00050000 0 0 0 0 0 0 0 0 0 0 0 0
0.00150000 0.00179520 44498.89838340 0 -46948.09663329 0 -16660.74860111 0 11271.29449564 0 -10436.74015708 0 3
0.00250000 0.00253879 59601.21726629 0 -20273.09457320 0 46.76019928 0 -36288.21591414 0 11199.54583081 0 6
0.00350000 0.00331552 73720.31370528 0 -2720.03838727 0 1857.43784995 0 -57563.68805316 0 20252.16787929 0 7
0.00450000 0.00420575 65317.85857016 0 7663.60997230 0 -3740.20917909 0 -27237.69760737 0 49205.85438706 0 24
0.00550000 0.00557378 64749.40541397 0 -8250.33246444 0 7457.12218676 0 -18435.64226954 0 -10399.39320547 0 45
0.00650000 0.00659388 68931.53322122 0 -8387.07567595 0 17311.80130045 0 6974.03665492 0 1689.42639315 0 40
0.00750000 0.00754703 69025.64798218 0 14372.43123084 0 29781.34278796 0 -20325.02377660 0 -23721.68086121 0 57
0.00850000 0.00846663 65670.29066914 0 5507.87261941 0 7581.36474355 0 879.47808204 0 25723.00357218 0 75
0.00950000 0.00948925 55624.48108443 0 3898.52127935 0 32360.41940797 0 6957.42816769 0 9950.45472337 0 112
0.01050000 0.01054430 67729.18946916 0 -10034.80369384 0 18762.38657494 0 8126.55494530 0 -3058.14289794 0 105
0.01150000 0.01145670 69554.24076902 0 -5328.66704222 0 22566.17304314 0 15804.63644614 0 9863.59233517 0 144
0.01250000 0.01249090 71946.74871583 0 -2117.23887950 0 13730.56856111 0 2061.97690633 0 12125.30290890 0 169
0.01350000 0.01339930 73492.99887676 0 -1557.96468058 0 8900.65439034 0 13670.11366760 0 1160.77824469 0 180
0.01450000 0.01448870 76936.60261860 0 -3965.81886959 0 4162.29727350 0 10222.82284159 0 10950.13064195 0 267
0.01550000 0.01550050 71098.16574173 0 2413.34606212 0 -8372.24983302 0 4102.72816598 0 7711.81887456 0 238
0.01650000 0.01653350 72873.05941016 0 2456.16274220 0 -12202.36628964 0 -3589.57019993 0 -864.06651313 0 315
0.01750000 0.01747870 68394.74691401 0 2547.22154150 0 -14474.96095866 0 -9692.54706137 0 -7080.75172152 0 297
0.01850000 0.01844180 62478.91448666 0 5118.07142417 0 -11082.84352722 0 -18592.42638897 0 -18629.40795387 0 388
0.01950000 0.01947590 64272.07749104 0 1702.69103829 0 -7426.97224628 0 -13922.78411996 0 -6297.56189780 0 399
0.02050000 0.02045430 64245.39318822 0 603.19478977 0 7770.46897913 0 -10739.65681947 0 -13533.03828634 0 462
0.02150000 0.02154770 65798.95108353 0 -1381.09536393 0 12564.87420420 0 1313.07807257 0 -22039.13038177 0 571
0.02250000 0.02255340 65858.74163755 0 -1721.38112258 0 21637.09426761 0 -3529.02672782 0 -19466.03281717 0 510
0.02350000 0.02348930 67492.90605753 0 3647.73312220 0 14431.33599888 0 2516.96087777 0 -13670.11366760 0 555
0.02450000 0.02439640 67982.41353777 0 1041.15616904 0 19892.09587619 0 2077.41172712 0 -11151.60266435 0 592
0.02550000 0.02547300 65818.99199145 0 1257.80502707 0 15777.61997358 0 3451.38758619 0 -14934.79460838 0 837
0.02650000 0.02652900 60825.81639123 0 1460.71645170 0 15403.15394821 0 1792.43223094 0 -10022.85665536 0 723
0.02750000 0.02749970 58314.39167587 0 5192.39994068 0 10132.43945409 0 1049.38290638 0 -18087.63910049 0 826
0.02850000 0.02848090 54969.77451790 0 2447.74777533 0 10707.51386052 0 3227.70448021 0 -11489.75146431 0 831
0.02950000 0.02946900 52262.92326949 0 1307.38689761 0 9480.74455991 0 -1037.72485558 0 -16641.48275593 0 996
0.03050000 0.03053250 55895.31014949 0 -733.60463149 0 7887.89098383 0 477.44418234 0 -11677.87026298 0 1041
0.03150000 0.03150510 54216.96715348 0 1757.32188894 0 14088.31537600 0 4.61236513 0 1012.13449846 0 1036
0.03250000 0.03246190 54312.74276316 0 4004.59415111 0 16259.70899618 0 -1021.96229397 0 -1173.71072008 0 1059
0.03350000 0.03345080 53784.48214606 0 441.55767037 0 22949.05403537 0 -495.12779231 0 3841.19985376 0 1302
0.03450000 0.03451200 51780.28063064 0 2085.29522239 0 22352.25572764 0 4337.12928239 0 1500.65432732 0 1339
0.03550000 0.03553350 48885.53203005 0 3815.03595021 0 24760.70782219 0 -502.49753171 0 5085.41913828 0 1365
0.03650000 0.03647120 47046.97249392 0 2149.14931962 0 23215.23272401 0 -19.52150516 0 4826.41531612 0 1308
0.03750000 0.03744890 44868.49258585 0 681.83819126 0 22482.13409776 0 4851.37233626 0 6149.15952826 0 1579
0.03850000 0.03847530 46018.68568801 0 -251.98396822 0 18418.70161257 0 4245.53901149 0 436.70577764 0 1662
0.03950000 0.03950240 46116.89720915 0 -2945.05017224 0 14407.75194702 0 3644.72144985 0 -4399.20073532 0 1683
0.04050000 0.04050350 46431.79412699 0 345.05571618 0 14107.35977469 0 2222.19344645 0 2048.57939330 0 1822
0.04150000 0.04152450 45811.96538365 0 3004.71893069 0 12460.13001142 0 -1383.06623775 0 -2329.60606952 0 1887
0.04250000 0.04250150 44702.51843682 0 584.18139359 0 14132.93684502 0 2250.22857289 0 3727.16598045 0 1920
0.04350000 0.04349210 44309.00801276 0 -615.13297039 0 12312.97881458 0 2014.96381515 0 977.80032643 0 2005
0.04450000 0.04448520 42952.98039222 0 271.56648190 0 12260.82816468 0 6079.13814610 0 3777.92151742 0 2151
0.04550000 0.04548030 44466.67791818 0 1376.04638381 0 9733.31536135 0 2420.55414558 0 -3065.08524560 0 2274
0.04650000 0.04648670 41102.46274528 0 1396.17587033 0 7843.24737016 0 -55.05724588 0 176.93796507 0 2311
0.04750000 0.04749250 40280.34262750 0 878.64212152 0 8424.98731613 0 1461.39186351 0 2753.03391523 0 2568
0.04850000 0.04851840 39499.85445103 0 1344.08058206 0 7888.14564730 0 -2377.11741532 0 -3277.59637584 0 2493
0.04950000 0.04949480 38563.35721787 0 1274.93391357 0 11557.51409220 0 -3175.03343105 0 -17.00033680 0 2644
0.05050000 0.05050630 37817.52541809 0 591.68067919 0 10735.77043346 0 -2247.57121494 0 -490.79519161 0 2829
0.05150000 0.05149060 38844.59426826 0 -644.08931426 0 15073.86300811 0 -1516.03378649 0 1668.04573393 0 2784
0.05250000 0.05249300 40087.79489890 0 -568.15641788 0 14978.41956817 0 884.58574548 0 -126.28761518 0 3055
0.05350000 0.05348950 39770.79423934 0 547.43013306 0 17755.24790944 0 601.15526754 0 622.45288433 0 3009
0.05450000 0.05448610 39650.54879181 0 1653.64063934 0 16087.75579175 0 893.57758047 0 2084.12155596 0 3336
0.05550000 0.05550870 38660.24006003 0 1253.59754364 0 18131.37478353 0 854.99938633 0 2185.41118341 0 3349
0.05650000 0.05647670 37203.12211390 0 752.98119992 0 15937.61506721 0 441.26093207 0 2758.89117506 0 3324
0.05750000 0.05747970 36946.02273161 0 599.85648384 0 16218.40922461 0 2037.38527290 0 1825.19524008 0 3639
0.05850000 0.05849280 36587.94374698 0 336.21889375 0 14960.48240196 0 -330.40924491 0 -698.36031436 0 3846
0.05950000 0.05951020 36789.01716568 0 -32.30118247 0 15789.68880763 0 499.45707131 0 -2143.69066349 0 3787
0.06050000 0.06049470 36535.46092734 0 -282.17487631 0 12164.05604576 0 -1275.53181911 0 -5722.19961093 0 3930
0.06150000 0.06148310 35500.08783354 0 1295.49522076 0 15445.56095227 0 532.87002592 0 -4704.38722430 0 4083
0.06250000 0.06249100 34920.45162929 0 1489.94738922 0 13627.48521705 0 57.39782463 0 -4958.22027076 0 4303
0.06350000 0.06350600 32989.21673442 0 2293.79817105 0 14239.78477952 0 1788.65656818 0 -4248.88285358 0 4470
0.06450000 0.06451750 31865.92938157 0 1503.04594948 0 11656.05778309 0 1961.26303978 0 -1876.68155049 0 4479
0.06550000 0.06550280 30871.63461285 0 196.45736649 0 12053.11135108 0 2036.61021017 0 -3867.30839568 0 4636
0.06650000 0.06648880 30674.76867758 0 -471.55149107 0 12880.10329179 0 1740.76876334 0 -3550.09736195 0 4653
0.06750000 0.06749660 31258.61236526 0 -112.77937891 0 11470.81778887 0 253.06019820 0 -3264.47567093 0 5220
0.06850000 0.06852730 29793.19017552 0 536.00903001 0 8735.25600220 0 -437.72332429 0 -3748.67950758 0 5029
0.06950000 0.06949320 30417.55857204 0 826.79596056 0 9937.13471661 0 -440.08615840 0 -2508.29124744 0 5040
0.07050000 0.07048030 29338.44979522 0 552.12701324 0 8517.38586674 0 1307.56405481 0 -3189.36101936 0 5475
0.07150000 0.07148790 28730.68988592 0 1019.90173432 0 8962.29402261 0 1829.42486816 0 -2848.61022307 0 5509
0.07250000 0.07249820 27568.20650321 0 435.87313881 0 7195.85961034 0 1230.23493827 0 -2964.09457093 0 5916
0.07350000 0.07351270 27492.80397120 0 456.06020142 0 8582.24754553 0 1173.31211638 0 -1901.25103926 0 5721
0.07450000 0.07449140 26776.31383218 0 942.70880738 0 7452.44966569 0 -507.52436718 0 -1279.06389073 0 6028
0.07550000 0.07549160 26104.44516219 0 526.23770335 0 9184.12805035 0 -39.10180437 0 -541.35142673 0 6183
0.07650000 0.07648840 25701.74470853 0 711.17431587 0 9595.67529153 0 -622.85148802 0 206.93732193 0 6330
0.07750000 0.07749960 25789.32679785 0 785.58144588 0 10164.72635326 0 -307.02892383 0 697.43466800 0 6583
0.07850000 0.07848650 24582.22194612 0 321.97434787 0 10206.79011525 0 695.16151972 0 -249.52480488 0 6549
0.07950000 0.07947320 24619.97857375 0 262.55139503 0 9987.22591409 0 1592.96429933 0 643.32975278 0 6828
0.08050000 0.08048110 24254.03823849 0 130.26700872 0 9107.50756260 0 1169.37036875 0 19.71172770 0 7147
0.08150000 0.08149960 23719.13422650 0 548.92711137 0 8928.88881863 0 14.39302576 0 184.06189886 0 7386
0.08250000 0.08250610 23637.64191584 0 741.39179753 0 9336.74897565 0 842.08241220 0 1581.75910662 0 7227
0.08350000 0.08350160 23068.08152717 0 195.05561017 0 8665.46713887 0 1075.10059524 0 1733.25065479 0 7798
0.08450000 0.08449610 23307.46518975 0 301.78285633 0 8490.11473072 0 977.14595204 0 3231.73480644 0 7371
0.08550000 0.08548940 22591.97155997 0 29.21731856 0 6863.72308275 0 1457.31724798 0 2107.80525875 0 8256
0.08650000 0.08650700 22718.08533965 0 253.20635288 0 6824.13952153 0 619.64937169 0 1032.05250358 0 8037
0.08750000 0.08749060 22520.66578813 0 96.98526117 0 6692.48957943 0 -497.01340923 0 2706.27548752 0 8155
0.08850000 0.08849210 21981.00067647 0 346.57151745 0 6384.47964763 0 317.64617609 0 -173.91743486 0 8718
0.08950000 0.08949900 21760.10779634 0 695.42946998 0 5116.84239612 0 -32.95090649 0 34.80607451 0 8571
0.09050000 0.09049190 20667.82295298 0 575.83175345 0 5102.95770079 0 471.39758576 0 -1026.57281003 0 8932
0.09150000 0.09150830 20645.45685685 0 859.23233611 0 5595.76473382 0 414.48140726 0 -279.08126875 0 9285
0.09250000 0.09250820 19680.17157916 0 663.36401730 0 5993.47156898 0 -54.27509686 0 -352.01467233 0 9204
0.09350000 0.09350330 19134.97030509 0 311.43017294 0 5803.10508838 0 992.18438360 0 1502.23766977 0 9349
0.09450000 0.09448040 19265.95590769 0 21.06376929 0 6601.13182736 0 688.21695759 0 1558.93904517 0 9564
0.09550000 0.09549270 19240.60028386 0 188.69566679 0 6254.46840961 0 182.94470128 0 1822.98077512 0 10155
0.09650000 0.09649430 18937.55075357 0 319.99240172 0 6139.43802707 0 -129.79643492 0 2424.05300022 0 9913
0.09750000 0.09749140 18658.63889139 0 395.60641514 0 6510.50484871 0 -393.92674347 0 1611.80939618 0 10476
0.09850000 0.09850240 18572.82837405 0 540.35270303 0 6691.00588791 0 -180.45232096 0 1591.03771482 0 10575
0.09950000 0.09950330 18007.80763855 0 374.01538175 0 6434.37154326 0 405.59475936 0 1670.20483727 0 10882
0.10050000 0.10051200 17476.33604725 0 240.38902967 0 5604.40114718 0 682.32426632 0 1330.20695906 0 10875
0.10150000 0.10150300 17709.85137768 0 51.10708328 0 5570.23195279 0 995.09308333 0 1545.22043472 0 11118
0.10250000 0.10250800 17536.79094076 0 148.47101796 0 5018.02189711 0 529.29255777 0 420.34420325 0 11575
0.10350000 0.10349800 17317.55890936 0 399.74303570 0 5477.08048409 0 -99.69255531 0 1097.32385838 0 11364
0.10450000 0.10450100 16791.29131073 0 628.44301206 0 5264.53613687 0 -651.56756244 0 1147.12606819 0 12093
0.10550000 0.10551000 16635.17153078 0 296.98743245 0 5602.26418849 0 -245.98719710 0 1954.92966998 0 12067
0.10650000 0.10649700 16374.86117430 0 -37.76360320 0 5671.77624370 0 539.81348081 0 1347.59050903 0 12054
0.10750000 0.10749900 16374.86117430 0 95.45672673 0 5604.02468814 0 1057.00177309 0 1128.98960013 0 12807
0.10850000 0.10850100 16167.14436070 0 138.29222975 0 4752.61827121 0 544.07632587 0 67.29604012 0 12736
0.10950000 0.10950300 16026.30438901 0 208.30364681 0 4539.06634243 0 10.79398872 0 -478.10852183 0 12933
0.11050000 0.11050200 15831.09930245 0 249.70971271 0 4508.96069125 0 -872.03747976 0 -831.75193314 0 13428
0.11150000 0.11150900 15637.00144838 0 478.43515541 0 4906.97755150 0 -1534.01524200 0 -1822.34965260 0 13453
0.11250000 0.11250000 15108.51938479 0 625.40808782 0 5261.56875382 0 -1253.89649641 0 -723.75469133 0 13668
0.11350000 0.11349100 15006.21110346 0 155.17198894 0 5744.31104359 0 -266.91056931 0 -1456.71934244 0 13791
0.11450000 0.11448600 14837.24742673 0 85.94637477 0 5603.20533610 0 401.32416368 0 -935.09658407 0 14205
0.11550000 0.11549300 14904.01354539 0 149.73215576 0 5591.52403342 0 1723.87239566 0 -1191.78075418 0 14776
0.11650000 0.11649800 14972.44051277 0 -25.59268231 0 5403.01770338 0 1218.81937139 0 -816.38243906 0 14553
0.11750000 0.11747300 14599.30316638 0 61.88244835 0 4636.66888571 0 1098.90609360 0 -200.49101442 0 14568
0.11850000 0.11849100 14675.81293087 0 92.85882715 0 4685.05494516 0 393.62446900 0 132.21020173 0 16015
0.11950000 0.11950300 14421.59235304 0 229.96997202 0 4647.51976403 0 151.74510441 0 585.89428224 0 15270
0.12050000 0.12050700 14305.77583544 0 467.84226226 0 5082.58462313 0 -738.80419522 0 796.86746657 0 15999
0.12150000 0.12150000 13989.66096186 0 367.30666014 0 5357.62117162 0 -593.56629611 0 1335.10092663 0 15670
0.12250000 0.12250700 13864.32224492 0 185.31860772 0 6018.58360167 0 21.43347421 0 1090.89637383 0 16887
0.12350000 0.12352200 13638.77898836 0 149.80523310 0 5564.12002949 0 449.77887155 0 1347.30262858 0 16407
0.12450000 0.12449800 13647.08323197 0 -72.76809377 0 5713.35282340 0 1306.94400462 0 1338.23439456 0 16306
0.12550000 0.12549900 13622.28122438 0 -5.66645046 0 5258.72316634 0 694.69205314 0 1780.64020501 0 17523
0.12650000 0.12650100 13557.72957069 0 193.99377422 0 4647.42011310 0 358.09227142 0 1235.50536489 0 17154
0.12750000 0.12750600 13158.90443072 0 486.15145858 0 4541.67941109 0 350.89526029 0 1529.63060137 0 18007
0.12850000 0.12850300 12878.99605930 0 326.30030517 0 4583.82067935 0 -473.64637493 0 1327.12885276 0 17496
0.12950000 0.12949900 12566.97794592 0 246.66039445 0 4473.80605995 0 138.87463404 0 471.70761085 0 18405
0.13050000 0.13049000 12332.35538301 0 261.57592321 0 4592.36851411 0 -376.84103904 0 824.48516637 0 18100
0.13150000 0.13148800 12187.86154412 0 224.63089699 0 4155.04490074 0 156.79962069 0 -103.03307571 0 19059
0.13250000 0.13249300 11952.57464173 0 15.79799305 0 4346.54075848 0 481.94729685 0 400.05084633 0 18957
0.13350000 0.13349100 12056.54377178 0 -13.33440078 0 3560.60499821 0 750.19761746 0 175.12321103 0 19468
0.13450000 0.13450700 12218.64260712 0 -341.92556996 0 3419.23355492 0 892.91545544 0 -13.23131744 0 19953
0.13550000 0.13551000 12320.50799545 0 30.75493231 0 3128.66253471 0 416.70694455 0 -64.10388888 0 19956
0.13650000 0.13649900 12279.54039362 0 169.69334294 0 3007.45379492 0 -206.61290281 0 -63.81157950 0 19723
0.13750000 0.13749600 12073.04153576 0 66.16644154 0 3227.54946766 0 -280.71000773 0 426.41848065 0 20946
0.13850000 0.13851100 12254.84910928 0 68.95589234 0 3305.72008088 0 -379.54047183 0 549.15963019 0 20955
0.13950000 0.13949800 12056.10087878 0 232.09142945 0 3634.31346452 0 -134.83877164 0 527.10355915 0 20506
0.14050000 0.14048300 12017.79063491 0 398.02018195 0 4015.37859548 0 125.38854241 0 312.29492151 0 21447
0.14150000 0.14148400 11534.37293333 0 273.07896147 0 3789.71354335 0 -136.22613394 0 85.36618495 0 21771
0.14250000 0.14249400 11311.15486498 0 529.87939099 0 3679.85393650 0 184.00432277 0 142.09668056 0 22470
0.14350000 0.14350900 10833.35083209 0 234.97244837 0 3456.56943421 0 0.13339162 0 306.96248988 0 22519
0.14450000 0.14449900 10884.58247902 0 32.97282969 0 3463.32355235 0 263.85350043 0 186.99163600 0 22218
0.14550000 0.14550500 10752.75537973 0 -9.66330505 0 3117.63449919 0 258.30183676 0 481.27852843 0 23559
0.14650000 0.14650700 10637.71392486 0 238.91198154 0 3357.94823705 0 221.91485571 0 134.57414308 0 23044
0.14750000 0.14750500 10425.72319389 0 284.31847839 0 3158.64639031 0 145.71400908 0 338.44000210 0 23649
0.14850000 0.14849900 10330.95516576 0 158.66862912 0 3254.94239926 0 -78.51020142 0 364.57733207 0 23640
0.14950000 0.14949500 10061.73158780 0 300.11979314 0 3562.14405136 0 -93.74837773 0 382.10482226 0 24457
0.15050000 0.15050000 9994.31220198 0 195.42099689 0 3518.68517644 0 199.89975228 0 671.19325818 0 24591
0.15150000 0.15149900 9950.65402522 0 29.61514719 0 3183.80271230 0 -63.40378578 0 139.35074401 0 25020
0.15250000 0.15250500 9646.79621522 0 218.82346262 0 3246.06239476 0 209.13407117 0 115.06581398 0 25297
0.15350000 0.15350100 9636.75361661 0 130.24486407 0 3202.84711099 0 101.08822185 0 26.30751160 0 25452
0.15450000 0.15450400 9359.38080758 0 94.35790921 0 2852.36374118 0 279.05026624 0 242.98548984 0 26061
0.15550000 0.15549900 9461.02474941 0 10.44039402 0 2765.18025556 0 461.82998988 0 25.50698251 0 26128
0.15650000 0.15649500 9322.78677405 0 -125.71628322 0 2358.93665796 0 456.21410674 0 2.80826267 0 26331
0.15750000 0.15749700 9488.49518729 0 -130.53495898 0 2259.78398921 0 372.70552572 0 -91.12080433 0 27345
0.15850000 0.15849900 9461.86624610 0 51.48741764 0 2175.88898406 0 -17.84028336 0 -262.10960927 0 26980
0.15950000 0.15949700 9319.62008915 0 415.93631074 0 2226.12412176 0 -98.30840398 0 -165.28323596 0 27777
0.16050000 0.16050000 9093.24640824 0 303.88106188 0 1895.92525102 0 -229.86367770 0 171.57453092 0 28224
0.16150000 0.16150500 8935.38827330 0 57.57442821 0 2047.06248480 0 109.58844562 0 83.99897428 0 28075
0.16250000 0.16249700 8921.54786727 0 -109.37176022 0 1868.05620945 0 219.81443569 0 -76.25377235 0 28590
0.16350000 0.16349900 8980.40834601 0 36.14947968 0 2289.25851788 0 -139.78699360 0 -802.05595798 0 29163
0.16450000 0.16449100 8932.09979283 0 260.70231678 0 2221.27444349 0 -324.55530678 0 -292.67365470 0 28996
0.16550000 0.16550500 8952.48394282 0 91.59868587 0 2521.23479515 0 -227.25614521 0 -188.08226000 0 30777
0.16650000 0.16650700 8688.33148962 0 148.27393058 0 2520.12756267 0 -194.89506146 0 -60.62684671 0 29211
0.16750000 0.16749900 8739.02059264 0 196.20713195 0 2798.06506027 0 -42.64328747 0 -430.62374961 0 30922
0.16850000 0.16850800 8455.25905219 0 288.83709415 0 2615.46027936 0 81.14076435 0 -169.79631556 0 30867
0.16950000 0.16949900 8272.00100411 0 204.08841275 0 2606.01558629 0 261.81397820 0 17.86774273 0 30852
0.17050000 0.17049200 8116.72272086 0 81.34737393 0 2494.63907094 0 300.07993277 0 -22.82781208 0 31257
0.17150000 0.17149500 8135.57889002 0 -46.66088053 0 2310.93812987 0 346.36557221 0 -46.40045945 0 32608
0.17250000 0.17250900 8082.59781577 0 -8.18300166 0 2218.93818296 0 217.76605560 0 -257.40608569 0 32361
0.17350000 0.17350400 8181.20794060 0 14.24786758 0 2115.62232007 0 135.97147047 0 156.14967522 0 32508
0.17450000 0.17449800 8037.02412681 0 118.60342176 0 2091.14140990 0 18.94973031 0 240.47982274 0 32791
0.17550000 0.17549800 8029.77175406 0 188.93150731 0 2183.62853911 0 80.12089251 0 531.65871358 0 33633
0.17650000 0.17650100 7931.65988384 0 108.45032135 0 2266.60454130 0 109.82185022 0 581.52292841 0 33984
0.17750000 0.17750300 7852.18273629 0 63.14159313 0 2156.36847541 0 15.61895356 0 685.96373949 0 34069
0.17850000 0.17849800 7920.85329481 0 -32.49804841 0 2313.28546274 0 97.19020990 0 702.79810214 0 34536
