### header ###
fiducial parameters:
Omega_m = 0.31
Omega_nu = 0
Omega_de = 0.69
Omega_k = 0
H_0 = 100
w_de = -1
zeff = 0
beta = 0
fgrowth = 0
b_1 = 2
gamma = 0.55
Lx = 3500 Ly = 3500 Lz = 3500
nx = 700 ny = 700 nz = 700
xoffset = -685.467585 yoffset = -31.7331281 zoffset = 572.489161
bins = 400 dk = 0.001
kx_ny = 0.628318531 ky_ny = 0.628318531 kz_ny = 0.628318531
############################
A(data) = 7.96642803 (not used)
A(ran) = 7.95748043 (used)
Ngal = 473127
weighted Ngal = 0
Nran = 23820508
weighted Nran = 0
SN(data) = 3495.14722
SN(ran) = 69.3125404
SN(data+ran) = 3564.45976
############################
13 columns: k_central k_mean P_0(k) sigma^{lin}_{P_0(k)} P^img_1(k) sigma^{lin}_{P_1(k)} P_2(k) sigma^{lin}_{P_2(k)} P^img_3(k) sigma^{lin}_{P_3(k)} P_4(k) sigma^{lin}_{P_4(k)} N_modes
### header ###
0.00050000 0 0 0 0 0 0 0 0 0 0 0 0
0.00150000 0.00179520 24114.96983877 0 -6556.84252808 0 31931.14537475 0 -43244.51470470 0 -44372.67388047 0 3
0.00250000 0.00253879 54045.01394905 0 -18543.92960627 0 8470.46135416 0 -27790.87095531 0 -21176.04266216 0 6
0.00350000 0.00331552 63257.85253765 0 -16279.97135060 0 7780.48943309 0 26480.57203627 0 89944.03764581 0 7
0.00450000 0.00420575 74963.73578242 0 -2846.63934925 0 34258.99094462 0 -28211.73002167 0 20160.04613680 0 24
0.00550000 0.00557378 92751.53632682 0 -2519.85075455 0 63629.66120506 0 4405.34587559 0 1575.02713313 0 45
0.00650000 0.00659388 85464.17502418 0 -2578.51193144 0 71585.12658726 0 21075.06305981 0 36160.10911598 0 40
0.00750000 0.00754703 82129.08006556 0 22792.38063918 0 69651.23433443 0 26658.28284961 0 -15822.79505884 0 57
0.00850000 0.00846663 90789.74181545 0 19276.25316977 0 78620.26033053 0 14244.98877218 0 -2259.26358995 0 75
0.00950000 0.00948925 66231.10392120 0 7914.61957594 0 71915.96765284 0 11294.43565451 0 -21823.66294080 0 112
0.01050000 0.01054430 58360.78471686 0 10867.29857998 0 58958.91170356 0 24072.00921847 0 7171.10189204 0 105
0.01150000 0.01145670 65313.54036348 0 -4710.01196530 0 55734.42926988 0 31482.82694284 0 -44799.73344872 0 144
0.01250000 0.01249090 63135.06045541 0 -7196.53502215 0 49787.92650277 0 8072.90953155 0 -30562.27385742 0 169
0.01350000 0.01339930 78396.04575295 0 3923.31221462 0 42318.75762661 0 3099.11049976 0 -34731.44704463 0 180
0.01450000 0.01448870 72337.71250518 0 -1097.05480089 0 29864.93884034 0 5755.35015143 0 -906.46244486 0 267
0.01550000 0.01550050 77569.05381225 0 -5440.54181219 0 31801.59917437 0 4152.21038559 0 7341.37210311 0 238
0.01650000 0.01653350 84549.60099416 0 -7665.74693099 0 24124.38131487 0 21775.71977434 0 6807.17671991 0 315
0.01750000 0.01747870 89420.98102137 0 -12908.44844332 0 14825.95365542 0 22842.09537762 0 22778.31878666 0 297
0.01850000 0.01844180 89652.72477983 0 2670.57831231 0 -1253.91864106 0 26812.52033434 0 9192.88625928 0 388
0.01950000 0.01947590 97743.71541781 0 -5384.83694603 0 1576.51082465 0 9308.24881157 0 10970.54800891 0 399
0.02050000 0.02045430 94890.48803529 0 3305.59828531 0 9333.12832543 0 -6222.14829346 0 10057.96699736 0 462
0.02150000 0.02154770 85290.89314077 0 10787.96537265 0 13512.99737842 0 -10607.80757553 0 20365.76993193 0 571
0.02250000 0.02255340 75724.62594396 0 14571.62235433 0 21765.20106576 0 -14064.62060089 0 17558.04980442 0 510
0.02350000 0.02348930 70180.27001427 0 4890.35799195 0 21971.47847713 0 9364.70659582 0 25904.58969921 0 555
0.02450000 0.02439640 69152.42610135 0 2854.64464009 0 29657.77564299 0 8321.01818608 0 19431.15499399 0 592
0.02550000 0.02547300 61816.45729276 0 5012.74039817 0 18662.51420508 0 11255.23962465 0 7747.95894277 0 837
0.02650000 0.02652900 59627.90156910 0 3634.03665640 0 21470.34505584 0 11329.31347769 0 13848.82099017 0 723
0.02750000 0.02749970 54190.39357392 0 1421.57578347 0 11064.05379201 0 7430.05035258 0 10605.40488104 0 826
0.02850000 0.02848090 50865.15298438 0 1955.15111648 0 14004.49787712 0 3056.03915622 0 10071.90705431 0 831
0.02950000 0.02946900 52858.06072849 0 1063.41043470 0 10523.74648551 0 -4995.29041426 0 2333.29315368 0 996
0.03050000 0.03053250 51640.32644493 0 3252.70578965 0 19906.48989845 0 -5343.38216191 0 8457.87212084 0 1041
0.03150000 0.03150510 51157.79452934 0 56.49908402 0 20251.06064681 0 -6873.25635442 0 15164.98824136 0 1036
0.03250000 0.03246190 51302.06692172 0 -2159.55730495 0 20758.17312350 0 8043.63430473 0 6295.54673469 0 1059
0.03350000 0.03345080 54739.58088492 0 924.11283785 0 27499.22591959 0 878.88017650 0 8969.32494887 0 1302
0.03450000 0.03451200 54578.92145180 0 2338.45285705 0 27766.29039422 0 1255.05909052 0 -2354.65166826 0 1339
0.03550000 0.03553350 51191.23295029 0 3822.42119087 0 28897.66054419 0 -709.23001563 0 3992.65818495 0 1365
0.03650000 0.03647120 50267.69033717 0 1854.14936948 0 27909.12338438 0 -1788.31332611 0 7232.80795826 0 1308
0.03750000 0.03744890 47318.57662172 0 205.51452819 0 19443.77744428 0 6464.79829186 0 -2796.00560785 0 1579
0.03850000 0.03847530 47187.48029587 0 -1407.74644977 0 20472.17497344 0 4133.88568802 0 -6718.56490438 0 1662
0.03950000 0.03950240 47157.14212586 0 -1244.30786312 0 12919.63149139 0 2631.68123522 0 -12050.45399313 0 1683
0.04050000 0.04050350 48490.13931078 0 979.08914504 0 12620.23582829 0 1101.90669363 0 -7893.21677207 0 1822
0.04150000 0.04152450 46638.40370811 0 1589.90833768 0 11485.54398088 0 -809.50431089 0 -9123.24133617 0 1887
0.04250000 0.04250150 45834.44220303 0 1678.08833254 0 12308.99277764 0 586.51211797 0 -3510.49165608 0 1920
0.04350000 0.04349210 44770.83468095 0 1217.87822378 0 11746.18650711 0 3872.58989462 0 -2662.27406869 0 2005
0.04450000 0.04448520 45022.95151707 0 67.58281334 0 15261.76036028 0 1708.26041767 0 -3157.94883385 0 2151
0.04550000 0.04548030 43549.88942320 0 1759.83530668 0 12615.25328212 0 2280.10170525 0 -771.92151875 0 2274
0.04650000 0.04648670 43966.20883638 0 1321.30480991 0 14587.23433233 0 -760.15385194 0 1477.95606144 0 2311
0.04750000 0.04749250 42082.69566148 0 885.56343176 0 13925.33075467 0 -3956.92779276 0 -878.54800676 0 2568
0.04850000 0.04851840 40460.82152204 0 2374.03930902 0 16996.01859662 0 -2790.75732589 0 -1212.65208646 0 2493
0.04950000 0.04949480 39513.25196406 0 3254.58808487 0 19772.18259840 0 -2963.28629121 0 -3248.60902947 0 2644
0.05050000 0.05050630 37019.43224516 0 1732.67489390 0 19265.40229145 0 -1704.58440583 0 -2271.69781072 0 2829
0.05150000 0.05149060 37546.91779952 0 10.88972004 0 20642.13515940 0 3063.28045665 0 -2844.52453521 0 2784
0.05250000 0.05249300 37263.24483767 0 -1724.73603700 0 17766.43095750 0 5368.68242412 0 -3821.12572886 0 3055
0.05350000 0.05348950 37404.19553261 0 590.68749166 0 17204.73191945 0 2384.40300505 0 -4661.54839957 0 3009
0.05450000 0.05448610 37944.41426051 0 1225.57348953 0 17425.29262984 0 1393.65138027 0 -5158.00929979 0 3336
0.05550000 0.05550870 35822.18176252 0 1530.37244713 0 17153.02416255 0 494.11910352 0 -1854.10508018 0 3349
0.05650000 0.05647670 34986.22123871 0 1392.58843709 0 15820.02697763 0 830.25052590 0 -4377.25538753 0 3324
0.05750000 0.05747970 34089.80582139 0 -456.92605722 0 15115.27350293 0 1296.36993442 0 -3179.87203699 0 3639
0.05850000 0.05849280 33843.00370119 0 -24.65219904 0 14511.49963057 0 1134.31538837 0 -6037.34011991 0 3846
0.05950000 0.05951020 33711.35375909 0 662.99863058 0 13356.65615198 0 1199.19921181 0 -4624.83257047 0 3787
0.06050000 0.06049470 32606.22501894 0 767.55902278 0 12179.88947026 0 172.13036163 0 -5342.88390729 0 3930
0.06150000 0.06148310 32078.40729484 0 1375.11630853 0 12424.47712550 0 -620.95922771 0 -5438.20555165 0 4083
0.06250000 0.06249100 31572.29132738 0 839.10395682 0 12561.77395325 0 2217.24411726 0 -4309.21595152 0 4303
0.06350000 0.06350600 30908.72690100 0 -277.43149235 0 10755.41273769 0 1544.15749153 0 -4338.76798646 0 4470
0.06450000 0.06451750 31142.24223142 0 -464.96788674 0 9762.16983983 0 3260.46748935 0 -3222.13510082 0 4479
0.06550000 0.06550280 31879.76978759 0 374.37633954 0 10049.95063419 0 506.97517987 0 -4152.97437600 0 4636
0.06650000 0.06648880 30727.91583671 0 355.77483384 0 8408.37882890 0 1580.16469184 0 -1996.38445410 0 4653
0.06750000 0.06749660 30609.33123790 0 731.83195228 0 9885.51553831 0 -584.32976275 0 -1247.18666757 0 5220
0.06850000 0.06852730 30042.53893043 0 108.03211964 0 7828.28865933 0 1787.90365009 0 -891.81708082 0 5029
0.06950000 0.06949320 30563.93470614 0 -54.39611737 0 9787.90192271 0 853.77035828 0 -306.71889873 0 5040
0.07050000 0.07048030 29615.59008543 0 839.88566296 0 8561.12154978 0 538.00647740 0 -2045.99954161 0 5475
0.07150000 0.07148790 29616.80804116 0 1326.30950073 0 9157.76484495 0 -537.81824788 0 -2437.24013908 0 5509
0.07250000 0.07249820 28032.69052935 0 843.49856254 0 8088.51043722 0 -949.52714501 0 -1360.94373276 0 5916
0.07350000 0.07351270 27852.21163481 0 -256.10065859 0 8778.81452804 0 260.32585774 0 -1304.47487618 0 5721
0.07450000 0.07449140 28314.25974949 0 -182.58595796 0 8246.29106588 0 1695.12864044 0 -2666.83586652 0 6028
0.07550000 0.07549160 28099.45664801 0 771.58381285 0 7670.36409044 0 1592.27781520 0 -2653.29441327 0 6183
0.07650000 0.07648840 26651.41800823 0 1000.18524552 0 5266.24127489 0 1326.38700700 0 -1321.55947338 0 6330
0.07750000 0.07749960 25846.90288690 0 608.83835373 0 6226.18969202 0 909.09655093 0 -2168.95770872 0 6583
0.07850000 0.07848650 25280.22130269 0 801.14692011 0 6043.19737974 0 9.04251302 0 -899.60535410 0 6549
0.07950000 0.07947320 24430.53109610 0 970.32318548 0 6479.57984550 0 526.95629723 0 -636.07848725 0 6828
0.08050000 0.08048110 23596.56359076 0 921.28275163 0 6127.69029043 0 -557.02430251 0 -90.54803296 0 7147
0.08150000 0.08149960 23452.73409137 0 148.13220482 0 6486.43361456 0 62.45167657 0 -51.59836233 0 7386
0.08250000 0.08250610 22836.22704547 0 10.45218605 0 7466.31221636 0 -873.04395409 0 -1282.25272027 0 7227
0.08350000 0.08350160 23525.03637243 0 353.92797006 0 7130.54396623 0 -440.91547553 0 -1772.85636066 0 7798
0.08450000 0.08449610 22514.02239324 0 462.68366613 0 7418.36904989 0 -640.11877858 0 -2179.37676638 0 7371
0.08550000 0.08548940 22441.60938893 0 805.87923174 0 7398.06240618 0 180.30727351 0 -878.65651554 0 8256
0.08650000 0.08650700 21752.24644572 0 440.10719582 0 6920.30266258 0 1148.90871248 0 -2093.96485273 0 8037
0.08750000 0.08749060 21436.35301864 0 -61.77227872 0 6316.21876512 0 1304.00983854 0 -2290.26609944 0 8155
0.08850000 0.08849210 21269.71453012 0 271.52994323 0 5654.03837934 0 1282.92813209 0 -2276.15995762 0 8718
0.08950000 0.08949900 21227.75041906 0 584.13488983 0 5830.26550116 0 -40.13629168 0 -2889.07957028 0 8571
0.09050000 0.09049190 20117.19623975 0 782.14127456 0 5221.66409517 0 -184.52361480 0 -1627.07813210 0 8932
0.09150000 0.09150830 19548.18946732 0 1211.40091376 0 6087.86313806 0 -767.84025983 0 -1144.04796189 0 9285
0.09250000 0.09250820 18869.12378619 0 147.08476289 0 5625.08424994 0 323.19673253 0 -258.47124333 0 9204
0.09350000 0.09350330 18841.66442064 0 -119.80809070 0 5703.58703291 0 1305.93642306 0 -610.60549677 0 9349
0.09450000 0.09448040 18866.02353524 0 -30.73123753 0 5262.68705863 0 1099.20283191 0 74.35852251 0 9564
0.09550000 0.09549270 19057.79620110 0 8.18935717 0 4833.49053168 0 1080.65115167 0 -165.99961538 0 10155
0.09650000 0.09649430 18656.31370318 0 153.75694583 0 4485.43200101 0 556.66998812 0 1595.86524844 0 9913
0.09750000 0.09749140 18995.90190537 0 172.33519964 0 4439.28255116 0 373.30453849 0 803.76884663 0 10476
0.09850000 0.09850240 18398.77142790 0 231.31747395 0 3511.59888856 0 503.37445984 0 961.60151522 0 10575
0.09950000 0.09950330 18289.59830518 0 566.66165403 0 4194.14127968 0 -585.75587818 0 661.53376201 0 10882
0.10050000 0.10051200 17697.00748089 0 661.94454526 0 3775.93957128 0 -78.28986216 0 -150.67330336 0 10875
0.10150000 0.10150300 17098.65904769 0 580.83201534 0 4226.94857812 0 -246.83422995 0 397.45770785 0 11118
0.10250000 0.10250800 16387.81579433 0 631.23877407 0 3565.96400342 0 289.47707452 0 -68.56481782 0 11575
0.10350000 0.10349800 16004.93480211 0 158.45825494 0 3904.74392589 0 844.15293694 0 502.31040942 0 11364
0.10450000 0.10450100 16044.79517145 0 -98.46563100 0 3381.94196493 0 863.11982936 0 144.80386398 0 12093
0.10550000 0.10551000 15732.44488832 0 -59.90947079 0 3271.00834257 0 392.01123127 0 -199.88646549 0 12067
0.10650000 0.10649700 15925.65695640 0 185.71167525 0 3615.23584886 0 -449.27729524 0 -790.64482002 0 12054
0.10750000 0.10749900 15758.79702139 0 195.87164051 0 3764.64579996 0 -908.23733853 0 301.62341485 0 12807
0.10850000 0.10850100 15697.67778839 0 505.83915934 0 4291.37843624 0 -709.00967637 0 246.40130205 0 12736
0.10950000 0.10950300 15606.55255513 0 185.64081237 0 4268.69124268 0 -38.56147492 0 681.40083443 0 12933
0.11050000 0.11050200 15414.44771953 0 202.74866145 0 4676.70641225 0 -129.75878901 0 426.33654544 0 13428
0.11150000 0.11150900 15393.18885587 0 225.76581028 0 4786.15634308 0 224.52017374 0 386.87588702 0 13453
0.11250000 0.11250000 15005.43604073 0 240.03028635 0 4705.69375863 0 250.95977818 0 112.22465543 0 13668
0.11350000 0.11349100 14810.12023092 0 217.36523744 0 4865.30132089 0 508.39575914 0 123.23829693 0 13791
0.11450000 0.11448600 14523.67918787 0 347.54698927 0 4356.48370617 0 1036.98079536 0 968.98343418 0 14205
0.11550000 0.11549300 14401.32999862 0 205.43591469 0 4572.09508736 0 539.83008930 0 709.50128759 0 14776
0.11650000 0.11649800 14180.21567199 0 45.93719338 0 4216.35236327 0 591.36179624 0 1295.17412334 0 14553
0.11750000 0.11747300 14163.16429177 0 143.29027718 0 4001.88143153 0 450.96471754 0 1738.46571978 0 14568
0.11850000 0.11849100 14106.25254220 0 28.13544170 0 3974.64351247 0 138.44059890 0 1599.04300566 0 16015
0.11950000 0.11950300 14099.38770082 0 -172.79913005 0 3765.29906713 0 234.63917139 0 1728.51169976 0 15270
0.12050000 0.12050700 14169.58624017 0 205.36283734 0 3638.17770589 0 211.90325961 0 1162.48338271 0 15999
0.12150000 0.12150000 13925.66292441 0 426.85583748 0 3458.99427335 0 -178.78039992 0 1352.84986332 0 15670
0.12250000 0.12250700 13598.25427952 0 335.92990607 0 3142.51401305 0 69.28462966 0 795.89642368 0 16887
0.12350000 0.12352200 13314.58131767 0 343.12913166 0 3239.05361315 0 -241.46083072 0 720.45181683 0 16407
0.12450000 0.12449800 13123.14082156 0 150.14736794 0 3039.25351180 0 16.82594769 0 215.46965544 0 16306
0.12550000 0.12549900 13020.38964724 0 -65.43345364 0 3423.26388116 0 -50.51515680 0 304.76795510 0 17523
0.12650000 0.12650100 12964.69585340 0 269.86798727 0 3177.44719786 0 199.68384194 0 738.49638459 0 17154
0.12750000 0.12750600 12910.88435478 0 216.94670357 0 3610.70726801 0 32.18414800 0 614.79083556 0 18007
0.12850000 0.12850300 12803.15063430 0 149.66793627 0 3650.21332296 0 174.90951516 0 864.23370523 0 17496
0.12950000 0.12949900 12562.43829274 0 114.64728010 0 3854.66380074 0 287.88930314 0 1017.26873548 0 18405
0.13050000 0.13049000 12502.31556897 0 152.89441172 0 3838.98538880 0 11.45099833 0 1486.72534270 0 18100
0.13150000 0.13148800 12449.72202609 0 81.14884715 0 3741.47142412 0 411.70557543 0 675.07078633 0 19059
0.13250000 0.13249300 12390.48508831 0 0.61587592 0 3658.40684333 0 -306.72886382 0 1123.80775212 0 18957
0.13350000 0.13349100 12507.74100814 0 195.99011438 0 3625.40024304 0 -186.19664308 0 439.50043242 0 19468
0.13450000 0.13450700 12188.96877661 0 190.61560792 0 3633.72663131 0 -120.95407632 0 926.27083396 0 19953
0.13550000 0.13551000 12188.30443712 0 182.97681102 0 3592.54865531 0 39.30033116 0 513.95517343 0 19956
0.13650000 0.13649900 12174.79620084 0 -104.09845480 0 3574.10216216 0 267.32135256 0 853.41715112 0 19723
0.13750000 0.13749600 12205.79871033 0 117.84164581 0 3624.07156407 0 251.58315006 0 203.59569430 0 20946
0.13850000 0.13851100 12015.90833969 0 204.58002398 0 3502.57494383 0 -113.60648157 0 971.11264224 0 20955
0.13950000 0.13949800 11870.19654508 0 223.37086643 0 3666.24604930 0 163.57256178 0 645.75016298 0 20506
0.14050000 0.14048300 11609.00040261 0 175.80637347 0 3254.84274834 0 465.33216622 0 1174.40827654 0 21447
0.14150000 0.14148400 11357.21573623 0 193.10023760 0 3456.69122978 0 604.27987760 0 937.68640085 0 21771
0.14250000 0.14249400 11261.88301954 0 286.50969147 0 2732.94871801 0 536.04556868 0 608.49068273 0 22470
0.14350000 0.14350900 10935.92484921 0 284.33176518 0 2900.59478809 0 258.26419086 0 718.34143172 0 22519
0.14450000 0.14449900 10589.15070821 0 298.84536855 0 2258.92034788 0 -79.67600650 0 705.82527575 0 22218
0.14550000 0.14550500 10541.80544729 0 75.65431668 0 2503.78481124 0 -217.87456439 0 632.17549275 0 23559
0.14650000 0.14650700 10371.61274250 0 43.08939143 0 2563.74145013 0 115.45223812 0 662.73400202 0 23044
0.14750000 0.14750500 10322.10837823 0 95.89984117 0 2586.82724738 0 386.82273986 0 353.44300223 0 23649
0.14850000 0.14849900 10305.52203566 0 96.75484609 0 2459.51765662 0 267.72327795 0 268.29571715 0 23640
0.14950000 0.14949500 10175.97583528 0 215.66231389 0 2579.86275507 0 64.48001575 0 375.26876892 0 24457
0.15050000 0.15050000 10050.23851464 0 315.00099770 0 2462.03107435 0 -278.78010152 0 403.74900281 0 24591
0.15150000 0.15149900 9776.68565767 0 261.13856638 0 2701.25972438 0 -427.48031660 0 157.98878837 0 25020
0.15250000 0.15250500 9674.65418446 0 189.57923831 0 2943.10144307 0 -362.73489722 0 67.60628666 0 25297
0.15350000 0.15350100 9561.43966319 0 70.63888571 0 2998.83952621 0 -250.24118430 0 240.44439130 0 25452
0.15450000 0.15450400 9551.81781293 0 79.43418693 0 2844.05949757 0 262.24801333 0 236.39081318 0 26061
0.15550000 0.15549900 9581.98989806 0 48.09640744 0 2689.61163867 0 383.10465319 0 302.91112623 0 26128
0.15650000 0.15649500 9458.42275308 0 78.38608066 0 2453.99256653 0 668.13065314 0 138.76501802 0 26331
0.15750000 0.15749700 9430.91909823 0 192.21777332 0 2609.06047562 0 256.54687328 0 589.64115696 0 27345
0.15850000 0.15849900 9189.73064671 0 167.61396034 0 2371.63661453 0 283.76264768 0 768.12703304 0 26980
0.15950000 0.15949700 9017.79958692 0 113.90986327 0 2416.47953005 0 256.55573114 0 1397.10594562 0 27777
0.16050000 0.16050000 9011.73195292 0 -7.84307021 0 2306.47598297 0 476.10553827 0 1447.85041026 0 28224
0.16150000 0.16150500 9076.10644942 0 -22.95536526 0 2042.06886630 0 365.69452965 0 1334.02691112 0 28075
0.16250000 0.16249700 8983.98470693 0 132.94540410 0 2043.61899178 0 163.37215270 0 1265.38956957 0 28590
0.16350000 0.16349900 8823.09275499 0 166.40043354 0 1827.58686224 0 -49.64631147 0 1279.96074904 0 29163
0.16450000 0.16449100 8660.56209897 0 159.30750226 0 1895.41592408 0 -8.96516175 0 1150.63599515 0 28996
0.16550000 0.16550500 8564.48753652 0 81.94162561 0 1796.38505090 0 -31.36324583 0 673.84729444 0 30777
0.16650000 0.16650700 8522.65629336 0 69.10116124 0 1788.26903681 0 -149.78641015 0 1132.23379131 0 29211
0.16750000 0.16749900 8510.89748440 0 130.89813124 0 1964.56259257 0 57.20870932 0 534.20866999 0 30922
0.16850000 0.16850800 8489.87113957 0 70.88557711 0 1811.04480896 0 -92.32093361 0 992.24860309 0 30867
0.16950000 0.16949900 8325.42497136 0 232.07924990 0 1980.13028127 0 -170.10523342 0 796.37031919 0 30852
0.17050000 0.17049200 8315.55952995 0 152.62867593 0 2208.36411275 0 -246.00602005 0 869.60046107 0 31257
0.17150000 0.17149500 8062.34653367 0 243.22797376 0 2286.36864110 0 20.64656409 0 915.68015527 0 32608
0.17250000 0.17250900 8100.92251334 0 53.05846981 0 2293.00096367 0 131.06753781 0 683.90539431 0 32361
0.17350000 0.17350400 7999.20106523 0 -53.42286002 0 2346.66852206 0 44.96493254 0 596.52371407 0 32508
0.17450000 0.17449800 7991.08505114 0 41.30785437 0 2306.76386342 0 20.77932126 0 224.93981485 0 32791
0.17550000 0.17549800 7907.00181647 0 204.61434818 0 2340.18013972 0 -69.72619397 0 589.09307688 0 33633
0.17650000 0.17650100 7868.58084935 0 165.86342578 0 2385.90884122 0 49.99475753 0 351.48209351 0 33984
0.17750000 0.17750300 7631.71060450 0 146.08050303 0 2230.85200446 0 -8.40179080 0 544.81374270 0 34069
0.17850000 0.17849800 7563.32792642 0 35.35858352 0 2095.07208521 0 172.30530436 0 376.78899911 0 34536
