### header ###
fiducial parameters:
Omega_m = 0.31
Omega_nu = 0
Omega_de = 0.69
Omega_k = 0
H_0 = 100
w_de = -1
zeff = 0
beta = 0
fgrowth = 0
b_1 = 2
gamma = 0.55
Lx = 3500 Ly = 3500 Lz = 3500
nx = 700 ny = 700 nz = 700
xoffset = -685.467585 yoffset = -31.7331281 zoffset = 572.489161
bins = 400 dk = 0.001
kx_ny = 0.628318531 ky_ny = 0.628318531 kz_ny = 0.628318531
############################
A(data) = 8.01048017 (not used)
A(ran) = 8.00376065 (used)
Ngal = 475678
weighted Ngal = 0
Nran = 23820508
weighted Nran = 0
SN(data) = 3490.3513
SN(ran) = 69.715658
SN(data+ran) = 3560.06696
############################
13 columns: k_central k_mean P_0(k) sigma^{lin}_{P_0(k)} P^img_1(k) sigma^{lin}_{P_1(k)} P_2(k) sigma^{lin}_{P_2(k)} P^img_3(k) sigma^{lin}_{P_3(k)} P_4(k) sigma^{lin}_{P_4(k)} N_modes
### header ###
0.00050000 0 0 0 0 0 0 0 0 0 0 0 0
0.00150000 0.00179520 49772.75741777 0 -28295.54752055 0 41479.36468211 0 -21175.71049241 0 -25072.72593558 0 3
0.00250000 0.00253879 69284.96182943 0 902.28485670 0 28952.80072178 0 -33616.46393540 0 -15883.13922910 0 6
0.00350000 0.00331552 62454.22320231 0 14244.43515594 0 5669.68357431 0 6948.89140526 0 20851.84499147 0 7
0.00450000 0.00420575 47485.32583349 0 4268.32585596 0 7901.19991826 0 -6839.79578882 0 27659.55318296 0 24
0.00550000 0.00557378 56506.50247948 0 -1207.04949010 0 37759.61715928 0 -7135.46007845 0 -5546.18286328 0 45
0.00650000 0.00659388 73984.05648246 0 -2863.23676415 0 50349.95771057 0 12369.66911765 0 38755.35133023 0 40
0.00750000 0.00754703 62963.55014397 0 6169.37759338 0 51889.34303010 0 -1915.96615894 0 2932.00697360 0 57
0.00850000 0.00846663 75354.58884852 0 -11784.49675098 0 56065.04888896 0 19669.76359383 0 38304.37554036 0 75
0.00950000 0.00948925 73795.27334431 0 1397.47133234 0 62130.57914786 0 14957.93576725 0 -1104.90618642 0 112
0.01050000 0.01054430 82279.66368309 0 3580.33588103 0 54219.62451144 0 8885.07562932 0 26396.31164440 0 105
0.01150000 0.01145670 82124.42968913 0 -920.14783833 0 50196.71673508 0 13715.17802961 0 4597.59465142 0 144
0.01250000 0.01249090 78083.69546982 0 1535.58751212 0 38921.43620251 0 22345.05871651 0 11116.17122493 0 169
0.01350000 0.01339930 83847.06198442 0 7502.16440412 0 26985.80221775 0 15470.80585285 0 -32259.77197537 0 180
0.01450000 0.01448870 71982.84449474 0 4130.79650939 0 20588.21293754 0 9890.30985496 0 -17873.83250824 0 267
0.01550000 0.01550050 67627.98842032 0 6698.40220089 0 19449.20288344 0 2900.36226927 0 -6717.02585123 0 238
0.01650000 0.01653350 61237.70687449 0 226.43457870 0 681.94005665 0 -1753.49086455 0 -8386.90959108 0 315
0.01750000 0.01747870 58170.23000673 0 -3588.46296745 0 4268.10440947 0 3515.78422734 0 4046.07107988 0 297
0.01850000 0.01844180 71001.50434607 0 -3776.17209010 0 3574.50076585 0 2672.73741565 0 -7027.54920077 0 388
0.01950000 0.01947590 73806.45639237 0 -2117.23887950 0 -2813.27843457 0 7887.51452479 0 15311.91799171 0 399
0.02050000 0.02045430 75439.84574962 0 -1660.62727630 0 7714.46516019 0 91.52151176 0 18588.21890554 0 462
0.02150000 0.02154770 73758.51322591 0 6528.53059352 0 18686.43042668 0 1634.05369674 0 23210.13945459 0 571
0.02250000 0.02255340 73184.52390731 0 5688.14113978 0 16413.17141817 0 9746.89003158 0 26181.39781967 0 510
0.02350000 0.02348930 65547.83075664 0 3637.54658337 0 15390.08860493 0 2246.97330940 0 37190.27821711 0 555
0.02450000 0.02439640 67182.10589987 0 1527.40506408 0 11999.85346870 0 2673.70070791 0 20710.00851054 0 592
0.02550000 0.02547300 66955.12324109 0 -1287.30170039 0 22992.12537891 0 -6159.65609219 0 13221.46306595 0 837
0.02650000 0.02652900 65910.33867120 0 5013.02827862 0 21427.60588204 0 -9554.09871184 0 11325.99178024 0 723
0.02750000 0.02749970 63958.06635918 0 4278.57882875 0 30527.61748074 0 -5567.17599114 0 3839.72723456 0 826
0.02850000 0.02848090 59874.48224282 0 1999.42934343 0 31306.77697823 0 5891.91620575 0 6971.34607999 0 831
0.02950000 0.02946900 58967.88028666 0 3361.25886217 0 31921.84462190 0 8472.70903610 0 6778.31116910 0 996
0.03050000 0.03053250 56550.68105551 0 312.91497170 0 28816.83257301 0 14331.02073602 0 11069.95534114 0 1041
0.03150000 0.03150510 59668.75844769 0 -2963.72918421 0 31235.24975990 0 13367.61775355 0 10661.86266529 0 1036
0.03250000 0.03246190 59307.02559586 0 -2052.35505606 0 25583.93517246 0 6143.37977470 0 15949.01956177 0 1059
0.03350000 0.03345080 56891.70865992 0 3426.24233653 0 26175.19731778 0 4495.37494870 0 12605.95252928 0 1302
0.03450000 0.03451200 57926.19596773 0 1248.24961075 0 20791.05792821 0 -2904.52546340 0 11173.30442099 0 1339
0.03550000 0.03553350 56354.14728998 0 98.26333962 0 24622.63593171 0 -60.00269976 0 10835.00060848 0 1365
0.03650000 0.03647120 56203.01005620 0 836.96035474 0 21129.42817467 0 -1276.42867742 0 7307.30255964 0 1308
0.03750000 0.03744890 55394.17672820 0 1293.65721484 0 24753.06791807 0 2104.87109267 0 7967.37920370 0 1579
0.03850000 0.03847530 52649.67957540 0 2631.98018799 0 22862.57917853 0 4112.95899411 0 7781.88454602 0 1662
0.03950000 0.03950240 50141.57655748 0 2840.16203923 0 24890.36474582 0 8761.81850944 0 9837.77167369 0 1683
0.04050000 0.04050350 47978.70862741 0 2454.72333997 0 20320.04123043 0 2292.07088838 0 12962.81355818 0 1822
0.04150000 0.04152450 47836.98286973 0 256.65538206 0 21020.03360546 0 6465.46263135 0 10206.01505251 0 1887
0.04250000 0.04250150 48318.40755284 0 -1122.40156687 0 21575.19997187 0 -2042.82178439 0 10799.94562811 0 1920
0.04350000 0.04349210 48533.76427057 0 1773.38783225 0 22221.15940179 0 -3302.19908159 0 12530.77144376 0 2005
0.04450000 0.04448520 45772.32646079 0 2867.87606825 0 20379.72106120 0 -1437.56422050 0 8433.97804388 0 2151
0.04550000 0.04548030 44439.32927588 0 1782.19033048 0 19318.77089708 0 838.70203143 0 6000.83466499 0 2274
0.04650000 0.04648670 44355.95466999 0 -759.55041023 0 18853.06891521 0 4221.79994708 0 1706.59956895 0 2311
0.04750000 0.04749250 42842.14642079 0 379.99997331 0 16337.32599316 0 4808.45600527 0 1420.19174286 0 2568
0.04850000 0.04851840 43420.45394607 0 1895.99168497 0 13702.44485607 0 1057.05602748 0 -1173.48927358 0 2493
0.04950000 0.04949480 40732.20420335 0 1169.78004477 0 13709.19897421 0 -467.45805259 0 634.84945920 0 2644
0.05050000 0.05050630 40459.93573606 0 2068.90818166 0 14272.78030748 0 -2338.87360539 0 -1101.45937170 0 2829
0.05150000 0.05149060 39560.19862129 0 1104.67588206 0 15859.66590048 0 -520.10252817 0 2380.47232974 0 2784
0.05250000 0.05249300 38053.80882972 0 551.29105272 0 13551.41834554 0 2399.88211514 0 -853.28428322 0 3055
0.05350000 0.05348950 37743.34084180 0 536.49731953 0 14964.68988539 0 140.03058475 0 -815.14676761 0 3009
0.05450000 0.05448610 37020.76092414 0 1042.98088817 0 14160.28548732 0 3163.59571951 0 -2400.48002068 0 3336
0.05550000 0.05550870 36172.62084303 0 1062.28770096 0 15000.34277131 0 248.96565248 0 1553.00427906 0 3349
0.05650000 0.05647670 35428.22844547 0 1132.20057433 0 14735.04986865 0 554.13885466 0 -1208.30066281 0 3324
0.05750000 0.05747970 34879.37330421 0 568.85729605 0 14176.22963506 0 456.88066069 0 793.76721562 0 3639
0.05850000 0.05849280 34180.93105465 0 427.87559859 0 13663.35954946 0 1185.96778365 0 2322.80766208 0 3846
0.05950000 0.05951020 34682.17519919 0 296.65415547 0 14687.99248818 0 842.44004829 0 -1586.68629116 0 3787
0.06050000 0.06049470 33315.62887007 0 1202.62056018 0 13804.08879790 0 1388.46953226 0 626.75891145 0 3930
0.06150000 0.06148310 33590.22252558 0 1349.62781679 0 14312.97284657 0 -259.05254039 0 -219.26524838 0 4083
0.06250000 0.06249100 30842.62512183 0 523.30243004 0 13143.18172948 0 1568.97057145 0 1895.02839271 0 4303
0.06350000 0.06350600 31114.56141937 0 268.09530807 0 12304.78529421 0 1288.40893287 0 212.01951902 0 4470
0.06450000 0.06451750 30827.45603683 0 -64.75294856 0 13471.91905334 0 1295.09661706 0 1016.41173754 0 4479
0.06550000 0.06550280 30613.87089108 0 1249.08003512 0 14003.16919814 0 -1163.56847054 0 308.18819623 0 4636
0.06650000 0.06648880 29273.12307879 0 1448.11614606 0 13694.14061245 0 -495.99143365 0 2083.37971020 0 4653
0.06750000 0.06749660 29209.45721108 0 50.97344032 0 14345.74692803 0 397.48981759 0 3124.61006382 0 5220
0.06850000 0.06852730 29480.61844589 0 -120.24434030 0 13778.17955783 0 1697.45382865 0 1850.69480414 0 5029
0.06950000 0.06949320 29575.95116258 0 -494.99603164 0 14237.57031455 0 2966.23152962 0 1918.49064900 0 5040
0.07050000 0.07048030 29679.80956937 0 1.98542285 0 11011.51561074 0 1435.09509207 0 1292.50569306 0 5475
0.07150000 0.07148790 29688.77815248 0 50.73627112 0 11182.82662034 0 1703.37752243 0 1653.41919284 0 5509
0.07250000 0.07249820 29003.95486244 0 22.04167702 0 9800.45793905 0 1013.04464356 0 1306.40146070 0 5916
0.07350000 0.07351270 28879.39120823 0 297.38160721 0 9878.82785412 0 2099.81104023 0 1256.90816876 0 5721
0.07450000 0.07449140 28835.65552520 0 258.99939323 0 9208.12177823 0 -46.93093453 0 1599.95093629 0 6028
0.07550000 0.07549160 28743.42305946 0 -125.76943038 0 7660.43221508 0 729.15023521 0 764.85958998 0 6183
0.07650000 0.07648840 28625.39207689 0 466.06183243 0 7674.97017757 0 835.30172048 0 680.12198092 0 6330
0.07750000 0.07749960 27734.18065224 0 1437.05489356 0 6928.40760434 0 -31.12862327 0 830.78531919 0 6583
0.07850000 0.07848650 25944.22862206 0 1559.62552930 0 6632.26720475 0 -343.23874768 0 -133.03841163 0 6549
0.07950000 0.07947320 24890.69691557 0 1644.79385181 0 7017.84984423 0 -1133.23030054 0 -320.36886077 0 6828
0.08050000 0.08048110 23740.39309016 0 916.93132797 0 6649.21893404 0 -294.73642881 0 1088.26337499 0 7147
0.08150000 0.08149960 23187.99480495 0 390.49653724 0 7049.89315225 0 663.36512453 0 -590.21802509 0 7386
0.08250000 0.08250610 23034.31093647 0 -50.79318287 0 7430.95828321 0 503.75534781 0 -134.49110064 0 7227
0.08350000 0.08350160 23248.33897522 0 111.93898945 0 8247.78582973 0 229.67544818 0 1490.21312502 0 7798
0.08450000 0.08449610 22699.81600370 0 713.16069094 0 8103.64630525 0 1107.39856674 0 1496.09252950 0 7371
0.08550000 0.08548940 22387.13355082 0 783.84419812 0 8932.02228655 0 468.25747444 0 3390.64481224 0 8256
0.08650000 0.08650700 21734.30927951 0 677.45687233 0 8868.53357604 0 383.29398994 0 2695.30281363 0 8037
0.08750000 0.08749060 21167.18480230 0 322.30541038 0 9809.39330518 0 -21.57818950 0 3573.79213706 0 8155
0.08850000 0.08849210 20713.44093123 0 793.45829776 0 8968.30629498 0 -542.05894829 0 2316.08676091 0 8718
0.08950000 0.08949900 20759.94469547 0 528.25840263 0 9305.86826173 0 257.53452465 0 2429.63345193 0 8571
0.09050000 0.09049190 19585.06030897 0 312.75331576 0 7936.33240491 0 597.21573437 0 2191.11343069 0 8932
0.09150000 0.09150830 19616.72715795 0 -108.11837305 0 7289.27681483 0 1912.27907478 0 1219.29548135 0 9285
0.09250000 0.09250820 19890.54575071 0 -578.39721111 0 6791.71975446 0 1543.30492252 0 -1656.86268586 0 9204
0.09350000 0.09350330 19507.55403524 0 485.70635112 0 5494.88478240 0 240.67691012 0 -749.26532771 0 9349
0.09450000 0.09448040 19286.21826211 0 435.00174685 0 5897.98383975 0 -393.05424427 0 -455.66049049 0 9564
0.09550000 0.09549270 19210.15139061 0 319.52404238 0 6330.07024347 0 -517.37652180 0 527.41469148 0 10155
0.09650000 0.09649430 19087.80220136 0 345.24173124 0 6205.90519295 0 -180.66712407 0 39.72517626 0 9913
0.09750000 0.09749140 18686.20898019 0 702.70398738 0 7422.46581008 0 -151.40186234 0 420.00539011 0 10476
0.09850000 0.09850240 17749.93319352 0 1112.65792103 0 7179.67187145 0 -316.82793129 0 754.77159484 0 10575
0.09950000 0.09950330 17086.92238338 0 630.38620506 0 7373.13860301 0 644.53995788 0 710.55426568 0 10882
0.10050000 0.10051200 16714.44937648 0 -110.06677005 0 6663.84547513 0 1418.64161739 0 3.42947546 0 10875
0.10150000 0.10150300 16646.13313235 0 20.86823203 0 5807.45651203 0 537.85257209 0 -703.28417720 0 11118
0.10250000 0.10250800 16735.15462389 0 67.94609631 0 5672.23020902 0 -205.87327152 0 -2210.89967514 0 11575
0.10350000 0.10349800 16143.67103208 0 567.69913087 0 5480.13644574 0 -626.66701116 0 -1042.32872824 0 11364
0.10450000 0.10450100 16079.11937839 0 135.92607394 0 5259.87468812 0 -627.30699153 0 -1464.17101704 0 12093
0.10550000 0.10551000 16275.87459042 0 -350.59520029 0 5769.55594418 0 732.27373804 0 -1367.11101768 0 12067
0.10650000 0.10649700 16504.62882117 0 -117.01232868 0 5426.02599435 0 259.23523375 0 -2162.59112195 0 12054
0.10750000 0.10749900 16760.06735474 0 151.28006676 0 6285.60378700 0 211.11380285 0 -983.48264353 0 12807
0.10850000 0.10850100 16542.05327906 0 393.14060841 0 6424.02999188 0 -324.77343158 0 -388.25660593 0 12736
0.10950000 0.10950300 16263.25214012 0 471.97223942 0 6524.64420751 0 -29.59488484 0 176.05660801 0 12933
0.11050000 0.11050200 15935.17915575 0 429.48108569 0 7007.23148473 0 147.56751625 0 355.35851443 0 13428
0.11150000 0.11150900 15577.87523385 0 193.82326042 0 6468.28607418 0 995.58912349 0 -208.67124800 0 13453
0.11250000 0.11250000 15374.47662693 0 12.47009510 0 5981.66847073 0 642.54583218 0 222.30460155 0 13668
0.11350000 0.11349100 15358.53247919 0 138.08296281 0 5660.03957939 0 590.28445903 0 -400.60667703 0 13791
0.11450000 0.11448600 14772.14215680 0 442.35930669 0 5610.31376863 0 374.24125717 0 361.43832798 0 14205
0.11550000 0.11549300 14571.29018459 0 389.86430749 0 5486.96807015 0 81.20996638 0 6.23609942 0 14776
0.11650000 0.11649800 14571.40090783 0 32.96651847 0 5254.70391243 0 243.25344010 0 469.25841260 0 14553
0.11750000 0.11747300 14650.23586054 0 112.59004215 0 5518.11451987 0 124.65223281 0 346.49511841 0 14568
0.11850000 0.11849100 14438.42228676 0 72.50235798 0 5550.48999764 0 -248.94904399 0 111.31451033 0 16015
0.11950000 0.11950300 14580.59093743 0 16.87389085 0 6258.50980817 0 123.01463597 0 1166.52478127 0 15270
0.12050000 0.12050700 14390.14695055 0 133.64074610 0 5920.01776614 0 227.12992070 0 856.30813513 0 15999
0.12150000 0.12150000 14529.76896652 0 98.14530864 0 5880.33455399 0 612.03382668 0 850.76090039 0 15670
0.12250000 0.12250700 14122.08596669 0 304.85985539 0 5176.50008224 0 493.19013547 0 805.45516170 0 16887
0.12350000 0.12352200 13706.32016975 0 403.70692798 0 4945.17707213 0 342.16473217 0 1067.26581820 0 16407
0.12450000 0.12449800 13580.09566682 0 385.11317291 0 5031.29761457 0 500.50451324 0 684.84986361 0 16306
0.12550000 0.12549900 13147.94282915 0 171.70075543 0 4624.26788191 0 488.36481631 0 859.91549855 0 17523
0.12650000 0.12650100 13041.86995739 0 129.93705344 0 4401.89131025 0 526.41818225 0 900.37045174 0 17154
0.12750000 0.12750600 12979.53276866 0 248.76192170 0 4432.63915627 0 -129.55948717 0 1000.44987408 0 18007
0.12850000 0.12850300 12961.59560245 0 94.02341428 0 4302.20716991 0 -332.14206375 0 1248.13888751 0 17496
0.12950000 0.12949900 12923.50680508 0 -68.13510090 0 4737.20559506 0 480.89542599 0 2010.54595754 0 18405
0.13050000 0.13049000 13024.15423768 0 -23.75500856 0 4189.30267373 0 639.03479798 0 1461.01540447 0 18100
0.13150000 0.13148800 13138.30990656 0 24.69504894 0 3947.81526944 0 801.25099997 0 998.95953916 0 19059
0.13250000 0.13249300 12916.86341018 0 148.65592578 0 3658.35148170 0 672.20305420 0 1179.41296736 0 18957
0.13350000 0.13349100 12497.88663905 0 307.35998634 0 3286.99677961 0 283.66742569 0 1608.39912013 0 19468
0.13450000 0.13450700 12409.86165674 0 194.48759990 0 2996.50326567 0 156.47630880 0 1131.03798022 0 19953
0.13550000 0.13551000 11997.63900374 0 156.30247330 0 2752.12598460 0 220.65039622 0 1008.57917496 0 19956
0.13650000 0.13649900 11970.17963819 0 118.47941172 0 2904.51439108 0 95.50466989 0 536.06549886 0 19723
0.13750000 0.13749600 11617.96898571 0 350.88640243 0 2773.41806522 0 -92.91064563 0 884.98767087 0 20946
0.13850000 0.13851100 11389.65764795 0 373.36654351 0 2582.90764439 0 -26.07056385 0 407.22349834 0 20955
0.13950000 0.13949800 11300.63615641 0 166.40486247 0 2796.79174292 0 112.70297986 0 389.28854660 0 20506
0.14050000 0.14048300 11250.92141797 0 -138.29887315 0 2691.71538039 0 -105.96181634 0 246.98259910 0 21447
0.14150000 0.14148400 11150.27398537 0 129.51187617 0 2574.76948565 0 175.08999405 0 28.34382286 0 21771
0.14250000 0.14249400 11271.84811188 0 138.65761647 0 2864.34399663 0 -570.28119702 0 259.58733368 0 22470
0.14350000 0.14350900 11109.63855329 0 92.65697867 0 2972.14415107 0 -118.08191526 0 26.14419481 0 22519
0.14450000 0.14449900 11061.99433959 0 187.32602021 0 3201.88381873 0 -290.96519498 0 -118.46501770 0 22218
0.14550000 0.14550500 11043.74714829 0 196.37210959 0 3338.42772839 0 -295.30886801 0 -72.42119783 0 23559
0.14650000 0.14650700 10798.21834544 0 295.13060358 0 3628.10189030 0 117.39432389 0 471.55702724 0 23044
0.14750000 0.14750500 10821.62524010 0 59.51330301 0 3480.58530674 0 282.90675698 0 585.71933951 0 23649
0.14850000 0.14849900 10543.47736833 0 157.95335693 0 3505.70841175 0 282.70524066 0 759.36660964 0 23640
0.14950000 0.14949500 10468.20770422 0 243.80373465 0 3447.64514041 0 487.60746929 0 542.38336740 0 24457
0.15050000 0.15050000 10267.68790175 0 300.37224215 0 3368.75482607 0 98.86456686 0 841.06597278 0 24591
0.15150000 0.15149900 10117.80184068 0 210.09514897 0 3408.20551940 0 -114.60077634 0 758.84067421 0 25020
0.15250000 0.15250500 9912.01161160 0 87.14008211 0 3644.86539008 0 -129.64252960 0 606.16106559 0 25297
0.15350000 0.15350100 9869.18385920 0 128.49432952 0 3415.77898958 0 -131.16608150 0 488.65158952 0 25452
0.15450000 0.15450400 9776.60815139 0 114.58748955 0 3518.36407902 0 83.56682144 0 411.16303151 0 26061
0.15550000 0.15549900 9723.20632879 0 148.09123722 0 3326.48068992 0 216.18603485 0 328.70078519 0 26128
0.15650000 0.15649500 9651.71232744 0 132.18362815 0 3320.00337990 0 53.48851890 0 116.38784956 0 26331
0.15750000 0.15749700 9481.16530826 0 181.11555322 0 3380.49149038 0 127.04606943 0 371.83081206 0 27345
0.15850000 0.15849900 9416.41435272 0 88.97775586 0 3092.41174325 0 277.26208578 0 338.58394233 0 26980
0.15950000 0.15949700 9419.41495274 0 -110.78193151 0 3296.67399150 0 153.20000789 0 855.31605482 0 27777
0.16050000 0.16050000 9450.43960689 0 13.97582056 0 3271.41801859 0 425.60798647 0 588.92809924 0 28224
0.16150000 0.16150500 9313.85140792 0 117.55265813 0 3200.78765857 0 279.80318433 0 637.40938069 0 28075
0.16250000 0.16249700 9215.72846538 0 185.89436861 0 2679.46938914 0 304.36824417 0 723.59635708 0 28590
0.16350000 0.16349900 9139.42907506 0 132.90775819 0 2817.26447151 0 17.73808581 0 573.91402679 0 29163
0.16450000 0.16449100 9030.86493021 0 13.22212741 0 2524.33504610 0 20.61467579 0 766.28349096 0 28996
0.16550000 0.16550500 8986.61992023 0 152.93648656 0 2578.31262959 0 -129.10552185 0 -33.52622449 0 30777
0.16650000 0.16650700 8803.22900426 0 281.48617770 0 2276.46998271 0 48.87623128 0 443.11111754 0 29211
0.16750000 0.16749900 8607.08277010 0 127.41367062 0 2303.19857483 0 264.10152050 0 188.90493373 0 30922
0.16850000 0.16850800 8512.49189917 0 44.80493744 0 2189.60759451 0 397.62268549 0 88.87079720 0 30867
0.16950000 0.16949900 8502.83683193 0 -7.92936791 0 2193.70435469 0 162.94254650 0 0.17911700 0 30852
0.17050000 0.17049200 8411.51229683 0 174.47658726 0 2125.98601610 0 74.48862232 0 140.46240542 0 31257
0.17150000 0.17149500 8219.37424425 0 237.51022522 0 2104.28425946 0 -68.75459747 0 324.83986553 0 32608
0.17250000 0.17250900 8036.74731869 0 186.18446352 0 2048.31365750 0 -26.38579294 0 295.50263369 0 32361
0.17350000 0.17350400 8028.06661603 0 135.93271733 0 2285.74859091 0 1.77201486 0 317.34168716 0 32508
0.17450000 0.17449800 7935.44661893 0 63.22950739 0 2091.59537522 0 168.05796056 0 345.86731759 0 32791
0.17550000 0.17549800 7904.02336109 0 29.95949649 0 2195.12161227 0 94.13668416 0 250.82912474 0 33633
0.17650000 0.17650100 7818.34571164 0 -6.49485965 0 1933.78152958 0 13.97615273 0 219.49112381 0 33984
0.17750000 0.17750300 7985.93642010 0 0.03235234 0 2181.73517157 0 201.99020720 0 156.75865308 0 34069
0.17850000 0.17849800 7803.42021779 0 101.28398056 0 1971.91461625 0 -52.15629678 0 309.74828680 0 34536
