### header ###
fiducial parameters:
Omega_m = 0.31
Omega_nu = 0
Omega_de = 0.69
Omega_k = 0
H_0 = 100
w_de = -1
zeff = 0
beta = 0
fgrowth = 0
b_1 = 2
gamma = 0.55
Lx = 3500 Ly = 3500 Lz = 3500
nx = 700 ny = 700 nz = 700
xoffset = -685.467585 yoffset = -31.7331281 zoffset = 572.489161
bins = 400 dk = 0.001
kx_ny = 0.628318531 ky_ny = 0.628318531 kz_ny = 0.628318531
############################
A(data) = 8.09364564 (not used)
A(ran) = 8.09605109 (used)
Ngal = 480451
weighted Ngal = 0
Nran = 23820508
weighted Nran = 0
SN(data) = 3485.43115
SN(ran) = 70.5195411
SN(data+ran) = 3555.95069
############################
13 columns: k_central k_mean P_0(k) sigma^{lin}_{P_0(k)} P^img_1(k) sigma^{lin}_{P_1(k)} P_2(k) sigma^{lin}_{P_2(k)} P^img_3(k) sigma^{lin}_{P_3(k)} P_4(k) sigma^{lin}_{P_4(k)} N_modes
### header ###
0.00050000 0 0 0 0 0 0 0 0 0 0 0 0
0.00150000 0.00179520 64282.59619961 0 -42987.52604566 0 -21245.02324578 0 122724.54105739 0 -110975.69719233 0 3
0.00250000 0.00253879 121185.48790760 0 -51528.27451777 0 24155.60527086 0 -83995.43113699 0 -8247.42044302 0 6
0.00350000 0.00331552 122195.28393106 0 -8207.22790392 0 -15510.00188271 0 -64396.08752901 0 110846.15099195 0 7
0.00450000 0.00420575 122299.36378436 0 26912.06053446 0 14904.01354539 0 -43082.63731585 0 50118.43539861 0 24
0.00550000 0.00557378 88107.36040489 0 17311.13696096 0 31462.45386518 0 4479.43080096 0 15114.60916344 0 45
0.00650000 0.00659388 90305.32760464 0 17274.26611931 0 77500.51612162 0 76482.63730104 0 23094.32293699 0 40
0.00750000 0.00754703 70517.20085850 0 -1323.45284092 0 26330.54203498 0 34462.72172128 0 -10556.77523044 0 57
0.00850000 0.00846663 73685.10371236 0 3403.62157693 0 26039.67206200 0 38769.41318275 0 23471.11415057 0 75
0.00950000 0.00948925 67014.13873237 0 11895.77361541 0 14957.16070452 0 16123.96229391 0 35666.61559882 0 112
0.01050000 0.01054430 55263.85546508 0 6322.00959100 0 5694.33056936 0 15937.06145097 0 40165.19044938 0 105
0.01150000 0.01145670 54804.79687810 0 -7277.71730772 0 -6711.06894048 0 19286.77187835 0 26195.79184194 0 144
0.01250000 0.01249090 66706.10665592 0 -14861.16364834 0 5698.08408747 0 7811.85732930 0 -9752.99088256 0 169
0.01350000 0.01339930 83147.73394887 0 -7435.74152753 0 -2321.92187609 0 -8346.00842320 0 -6921.63134156 0 180
0.01450000 0.01448870 72161.55181732 0 -495.13111401 0 5170.78676263 0 -18099.04359506 0 1909.00166663 0 267
0.01550000 0.01550050 77278.84817875 0 -2517.13803497 0 -14480.16495133 0 9718.32343355 0 16159.94734957 0 238
0.01650000 0.01653350 84703.06341615 0 -11814.05985825 0 4843.93173399 0 9592.16536456 0 -19696.33717339 0 315
0.01750000 0.01747870 88973.65909870 0 -1619.62645750 0 -10124.57810347 0 5574.79375062 0 -11264.20820775 0 297
0.01850000 0.01844180 86500.54462721 0 5391.87894461 0 -3011.51733812 0 -14351.17236719 0 -12745.79599174 0 388
0.01950000 0.01947590 87812.17222522 0 6598.44125242 0 -2299.02430837 0 -28482.44836349 0 -1266.95076737 0 399
0.02050000 0.02045430 78240.03669626 0 3426.49700000 0 24258.13499868 0 -15483.20685665 0 1345.18781454 0 462
0.02150000 0.02154770 75834.35268291 0 8533.98328165 0 27946.54784226 0 -10260.07014228 0 -1567.60867550 0 571
0.02250000 0.02255340 76499.46723476 0 929.93688071 0 40326.51422199 0 -6194.17960097 0 -3211.81569409 0 510
0.02350000 0.02348930 77198.79527031 0 2523.30531990 0 50003.94755999 0 1419.62705430 0 -6727.69957236 0 555
0.02450000 0.02439640 75836.45642462 0 3580.85628030 0 46544.39967040 0 7045.66352417 0 -2035.61370093 0 592
0.02550000 0.02547300 73774.67882014 0 1306.37931605 0 42801.51098870 0 5911.83531810 0 905.24781083 0 837
0.02650000 0.02652900 70182.26303273 0 1561.81784962 0 44206.58900819 0 7153.80692068 0 4373.56830337 0 723
0.02750000 0.02749970 73075.35078460 0 1494.86350144 0 44808.25913884 0 20982.83059407 0 7067.64208894 0 826
0.02850000 0.02848090 69178.77823442 0 -783.75894122 0 31118.21528656 0 12507.85173138 0 3690.94840597 0 831
0.02950000 0.02946900 68329.97381382 0 853.94972994 0 23279.45220796 0 4090.75898285 0 4585.88013176 0 996
0.03050000 0.03053250 64015.64244824 0 5797.49141969 0 20317.93748871 0 12064.95873864 0 9725.73081885 0 1041
0.03150000 0.03150510 57796.20687436 0 2519.19748739 0 11050.16909668 0 12268.80023855 0 16793.61649894 0 1036
0.03250000 0.03246190 59948.88826560 0 740.95554793 0 9413.32517409 0 4975.30486796 0 9715.38926747 0 1059
0.03350000 0.03345080 53350.11484343 0 2096.68864463 0 7338.33828611 0 3465.68195754 0 1828.17369546 0 1302
0.03450000 0.03451200 52984.83884766 0 3430.81520668 0 7229.82950288 0 -4510.47759975 0 1398.24639507 0 1339
0.03550000 0.03553350 50958.93557559 0 1661.09231394 0 5190.22976501 0 -2599.78186742 0 4191.16282430 0 1365
0.03650000 0.03647120 49601.91144582 0 -1205.61008788 0 10529.83626416 0 -4903.72228801 0 3724.75221364 0 1308
0.03750000 0.03744890 52949.85030123 0 1335.46631335 0 17647.95708194 0 -4124.82852631 0 283.07394908 0 1579
0.03850000 0.03847530 52340.54026646 0 2912.08786125 0 18040.47099677 0 -2019.69169784 0 7897.03672413 0 1662
0.03950000 0.03950240 47963.87171215 0 3035.77680180 0 20257.48259520 0 1436.52342197 0 12651.34906103 0 1683
0.04050000 0.04050350 48047.24631803 0 1415.34206459 0 22672.24591490 0 6489.38992529 0 12899.59058347 0 1822
0.04150000 0.04152450 47907.51357882 0 397.04581737 0 23411.10215005 0 3979.89179444 0 13247.48302927 0 1887
0.04250000 0.04250150 46125.75506901 0 2359.45705723 0 24032.37029562 0 -1187.76150027 0 11910.05691443 0 1920
0.04350000 0.04349210 43365.97810796 0 2477.98629441 0 22304.53400767 0 323.20226869 0 6394.31187207 0 2005
0.04450000 0.04448520 42302.48130913 0 1420.09209194 0 24744.21005821 0 -2084.89661870 0 6886.44349328 0 2151
0.04550000 0.04548030 43255.69775276 0 -1080.64561551 0 22560.96905047 0 -303.58543081 0 7629.26362072 0 2274
0.04650000 0.04648670 43009.55997205 0 -515.77103470 0 21407.12208112 0 2249.68602898 0 5922.29866505 0 2311
0.04750000 0.04749250 43022.73603858 0 759.67663474 0 23566.22542076 0 2794.16760193 0 836.43220485 0 2568
0.04850000 0.04851840 42230.06830481 0 2519.34142761 0 21752.91078521 0 2151.87311153 0 -1501.57333028 0 2493
0.04950000 0.04949480 39294.90571864 0 2001.31163865 0 21134.29999759 0 159.36175665 0 -1718.98950042 0 2644
0.05050000 0.05050630 39204.55554812 0 -68.29487454 0 19871.05845903 0 873.91645329 0 -1445.77988552 0 2829
0.05150000 0.05149060 38812.81669603 0 -765.95132121 0 17631.12714822 0 -1685.47357319 0 -6240.03009804 0 2784
0.05250000 0.05249300 39779.09848296 0 432.04322166 0 18808.89033918 0 -411.03237808 0 -2963.52988236 0 3055
0.05350000 0.05348950 38399.15464081 0 2594.10176479 0 18140.56481313 0 1536.46222578 0 -3210.03304980 0 3009
0.05450000 0.05448610 36126.11707879 0 1768.61566026 0 17008.30887717 0 2625.81290307 0 -3631.97720399 0 3336
0.05550000 0.05550870 35383.27480671 0 539.39383970 0 15194.21917888 0 4864.91378952 0 -4672.11139745 0 3349
0.05650000 0.05647670 35152.30611099 0 232.62843721 0 13842.17759528 0 1720.50640892 0 -4439.07217699 0 3324
0.05750000 0.05747970 34089.36292840 0 1263.77301015 0 14064.62060089 0 3065.18489652 0 -572.75143268 0 3639
0.05850000 0.05849280 32849.48399521 0 1014.94244004 0 11153.37423632 0 1381.93686062 0 -49.24217161 0 3846
0.05950000 0.05951020 31789.41961707 0 523.31460960 0 9252.35571588 0 2727.19110911 0 -434.48024035 0 3787
0.06050000 0.06049470 31957.27606132 0 -176.67887267 0 9624.61834861 0 537.32885112 0 -192.79574867 0 3930
0.06150000 0.06148310 31010.03867309 0 146.38942089 0 7635.18731449 0 6.21706610 0 -527.70146469 0 4083
0.06250000 0.06249100 31517.81548927 0 360.40860178 0 9169.75617273 0 -245.50444374 0 -468.36930492 0 4303
0.06350000 0.06350600 30697.46694346 0 465.34656025 0 9238.61496078 0 7.00670001 0 911.95985413 0 4470
0.06450000 0.06451750 30770.21211751 0 1445.82417482 0 11856.02396931 0 -931.73834795 0 1050.94631865 0 4479
0.06550000 0.06550280 29801.38369588 0 893.88539110 0 10959.07708040 0 -297.37053489 0 1611.02326111 0 4636
0.06650000 0.06648880 30113.95542551 0 -341.38524051 0 13881.48434839 0 21.62402892 0 3041.99944835 0 4653
0.06750000 0.06749660 30574.34269147 0 -571.17584086 0 14018.67045289 0 -514.45785698 0 937.64986217 0 5220
0.06850000 0.06852730 30163.33799420 0 -30.70344600 0 15229.31844856 0 202.02896034 0 1412.59612804 0 5029
0.06950000 0.06949320 30739.87394751 0 767.56455894 0 14313.30501631 0 642.62998185 0 1028.08418236 0 5040
0.07050000 0.07048030 30015.07956488 0 -63.03862051 0 12273.67206147 0 2145.86083915 0 2006.73707781 0 5475
0.07150000 0.07148790 29800.38718665 0 109.40021609 0 11241.28849538 0 3212.61290148 0 1386.98584073 0 5509
0.07250000 0.07249820 29639.17413729 0 255.48946626 0 10147.18779075 0 1885.16295130 0 -483.78198107 0 5916
0.07350000 0.07351270 28636.02150872 0 1272.79695488 0 9693.77608943 0 561.85405060 0 -1262.00143818 0 5721
0.07450000 0.07449140 27373.88720264 0 1594.94624548 0 9077.83373209 0 -554.78769290 0 530.49390501 0 6028
0.07550000 0.07549160 26184.27662413 0 1463.01949526 0 9697.19743779 0 -1110.02270772 0 2157.33176767 0 6183
0.07650000 0.07648840 25945.66802429 0 122.33590246 0 10825.09087777 0 1275.91935048 0 1968.61506346 0 6330
0.07750000 0.07749960 25800.50984591 0 253.40786919 0 11141.52684876 0 1769.81147134 0 1675.03237089 0 6583
0.07850000 0.07848650 25276.23526575 0 711.61167270 0 11236.74884220 0 174.96930571 0 2415.15085107 0 6549
0.07950000 0.07947320 24825.37019914 0 313.81847340 0 10444.41327818 0 1605.08849501 0 3781.06605767 0 6828
0.08050000 0.08048110 24936.20417057 0 -133.28200277 0 11166.77174935 0 736.75581513 0 4384.90636398 0 7147
0.08150000 0.08149960 25376.55052861 0 83.53460098 0 10054.11382832 0 1217.32460754 0 3678.75777635 0 7386
0.08250000 0.08250610 24827.58466410 0 -163.93130510 0 9408.89624417 0 499.27105626 0 3723.53425791 0 7227
0.08350000 0.08350160 25341.67270543 0 378.95585308 0 9179.56625252 0 222.58030243 0 2295.44794745 0 7798
0.08450000 0.08449610 24781.96668585 0 515.39236119 0 8689.42764978 0 -561.10445421 0 224.13928577 0 7371
0.08550000 0.08548940 23665.76562088 0 860.96515495 0 8392.82221253 0 -647.59702676 0 -400.01873658 0 8256
0.08650000 0.08650700 23298.05371365 0 749.77908358 0 7606.83109063 0 -1161.02183583 0 -2662.10798382 0 8037
0.08750000 0.08749060 22606.80847522 0 605.51887075 0 8265.49047712 0 828.07924300 0 -1579.01317006 0 8155
0.08850000 0.08849210 21610.85285779 0 523.77964724 0 7239.71708895 0 1209.18644879 0 -2424.58447181 0 8718
0.08950000 0.08949900 21294.95943071 0 731.47099449 0 6839.24217258 0 1767.29805360 0 -2245.65570274 0 8571
0.09050000 0.09049190 20587.88076779 0 579.00397451 0 6434.38261559 0 1855.85450750 0 -901.47325529 0 8932
0.09150000 0.09150830 20382.04624941 0 361.56898142 0 6037.93802545 0 993.71014996 0 -491.08639375 0 9285
0.09250000 0.09250820 19676.18554222 0 499.04296637 0 6341.95084800 0 439.91453737 0 841.30292053 0 9204
0.09350000 0.09350330 19481.53407191 0 372.41543081 0 6394.56653554 0 423.27726210 0 1457.54976680 0 9349
0.09450000 0.09448040 19231.96387050 0 91.73299317 0 5890.07819983 0 -264.72489239 0 1256.64243297 0 9564
0.09550000 0.09549270 19131.20571465 0 132.02750837 0 6256.53893435 0 351.90284185 0 689.97192107 0 10155
0.09650000 0.09649430 18939.87594178 0 346.99337303 0 6193.36024893 0 -180.11572229 0 1242.01589188 0 9913
0.09750000 0.09749140 18726.18007278 0 491.25026416 0 5695.61495904 0 -189.09759218 0 200.88518918 0 10476
0.09850000 0.09850240 17915.13227982 0 543.85266491 0 5571.07344948 0 413.07079308 0 1236.91155014 0 10575
0.09950000 0.09950330 17727.34565089 0 418.20503010 0 5385.72273201 0 70.58961386 0 -129.67574658 0 10882
0.10050000 0.10051200 17429.27866678 0 57.96882442 0 4910.28817662 0 821.07489032 0 -273.69679719 0 10875
0.10150000 0.10150300 17223.33342515 0 281.22929977 0 5150.28081707 0 66.44435690 0 -597.34417334 0 11118
0.10250000 0.10250800 16843.44196062 0 468.94506581 0 4275.16855270 0 140.83332830 0 -1598.85477614 0 11575
0.10350000 0.10349800 16682.67180425 0 349.49128951 0 4723.87451598 0 -35.19947421 0 -969.30453160 0 11364
0.10450000 0.10450100 16194.93589599 0 389.03499036 0 4294.31260231 0 209.94899428 0 -1102.28204544 0 12093
0.10550000 0.10551000 15991.20511933 0 189.99445049 0 4252.75816727 0 -157.55807494 0 -642.25352280 0 12067
0.10650000 0.10649700 15832.76015118 0 229.38756773 0 5018.75267055 0 104.67532292 0 -891.74178901 0 12054
0.10750000 0.10749900 15724.36209120 0 283.12377454 0 5353.85658118 0 122.20967795 0 115.32712085 0 12807
0.10850000 0.10850100 15257.88504659 0 145.66307638 0 4975.91384582 0 860.44475568 0 553.20324322 0 12736
0.10950000 0.10950300 15594.48372108 0 -84.86405502 0 5004.21470806 0 590.69302782 0 681.73189694 0 12933
0.11050000 0.11050200 15343.47411744 0 74.38398885 0 4967.77568708 0 744.78546509 0 1040.38996417 0 13428
0.11150000 0.11150900 15349.78534259 0 248.91914871 0 4492.13075752 0 400.16378404 0 701.59786213 0 13453
0.11250000 0.11250000 15133.87500862 0 133.17460122 0 4981.41679126 0 -105.09928224 0 1171.39660419 0 13668
0.11350000 0.11349100 15306.60327579 0 125.35421820 0 4302.86043707 0 -135.98365003 0 500.16459287 0 13791
0.11450000 0.11448600 14879.54370754 0 309.57998746 0 5019.88204768 0 -385.67011085 0 1119.16844802 0 14205
0.11550000 0.11549300 14823.18557421 0 162.07890516 0 4685.73035698 0 201.83519465 0 1109.60195938 0 14776
0.11650000 0.11649800 14778.45338194 0 -62.08064296 0 5234.20903919 0 333.24929623 0 882.16201358 0 14553
0.11750000 0.11747300 14872.78958940 0 131.89353324 0 4640.80993519 0 556.54044192 0 967.71676022 0 14568
0.11850000 0.11849100 14806.35564049 0 239.84316406 0 4845.78081223 0 187.21529696 0 870.83391806 0 16015
0.11950000 0.11950300 14291.27108992 0 376.04272442 0 4685.33175328 0 70.50778938 0 1637.60791300 0 15270
0.12050000 0.12050700 14258.93990145 0 244.79027879 0 4815.23226806 0 3.03509032 0 1137.89174929 0 15999
0.12150000 0.12150000 14168.25756119 0 128.72352664 0 4635.35127905 0 353.47511198 0 1256.78637319 0 15670
0.12250000 0.12250700 13828.66935900 0 -66.86012269 0 4107.03530033 0 129.55062931 0 598.23992442 0 16887
0.12350000 0.12352200 13735.21893753 0 154.01714546 0 4133.96319429 0 527.86201340 0 495.87849593 0 16407
0.12450000 0.12449800 13881.48434839 0 149.39112815 0 4185.37199842 0 114.66610305 0 76.52803383 0 16306
0.12550000 0.12549900 13593.93607284 0 320.48733464 0 4012.05689804 0 -357.92618655 0 264.44144088 0 17523
0.12650000 0.12650100 13371.05017425 0 282.00436250 0 4159.17487790 0 -162.16969822 0 460.91652309 0 17154
0.12750000 0.12750600 13099.77821619 0 301.92568932 0 4414.71306239 0 -307.08982161 0 739.28030519 0 18007
0.12850000 0.12850300 13078.29790604 0 330.93407311 0 4601.50318208 0 443.19415998 0 1032.43892771 0 17496
0.12950000 0.12949900 12800.82544609 0 64.90718604 0 4357.88989142 0 794.49023843 0 1427.90915326 0 18405
0.13050000 0.13049000 12804.81148302 0 -137.42526672 0 4136.57626295 0 769.17226050 0 1312.90091537 0 18100
0.13150000 0.13148800 12937.12576460 0 -93.68471186 0 3924.81805079 0 581.92817549 0 1078.57730523 0 19059
0.13250000 0.13249300 12794.73566743 0 7.86036518 0 3380.23682691 0 590.66977594 0 978.02288016 0 18957
0.13350000 0.13349100 12608.27771749 0 237.92654463 0 3230.82687581 0 58.31904205 0 1105.13206185 0 19468
0.13450000 0.13450700 12588.67970256 0 189.02562207 0 2907.11638741 0 -82.11955787 0 945.43702822 0 19953
0.13550000 0.13551000 12171.03161040 0 312.28384919 0 2692.33543058 0 142.34027171 0 893.87321154 0 19956
0.13650000 0.13649900 12116.11287930 0 193.54423783 0 2400.09248931 0 70.87804792 0 598.16906154 0 19723
0.13750000 0.13749600 11742.64336317 0 294.37768549 0 2725.43060946 0 -103.18698102 0 350.52987357 0 20946
0.13850000 0.13851100 11708.42987948 0 361.83139552 0 2932.89275959 0 -32.46571722 0 390.19537000 0 20955
0.13950000 0.13949800 11522.19337603 0 77.24718133 0 2911.01384575 0 -60.92602093 0 691.26959754 0 20506
0.14050000 0.14048300 11291.77829655 0 112.77162828 0 3045.65331554 0 388.18352858 0 1075.60660049 0 21447
0.14150000 0.14148400 11238.18824443 0 57.45938675 0 2935.32867105 0 259.47218150 0 986.41127344 0 21771
0.14250000 0.14249400 11279.26656951 0 195.72991475 0 3031.86827114 0 179.01181151 0 949.64340442 0 22470
0.14350000 0.14350900 10996.73405711 0 417.89943393 0 2986.29458219 0 -399.92130012 0 1216.80420827 0 22519
0.14450000 0.14449900 10763.03049716 0 350.52433741 0 3341.56119632 0 -190.00109389 0 1275.63147003 0 22218
0.14550000 0.14550500 10454.32300889 0 107.96601786 0 3296.61862988 0 -241.24492038 0 1266.79575483 0 23559
0.14650000 0.14650700 10636.26345031 0 59.30746849 0 3486.30969867 0 30.27372907 0 1067.37321975 0 23044
0.14750000 0.14750500 10360.24146491 0 69.22694285 0 3264.60853883 0 278.65719871 0 881.19761409 0 23649
0.14850000 0.14849900 10515.09899982 0 35.88152942 0 2962.35621593 0 366.26586161 0 910.99877634 0 23640
0.14950000 0.14949500 10374.70192112 0 -81.77332627 0 2881.05213479 0 500.48347583 0 735.40166980 0 24457
0.15050000 0.15050000 10410.10014357 0 105.76173944 0 2758.47042672 0 373.64556610 0 585.74148416 0 24591
0.15150000 0.15149900 10209.11530346 0 362.29311146 0 2563.77466711 0 -12.54749065 0 655.94223798 0 25020
0.15250000 0.15250500 9901.73649417 0 263.87453785 0 2755.17087392 0 -386.85042068 0 687.29574017 0 25297
0.15350000 0.15350100 9765.74620075 0 319.11325913 0 2952.84508891 0 -108.37104350 0 1007.36121923 0 25452
0.15450000 0.15450400 9602.32975875 0 130.76747781 0 3094.89194401 0 -162.57383808 0 773.76838253 0 26061
0.15550000 0.15549900 9487.02256809 0 99.36614317 0 3326.97894453 0 9.59558671 0 908.95925410 0 26128
0.15650000 0.15649500 9500.69688924 0 138.32987566 0 3160.82763830 0 286.36575125 0 978.50784799 0 26331
0.15750000 0.15749700 9434.05256615 0 1.69954650 0 3130.56697457 0 130.05774178 0 743.91518036 0 27345
0.15850000 0.15849900 9258.79980893 0 68.49904821 0 2547.02223966 0 392.29025386 0 612.59630078 0 26980
0.15950000 0.15949700 9447.06254782 0 -75.95116571 0 2501.20495956 0 453.39620007 0 634.69666111 0 27777
0.16050000 0.16050000 9211.76457310 0 66.48532450 0 2109.87578349 0 270.48803746 0 561.35801045 0 28224
0.16150000 0.16150500 9180.13094109 0 99.75002067 0 1986.26434922 0 503.68448493 0 544.49264528 0 28075
0.16250000 0.16249700 9006.84905768 0 273.90606413 0 1859.35336215 0 161.06135851 0 717.10465304 0 28590
0.16350000 0.16349900 8934.50248731 0 147.61402002 0 1775.80159906 0 60.34915281 0 215.09098193 0 29163
0.16450000 0.16449100 8797.99179462 0 30.32886925 0 2102.29124099 0 -205.47245336 0 579.91965577 0 28996
0.16550000 0.16550500 8660.72818385 0 201.32365325 0 2200.83493188 0 -312.68245288 0 282.79935543 0 30777
0.16650000 0.16650700 8606.80596198 0 192.27867110 0 2286.85582339 0 -326.88381669 0 609.21924171 0 29211
0.16750000 0.16749900 8542.69720128 0 101.90380930 0 2335.58512492 0 9.22459740 0 217.45824497 0 30922
0.16850000 0.16850800 8453.71999904 0 75.51059791 0 2242.03505253 0 18.97873980 0 363.94288786 0 30867
0.16950000 0.16949900 8421.46631684 0 65.06031629 0 2129.79489584 0 351.15545993 0 -173.06708031 0 30852
0.17050000 0.17049200 8348.32253909 0 43.34516214 0 1983.61806359 0 165.37402903 0 133.59424233 0 31257
0.17150000 0.17149500 8380.49871501 0 65.35904762 0 2016.08211995 0 174.64156490 0 293.32138570 0 32608
0.17250000 0.17250900 8223.38242583 0 101.80825514 0 1840.61898855 0 233.97926084 0 401.61093689 0 32361
0.17350000 0.17350400 8283.95911492 0 15.34314195 0 1967.44139703 0 81.29400533 0 581.75987616 0 32508
0.17450000 0.17449800 8226.28337494 0 17.73852870 0 1788.31332611 0 162.95583329 0 423.43559634 0 32791
0.17550000 0.17549800 8207.44935042 0 103.54572435 0 1719.41024876 0 111.33776221 0 339.74100027 0 33633
0.17650000 0.17650100 8116.32411716 0 171.74504473 0 1834.72851175 0 -201.07120424 0 376.16009106 0 33984
0.17750000 0.17750300 7953.97061835 0 143.63684094 0 1763.12378715 0 -96.62197819 0 155.74774983 0 34069
0.17850000 0.17849800 7846.54692296 0 86.01967356 0 1457.27295868 0 52.80070609 0 -35.43985439 0 34536
