### header ###
fiducial parameters:
Omega_m = 0.31
Omega_nu = 0
Omega_de = 0.69
Omega_k = 0
H_0 = 100
w_de = -1
zeff = 0
beta = 0
fgrowth = 0
b_1 = 2
gamma = 0.55
Lx = 3500 Ly = 3500 Lz = 3500
nx = 700 ny = 700 nz = 700
xoffset = -685.467585 yoffset = -31.7331281 zoffset = 572.489161
bins = 400 dk = 0.001
kx_ny = 0.628318531 ky_ny = 0.628318531 kz_ny = 0.628318531
############################
A(data) = 8.05036952 (not used)
A(ran) = 8.04624269 (used)
Ngal = 477535
weighted Ngal = 0
Nran = 23820508
weighted Nran = 0
SN(data) = 3492.90207
SN(ran) = 70.085692
SN(data+ran) = 3562.98777
############################
13 columns: k_central k_mean P_0(k) sigma^{lin}_{P_0(k)} P^img_1(k) sigma^{lin}_{P_1(k)} P_2(k) sigma^{lin}_{P_2(k)} P^img_3(k) sigma^{lin}_{P_3(k)} P_4(k) sigma^{lin}_{P_4(k)} N_modes
### header ###
0.00050000 0 0 0 0 0 0 0 0 0 0 0 0
0.00150000 0.00179520 35640.26346575 0 -7427.29334370 0 87639.99757429 0 -36757.01814696 0 -161085.71762408 0 3
0.00250000 0.00253879 79075.88649682 0 -16507.50762562 0 18578.25381321 0 64103.00309106 0 125965.41053181 0 6
0.00350000 0.00331552 78145.92193530 0 -20673.35911539 0 -6541.76202168 0 20282.28460280 0 99486.61006751 0 7
0.00450000 0.00420575 78521.60591639 0 -6155.20501761 0 -27984.96880938 0 4267.24076813 0 1731.36835957 0 24
0.00550000 0.00557378 95082.70359414 0 -14057.86648275 0 -7655.48288589 0 21178.03568062 0 -35806.79123102 0 45
0.00650000 0.00659388 88424.91468069 0 2773.14125710 0 -4815.76373965 0 960.41456200 0 20133.25111074 0 40
0.00750000 0.00754703 86127.07511107 0 25310.78091918 0 25370.90364295 0 -18800.47537232 0 -4463.15448347 0 57
0.00850000 0.00846663 64682.63929531 0 31168.81581099 0 23676.39505270 0 7795.34849299 0 19604.54760065 0 75
0.00950000 0.00948925 54892.93258366 0 12086.77121853 0 47280.04493135 0 13251.57978945 0 36379.89476363 0 112
0.01050000 0.01054430 54842.99639873 0 -3421.45909221 0 54542.38277990 0 26351.24728239 0 25189.53896242 0 105
0.01150000 0.01145670 61577.40579992 0 -6934.53059997 0 68271.51193878 0 26895.45204723 0 17918.34325402 0 144
0.01250000 0.01249090 69268.24261896 0 5770.15384972 0 65652.68567267 0 28138.09906163 0 20112.65658657 0 169
0.01350000 0.01339930 70828.11173941 0 322.32866226 0 56709.45819341 0 1470.71476101 0 42665.21067019 0 180
0.01450000 0.01448870 65079.13924707 0 1778.16000425 0 42525.36720773 0 32342.70368826 0 21092.77877952 0 267
0.01550000 0.01550050 79835.00508638 0 -10152.62430224 0 51828.88813659 0 -4279.87429075 0 21241.81227158 0 238
0.01650000 0.01653350 75200.79425679 0 -4349.97317918 0 34577.20955991 0 12884.42149847 0 3876.68665480 0 315
0.01750000 0.01747870 73856.72474705 0 7767.51266840 0 42146.58297568 0 6877.80707992 0 5373.23314962 0 297
0.01850000 0.01844180 74347.56090626 0 3552.13466972 0 31109.13598021 0 -11335.07108659 0 -11172.52935826 0 388
0.01950000 0.01947590 69832.04539872 0 4276.39758076 0 36105.96544762 0 -139.78367191 0 -4846.02440338 0 399
0.02050000 0.02045430 64667.91310330 0 8668.65596842 0 29635.29882360 0 -682.26336854 0 -5276.56068163 0 462
0.02150000 0.02154770 64322.34584571 0 -160.56199666 0 35105.02728401 0 2772.84230433 0 -17026.68893637 0 571
0.02250000 0.02255340 63184.33230085 0 -4164.25707499 0 21751.69282948 0 16188.51394760 0 -17287.55290910 0 510
0.02350000 0.02348930 63725.54753799 0 49.66402719 0 34449.21348501 0 10020.11071881 0 -25710.04895214 0 555
0.02450000 0.02439640 63810.02937636 0 480.13365004 0 17198.30997106 0 8843.03401198 0 -23456.94157480 0 592
0.02550000 0.02547300 60482.24215211 0 3964.34625039 0 19799.42051746 0 10.80115251 0 -17938.38416194 0 837
0.02650000 0.02652900 59798.41537131 0 1941.33285510 0 17016.61312078 0 -13401.27762100 0 -15856.23347979 0 723
0.02750000 0.02749970 58971.53415385 0 2922.39619566 0 19048.16327851 0 -288.19489931 0 -3795.31613971 0 826
0.02850000 0.02848090 58908.31117914 0 -1247.09808897 0 20340.19286160 0 1987.64838982 0 -3442.70688354 0 831
0.02950000 0.02946900 60962.55960274 0 -7066.47949483 0 20937.54478556 0 6157.02087888 0 -1835.53679146 0 996
0.03050000 0.03053250 66815.72267162 0 -2437.31764535 0 23905.37072995 0 12048.46097466 0 -5015.39775613 0 1041
0.03150000 0.03150510 65695.20339998 0 2579.24270488 0 25761.64598580 0 863.25380449 0 1418.19872440 0 1036
0.03250000 0.03246190 62334.19920128 0 6515.44310558 0 23379.10313132 0 687.74306209 0 5740.98934614 0 1059
0.03350000 0.03345080 57207.04847076 0 7475.54653526 0 23882.56174083 0 -2212.62695781 0 12135.26800124 0 1302
0.03450000 0.03451200 54253.61654863 0 1042.28886787 0 27067.73742141 0 2762.15751088 0 11224.45856165 0 1339
0.03550000 0.03553350 53917.12859739 0 -2029.19175254 0 28480.45534502 0 4429.20673558 0 7615.00246635 0 1365
0.03650000 0.03647120 56215.85395299 0 -1656.76303494 0 25811.58217073 0 5712.10165069 0 3373.90345711 0 1308
0.03750000 0.03744890 55904.72162559 0 1820.06875369 0 22209.20129099 0 1206.77268198 0 3539.44578548 0 1579
0.03850000 0.03847530 53391.85750799 0 3335.52677929 0 22433.41586856 0 3132.71500559 0 5963.34377315 0 1662
0.03950000 0.03950240 52349.50884957 0 1365.59410918 0 21087.35334036 0 2791.41059305 0 5366.66726100 0 1683
0.04050000 0.04050350 50580.70495979 0 772.00899012 0 19754.90977168 0 5640.28655192 0 411.38558524 0 1822
0.04150000 0.04152450 48167.27031907 0 1429.32641084 0 18114.32340331 0 2715.69803594 0 -4370.03623175 0 1887
0.04250000 0.04250150 49007.32760306 0 2620.48711483 0 15225.99675111 0 -402.56426406 0 -67.75974909 0 1920
0.04350000 0.04349210 44704.06856229 0 1886.20374983 0 15435.04224369 0 -4831.06569255 0 -5030.22359906 0 2005
0.04450000 0.04448520 43941.84972178 0 2394.13557856 0 16374.52900455 0 -592.85656009 0 1845.05899080 0 2151
0.04550000 0.04548030 42704.18525355 0 983.40292279 0 16546.03931599 0 2324.12526873 0 -3093.95079640 0 2274
0.04650000 0.04648670 42268.37854869 0 -816.99473863 0 14059.30588497 0 5230.82090780 0 -128.68588074 0 2311
0.04750000 0.04749250 43241.85734674 0 248.71873963 0 15629.25082101 0 4027.33670629 0 -1027.16517940 0 2568
0.04850000 0.04851840 42461.36917027 0 2435.03674644 0 13480.66618995 0 1140.81484304 0 503.86828552 0 2493
0.04950000 0.04949480 39582.89688717 0 2493.59827241 0 16120.86204296 0 -247.24722767 0 3796.63374636 0 2644
0.05050000 0.05050630 37482.69831557 0 2608.28541288 0 15460.73003727 0 -187.26622966 0 7591.76165655 0 2829
0.05150000 0.05149060 37481.70180634 0 504.98216140 0 17612.63636577 0 -595.13192284 0 7005.65921460 0 2784
0.05250000 0.05249300 35540.94471212 0 1171.60697836 0 14920.95420236 0 4917.28588591 0 4085.80965365 0 3055
0.05350000 0.05348950 34969.50202823 0 447.98847663 0 16292.81524739 0 2367.07481670 0 6183.30657800 0 3009
0.05450000 0.05448610 35994.35641345 0 -897.73413120 0 12475.63126616 0 1349.07420055 0 5759.73479206 0 3336
0.05550000 0.05550870 36085.03875371 0 -880.64399785 0 14238.89899353 0 1343.52696582 0 2723.88048399 0 3349
0.05650000 0.05647670 36118.03428167 0 1018.40254154 0 13595.59692157 0 -1778.52539097 0 2565.96698742 0 3324
0.05750000 0.05747970 36008.08609622 0 1612.46266334 0 15134.87151786 0 -2275.18559303 0 1898.11757134 0 3639
0.05850000 0.05849280 34585.40308028 0 973.71906750 0 13907.50431171 0 341.24794368 0 1609.80530538 0 3846
0.05950000 0.05951020 35043.57588127 0 -864.74524664 0 12803.81497379 0 1050.90867274 0 -698.42121214 0 3787
0.06050000 0.06049470 33351.83537223 0 806.93885323 0 11509.46020249 0 3039.38637969 0 -1594.83552223 0 3930
0.06150000 0.06148310 33676.47593591 0 837.09875880 0 11670.67325185 0 1088.04414295 0 -3567.65806912 0 4083
0.06250000 0.06249100 33145.22579111 0 357.13672979 0 10215.02792491 0 539.06388442 0 -3043.52742918 0 4303
0.06350000 0.06350600 31902.91094646 0 408.66068610 0 9414.74243167 0 598.65402936 0 -3784.63134626 0 4470
0.06450000 0.06451750 31823.74382401 0 857.77078924 0 11205.19271647 0 -795.46571025 0 -2582.56440233 0 4479
0.06550000 0.06550280 31763.84254674 0 474.65395649 0 12367.12248294 0 -96.15849067 0 -2585.64250862 0 4636
0.06650000 0.06648880 31383.06529623 0 1266.95076737 0 13212.38375959 0 -1406.68350658 0 248.62462487 0 4653
0.06750000 0.06749660 30633.13673626 0 1093.00565171 0 14877.66141232 0 -992.82104228 0 619.85974586 0 5220
0.06850000 0.06852730 30557.84492749 0 -57.55848406 0 15906.50183447 0 1659.05500618 0 1276.97122133 0 5029
0.06950000 0.06949320 29971.23315860 0 37.20987623 0 15850.80804063 0 1844.81539966 0 3164.52579479 0 5040
0.07050000 0.07048030 29828.95378468 0 629.28118705 0 15478.22431048 0 1377.53007534 0 2645.12303755 0 5475
0.07150000 0.07148790 29375.76352985 0 1180.24339172 0 14664.40843631 0 2050.59455641 0 3213.11115610 0 5509
0.07250000 0.07249820 27994.26956223 0 1020.57493167 0 14025.97818727 0 766.58355096 0 3606.20083181 0 5916
0.07350000 0.07351270 26846.95526452 0 1120.28675283 0 13357.65266121 0 1162.64946758 0 3116.84836412 0 5721
0.07450000 0.07449140 26232.55196034 0 144.39418796 0 13857.78957327 0 -69.52146669 0 3610.10936247 0 6028
0.07550000 0.07549160 25860.41112318 0 190.47388216 0 13190.23910996 0 1089.75592437 0 3788.07483928 0 6183
0.07650000 0.07648840 26149.17735445 0 10.35514820 0 13192.45357492 0 1655.33470504 0 3782.28401340 0 6330
0.07750000 0.07749960 26349.58643367 0 301.75960444 0 12350.62471896 0 821.67058140 0 3284.39478328 0 6583
0.07850000 0.07848650 25790.32330708 0 22.20211500 0 11458.63823157 0 2056.66219041 0 3039.22029482 0 6549
0.07950000 0.07947320 26335.08168816 0 -154.53533026 0 10724.68703632 0 -84.09596785 0 1232.46047556 0 6828
0.08050000 0.08048110 25921.97324917 0 134.32723023 0 9805.67300404 0 195.89046346 0 155.61931086 0 7147
0.08150000 0.08149960 25962.94085100 0 206.79338171 0 9340.00423915 0 -1276.32902649 0 -1837.07584461 0 7386
0.08250000 0.08250610 25176.36289589 0 857.75196628 0 9120.81649704 0 -337.26079951 0 -2624.46207944 0 7227
0.08350000 0.08350160 24802.78265651 0 875.36471337 0 8952.93790813 0 -553.21653001 0 -3799.72292499 0 7798
0.08450000 0.08449610 23299.16094613 0 898.88786745 0 7045.13205258 0 968.91035684 0 -4626.41591292 0 7371
0.08550000 0.08548940 23035.30744570 0 500.13359036 0 7451.37565018 0 2043.64113643 0 -2637.61600132 0 8256
0.08650000 0.08650700 22204.10802157 0 530.20270287 0 6581.30129360 0 1936.21744104 0 -3417.70557410 0 8037
0.08750000 0.08749060 21951.88046220 0 469.59944021 0 6037.78301291 0 909.99340924 0 -2320.81464361 0 8155
0.08850000 0.08849210 21119.35235909 0 554.79101460 0 6067.43469877 0 44.73562469 0 -2975.46584851 0 8718
0.08950000 0.08949900 20437.07570376 0 736.78792487 0 6109.00020614 0 -391.76764013 0 -1654.55964230 0 8571
0.09050000 0.09049190 20258.36838119 0 694.80388362 0 6013.47925993 0 -106.05537749 0 -1635.21629084 0 8932
0.09150000 0.09150830 19445.54901625 0 561.96588108 0 6537.55453825 0 -376.23427564 0 -1699.33612387 0 9285
0.09250000 0.09250820 19474.55850728 0 649.93771623 0 6800.85442243 0 337.72140822 0 -671.60736313 0 9204
0.09350000 0.09350330 18690.97007986 0 500.06383471 0 7002.09392601 0 601.68673913 0 -909.92476083 0 9349
0.09450000 0.09448040 18512.70565028 0 330.31845185 0 7096.40798882 0 605.94958419 0 -236.93446433 0 9564
0.09550000 0.09549270 18413.16545016 0 360.44514045 0 7312.05258699 0 10.50172363 0 -557.17931506 0 10155
0.09650000 0.09649430 17918.23253077 0 135.68912619 0 7005.36026183 0 92.33599198 0 195.40217393 0 9913
0.09750000 0.09749140 18126.50296061 0 -26.18184071 0 7230.40526377 0 -611.38831014 0 -11.69890768 0 10476
0.09850000 0.09850240 17768.97759221 0 116.78091709 0 6998.69472229 0 370.41909065 0 -1091.23075804 0 10575
0.09950000 0.09950330 17801.19805743 0 301.22481116 0 7031.88955210 0 549.68113669 0 -1036.49472030 0 10882
0.10050000 0.10051200 17300.72897563 0 354.16934674 0 6652.93923518 0 363.27190497 0 -1160.02532660 0 10875
0.10150000 0.10150300 17079.28247926 0 471.67217941 0 5981.53560283 0 639.88404529 0 -634.16518952 0 11118
0.10250000 0.10250800 16744.12320700 0 204.15373947 0 5966.74297687 0 1294.60943477 0 -492.90225502 0 11575
0.10350000 0.10349800 16715.00299272 0 -177.52369105 0 5310.87381624 0 1436.00302270 0 924.96651409 0 11364
0.10450000 0.10450100 16595.64333118 0 47.52529693 0 5283.04906397 0 698.32377568 0 -60.10124346 0 12093
0.10550000 0.10551000 16580.14207643 0 352.18740060 0 5000.30617740 0 305.66370618 0 622.72083459 0 12067
0.10650000 0.10649700 15888.34322176 0 474.02947737 0 5302.68029587 0 -242.64335501 0 714.85918557 0 12054
0.10750000 0.10749900 15690.92367025 0 405.84388667 0 4486.02990655 0 -119.77708819 0 934.22076318 0 12807
0.10850000 0.10850100 15465.38041369 0 72.75093167 0 4381.92790860 0 -115.13003346 0 106.03600092 0 12736
0.10950000 0.10950300 15395.62476733 0 -40.70795581 0 4379.44770784 0 139.53343736 0 62.79724383 0 12933
0.11050000 0.11050200 15423.63774913 0 84.19451154 0 4126.37865179 0 335.36853920 0 -589.91907232 0 13428
0.11150000 0.11150900 15413.67265679 0 120.32295380 0 4055.63756852 0 191.76048630 0 -1366.12558077 0 13453
0.11250000 0.11250000 15265.41422747 0 161.27505438 0 4178.13069799 0 -115.16214321 0 -702.35188745 0 13668
0.11350000 0.11349100 15167.75632257 0 320.62463147 0 4342.54364922 0 -196.93015476 0 -289.62101475 0 13791
0.11450000 0.11448600 14923.94373006 0 270.41163842 0 4537.41656603 0 424.31916786 0 -96.04976044 0 14205
0.11550000 0.11549300 14684.44934423 0 195.46971512 0 4897.45535216 0 -150.65558764 0 -90.60084795 0 14776
0.11650000 0.11649800 14801.48381757 0 371.05021316 0 5232.34888862 0 140.45133309 0 -243.17261213 0 14553
0.11750000 0.11747300 14196.49198948 0 402.19777011 0 4934.93517167 0 -51.16189129 0 884.59571057 0 14568
0.11850000 0.11849100 14225.94437349 0 280.51624205 0 5280.11489789 0 -148.41676357 0 756.67714194 0 16015
0.11950000 0.11950300 13979.14225329 0 -144.36429268 0 4944.84490238 0 435.76241556 0 809.37808638 0 15270
0.12050000 0.12050700 13969.95222369 0 58.25437968 0 5371.09619093 0 526.67506018 0 177.88464884 0 15999
0.12150000 0.12150000 13822.46885710 0 396.41026592 0 4833.51267633 0 -26.09492296 0 417.81528426 0 15670
0.12250000 0.12250700 13607.11213938 0 384.20524228 0 4795.35744501 0 164.28008333 0 251.05610740 0 16887
0.12350000 0.12352200 13263.98079325 0 98.57945450 0 4502.12906683 0 -12.89062200 0 909.96240673 0 16407
0.12450000 0.12449800 13239.73240190 0 144.24249711 0 4464.22849898 0 340.17835710 0 568.68899671 0 16306
0.12550000 0.12549900 13423.64371713 0 -128.99812030 0 4542.74235427 0 359.45084568 0 550.52263338 0 17523
0.12650000 0.12650100 13175.62364120 0 33.22871112 0 4308.24158694 0 470.50958531 0 117.51279777 0 17154
0.12750000 0.12750600 13229.76730956 0 269.05860033 0 4126.41186876 0 -21.40158592 0 -430.31926068 0 18007
0.12850000 0.12850300 13119.92984736 0 231.06502494 0 4259.41263449 0 -250.72283043 0 403.15331174 0 17496
0.12950000 0.12949900 12810.12619893 0 155.87618880 0 4242.48304984 0 -448.10473604 0 -215.98230407 0 18405
0.13050000 0.13049000 12878.77461281 0 169.94579194 0 4641.58499793 0 -2.98723573 0 -477.62687570 0 18100
0.13150000 0.13148800 12608.72061048 0 66.16323057 0 4460.71857201 0 -8.58189323 0 -274.02010908 0 19059
0.13250000 0.13249300 12628.76151840 0 241.88047183 0 4517.07670534 0 508.73235781 0 -275.00776045 0 18957
0.13350000 0.13349100 12592.44429300 0 -48.82651654 0 3923.14612974 0 703.46354887 0 -317.26639535 0 19468
0.13450000 0.13450700 12408.75442426 0 129.34357683 0 3850.35666638 0 764.17864201 0 -639.08683790 0 19953
0.13550000 0.13551000 12224.73238577 0 395.35175167 0 3415.82327888 0 101.61482162 0 -381.70400410 0 19956
0.13650000 0.13649900 11949.91728377 0 161.02592707 0 3535.76977364 0 24.26466767 0 -162.59044657 0 19723
0.13750000 0.13749600 11764.34511981 0 272.17545976 0 3232.43236291 0 117.66559585 0 457.56935929 0 20946
0.13850000 0.13851100 11749.84037430 0 22.79979910 0 3462.42669404 0 365.34907311 0 28.01231745 0 20955
0.13950000 0.13949800 11348.02570663 0 119.99078406 0 3342.76807972 0 398.83178336 0 397.45217169 0 20506
0.14050000 0.14048300 11475.80033504 0 437.97466606 0 3389.51543511 0 268.12741781 0 471.76961587 0 21447
0.14150000 0.14148400 10999.66822319 0 209.44188180 0 3441.28962596 0 68.33861023 0 1067.70760396 0 21771
0.14250000 0.14249400 10927.25521887 0 159.89876440 0 3592.63723391 0 12.19937676 0 1138.11319578 0 22470
0.14350000 0.14350900 10985.47350277 0 -57.22875023 0 3828.03485955 0 184.31988402 0 1238.62776049 0 22519
0.14450000 0.14449900 10968.97573879 0 -175.09553022 0 3046.71625872 0 165.41167493 0 981.56713134 0 22218
0.14550000 0.14550500 11051.94066866 0 -59.24435624 0 3401.99394518 0 -57.05856859 0 312.84189436 0 23559
0.14650000 0.14650700 11094.35874504 0 249.14170244 0 3179.76131374 0 -292.25179912 0 -71.70526131 0 23044
0.14750000 0.14750500 10851.09976877 0 315.07739674 0 3177.49148716 0 -342.34078214 0 69.90401551 0 23649
0.14850000 0.14849900 10534.11018154 0 330.05382329 0 3189.37209169 0 -250.67521943 0 -287.70328809 0 23640
0.14950000 0.14949500 10337.24424626 0 321.43844735 0 3402.49219980 0 -10.74667667 0 -568.42768984 0 24457
0.15050000 0.15050000 10148.39467415 0 125.29664211 0 3467.59746973 0 85.92666603 0 -846.46483836 0 24591
0.15150000 0.15149900 10178.24566187 0 47.93641235 0 3489.21064778 0 82.33303229 0 -447.02518437 0 25020
0.15250000 0.15250500 10002.10711865 0 99.68801566 0 3404.45200129 0 58.98670324 0 -183.03992327 0 25297
0.15350000 0.15350100 10051.92150801 0 27.21931755 0 3430.85949598 0 173.66166415 0 -339.70113990 0 25452
0.15450000 0.15450400 9924.61191724 0 71.28705960 0 3308.72068091 0 374.46048920 0 -204.96091195 0 26061
0.15550000 0.15549900 9824.61775181 0 273.42220354 0 3196.60231979 0 320.87708048 0 -120.02067934 0 26128
0.15650000 0.15649500 9716.12004091 0 80.95397423 0 2684.05333161 0 386.05099882 0 -185.11819864 0 26331
0.15750000 0.15749700 9581.41413717 0 -65.73860691 0 2651.10209295 0 305.58398544 0 -146.48132119 0 27345
0.15850000 0.15849900 9475.24161448 0 100.70379073 0 2450.05081890 0 81.90508693 0 -71.14378372 0 26980
0.15950000 0.15949700 9532.28623195 0 122.93934416 0 2514.56925561 0 9.71243296 0 -79.06392839 0 27777
0.16050000 0.16050000 9321.18128695 0 258.70154769 0 2522.22023206 0 -156.80847855 0 -120.15908340 0 28224
0.16150000 0.16150500 9192.59837883 0 277.44699361 0 2771.58005930 0 -433.23571104 0 102.84196738 0 28075
0.16250000 0.16249700 9016.43769097 0 303.62418394 0 2958.17087715 0 115.36919568 0 157.17940143 0 28590
0.16350000 0.16349900 8913.16611739 0 138.48378097 0 3025.21380393 0 -64.09713476 0 27.24456245 0 29163
0.16450000 0.16449100 8646.02413649 0 178.71507320 0 3225.12462853 0 336.56767198 0 596.96660706 0 28996
0.16550000 0.16550500 8712.87883374 0 5.94524052 0 2746.02513362 0 651.36161720 0 544.54689967 0 30777
0.16650000 0.16650700 8505.59384081 0 33.20125175 0 2603.67932575 0 701.09185689 0 499.30316600 0 29211
0.16750000 0.16749900 8606.37414131 0 -48.23735814 0 2444.14926977 0 445.97663521 0 824.91920150 0 30922
0.16850000 0.16850800 8604.55828004 0 -40.60409741 0 2112.37812890 0 480.01739063 0 645.16775870 0 30867
0.16950000 0.16949900 8599.62002317 0 -22.52564833 0 1874.62209807 0 -23.57929076 0 920.99044225 0 30852
0.17050000 0.17049200 8604.40326749 0 215.51505197 0 1955.22862275 0 -69.96004147 0 800.80367804 0 31257
0.17150000 0.17149500 8380.57622128 0 185.87443843 0 2039.03504930 0 -396.89523375 0 1014.21166660 0 32608
0.17250000 0.17250900 8281.91073483 0 209.62900409 0 2094.27487782 0 -10.88680802 0 658.14120169 0 32361
0.17350000 0.17350400 8212.05543754 0 166.37718165 0 2291.58370609 0 -193.94173429 0 472.61111256 0 32508
0.17450000 0.17449800 8032.41803969 0 13.84129181 0 2242.75475364 0 -196.13294737 0 318.60171773 0 32791
0.17550000 0.17549800 8055.01665464 0 184.84914115 0 2266.38309480 0 115.80655251 0 103.38019309 0 33633
0.17650000 0.17650100 7940.62846694 0 -61.97866685 0 1879.75965679 0 137.29793498 0 59.85344483 0 33984
0.17750000 0.17750300 7981.62928574 0 -28.69326543 0 1886.79058305 0 270.21344380 0 -182.34458128 0 34069
0.17850000 0.17849800 8010.36196865 0 77.34328911 0 1869.16344193 0 149.97906860 0 -212.97063172 0 34536
