### header ###
fiducial parameters:
Omega_m = 0.31
Omega_nu = 0
Omega_de = 0.69
Omega_k = 0
H_0 = 100
w_de = -1
zeff = 0
beta = 0
fgrowth = 0
b_1 = 2
gamma = 0.55
Lx = 3500 Ly = 3500 Lz = 3500
nx = 700 ny = 700 nz = 700
xoffset = -685.467585 yoffset = -31.7331281 zoffset = 572.489161
bins = 400 dk = 0.001
kx_ny = 0.628318531 ky_ny = 0.628318531 kz_ny = 0.628318531
############################
A(data) = 8.04803962 (not used)
A(ran) = 8.04167047 (used)
Ngal = 477476
weighted Ngal = 0
Nran = 23820508
weighted Nran = 0
SN(data) = 3494.61821
SN(ran) = 70.0458663
SN(data+ran) = 3564.66408
############################
13 columns: k_central k_mean P_0(k) sigma^{lin}_{P_0(k)} P^img_1(k) sigma^{lin}_{P_1(k)} P_2(k) sigma^{lin}_{P_2(k)} P^img_3(k) sigma^{lin}_{P_3(k)} P_4(k) sigma^{lin}_{P_4(k)} N_modes
### header ###
0.00050000 0 0 0 0 0 0 0 0 0 0 0 0
0.00150000 0.00179520 24787.50284826 0 -26785.72530828 0 11474.02876307 0 -58040.46235985 0 18581.90768040 0 3
0.00250000 0.00253879 33833.14933210 0 -8213.41733350 0 -6882.25815450 0 14779.56061443 0 36152.13704211 0 6
0.00350000 0.00331552 44797.96187675 0 -4368.89578229 0 10465.78286508 0 -36109.50859156 0 -14884.96914670 0 7
0.00450000 0.00420575 43169.44434243 0 -1461.05969377 0 -9957.97283192 0 -3058.64115255 0 6069.37235561 0 24
0.00550000 0.00557378 47366.51978818 0 -5796.49491046 0 -6541.80631098 0 2011.03313984 0 -19033.76925625 0 45
0.00650000 0.00659388 56827.59989922 0 -6584.19117038 0 21976.90391629 0 -34783.37624803 0 -3854.12125682 0 40
0.00750000 0.00754703 57259.64201364 0 7110.94595130 0 6523.43732410 0 -32241.61336266 0 -28445.57752184 0 57
0.00850000 0.00846663 47134.66530648 0 3127.68817012 0 19503.78944480 0 -8811.26751208 0 5495.94772558 0 75
0.00950000 0.00948925 49849.04573577 0 2362.85626095 0 17822.23547459 0 -20608.69673845 0 -7890.29367831 0 112
0.01050000 0.01054430 48326.60107321 0 1170.03470824 0 31879.21617135 0 4635.77202740 0 -15222.56433042 0 105
0.01150000 0.01145670 49821.25420048 0 -4965.92660884 0 22276.85319563 0 3235.57690315 0 -20769.68834131 0 144
0.01250000 0.01249090 61671.63128413 0 -6681.05186790 0 15490.62531428 0 3412.66766630 0 -30622.95019743 0 169
0.01350000 0.01339930 61861.96454776 0 -2422.35893452 0 6227.33014148 0 -5946.28132061 0 -26217.60432183 0 180
0.01450000 0.01448870 60760.37895156 0 6088.57176685 0 13837.63794210 0 -7588.19636796 0 -22744.99108896 0 267
0.01550000 0.01550050 63977.33220436 0 -143.64237710 0 16009.69590178 0 -7554.53650051 0 -24177.41775075 0 238
0.01650000 0.01653350 65961.93570486 0 -12356.38232786 0 18260.25664442 0 13082.94828246 0 -18886.83950590 0 315
0.01750000 0.01747870 69678.25080699 0 -8566.28125314 0 16678.79649057 0 13955.33675493 0 -18512.15203404 0 297
0.01850000 0.01844180 79486.11613135 0 -991.51118626 0 15198.42666231 0 1063.58316296 0 -10592.38382706 0 388
0.01950000 0.01947590 82223.63771951 0 -230.82364826 0 20673.80200838 0 11468.49260066 0 17148.37378613 0 399
0.02050000 0.02045430 75109.11540729 0 2828.66896607 0 20201.89952461 0 1076.67175813 0 21477.43134372 0 462
0.02150000 0.02154770 78239.15091027 0 5181.72621955 0 20628.51619988 0 15999.50936294 0 34524.83746352 0 571
0.02250000 0.02255340 74755.02245959 0 80.48650068 0 18791.61751246 0 14634.84532905 0 27493.02541769 0 510
0.02350000 0.02348930 72650.28423481 0 -566.19329469 0 19480.42683943 0 4064.07468003 0 25217.88411396 0 555
0.02450000 0.02439640 71919.17862704 0 4417.52543290 0 16962.69089892 0 2708.10242112 0 22864.68292025 0 592
0.02550000 0.02547300 65886.09027985 0 5696.13535830 0 18789.62449399 0 -8561.98519111 0 16171.13039763 0 837
0.02650000 0.02652900 59850.23385146 0 6809.01472583 0 21124.22418201 0 -5522.68739002 0 14662.41541784 0 723
0.02750000 0.02749970 57685.81579591 0 5301.47341247 0 28994.21121660 0 1103.14347231 0 14119.31788549 0 826
0.02850000 0.02848090 54143.22547019 0 3189.62675516 0 32681.07393472 0 -3223.18697168 0 8465.57845892 0 831
0.02950000 0.02946900 53064.11669336 0 3024.19515004 0 37445.38458093 0 234.28264254 0 12270.79325702 0 996
0.03050000 0.03053250 51346.13477450 0 625.17224731 0 41310.29028213 0 -815.64170053 0 12311.09651936 0 1041
0.03150000 0.03150510 53046.40097365 0 -127.63843881 0 45248.05188063 0 6775.44343697 0 17519.73956054 0 1036
0.03250000 0.03246190 54116.65189062 0 -274.26037853 0 41146.53059806 0 10080.06735770 0 14930.36567846 0 1059
0.03350000 0.03345080 54599.84814571 0 -1670.65880259 0 33093.85020396 0 9994.46721453 0 17345.57189115 0 1302
0.03450000 0.03451200 55362.50987922 0 -770.77221144 0 29249.09613393 0 8520.88472139 0 3496.65125005 0 1339
0.03550000 0.03553350 53759.12652223 0 1363.06961912 0 18993.68744040 0 2192.60819454 0 2881.49502778 0 1365
0.03650000 0.03647120 53813.82380683 0 1942.68367873 0 21405.01833941 0 -635.17720001 0 -1862.43146845 0 1308
0.03750000 0.03744890 49311.48436583 0 2662.63945541 0 19226.64915459 0 -5034.87397548 0 379.15847662 0 1579
0.03850000 0.03847530 48063.07974252 0 3642.87237161 0 21747.04245306 0 -1140.85913234 0 -3124.82043799 0 1662
0.03950000 0.03950240 47220.47582383 0 2050.66099036 0 23802.28738589 0 -886.57322779 0 -1780.44090316 0 1683
0.04050000 0.04050350 45173.20296486 0 1168.93854808 0 22267.55244278 0 -12.23646905 0 2142.02981477 0 1822
0.04150000 0.04152450 46698.52643187 0 2331.73195588 0 26793.58665890 0 3786.01538686 0 -4156.75003877 0 1887
0.04250000 0.04250150 43118.95454125 0 1457.33939263 0 22111.76483258 0 2074.28933153 0 4626.94738452 0 1920
0.04350000 0.04349210 43865.67212702 0 150.05436041 0 22609.13366343 0 4757.04720113 0 -875.31599514 0 2005
0.04450000 0.04448520 41772.00622707 0 -416.27290942 0 16800.48134032 0 5010.08304021 0 -3823.60592962 0 2151
0.04550000 0.04548030 42633.21165146 0 674.50277607 0 19390.18739216 0 3828.45560789 0 -4515.29406104 0 2274
0.04650000 0.04648670 42057.89365388 0 183.48503073 0 12685.45182147 0 667.99446354 0 -6981.58798045 0 2311
0.04750000 0.04749250 41828.80725339 0 -535.56724425 0 14637.39196375 0 -406.32331833 0 -3253.56943098 0 2568
0.04850000 0.04851840 42773.71945341 0 706.45086210 0 14835.14368502 0 -667.71211926 0 -3302.78591480 0 2493
0.04950000 0.04949480 41692.50693487 0 726.25592950 0 16065.83258861 0 4183.83294527 0 769.97721852 0 2644
0.05050000 0.05050630 42115.46974294 0 339.55609245 0 14803.47683603 0 3341.25117122 0 -1042.09953112 0 2829
0.05150000 0.05149060 41407.06240104 0 -754.44385403 0 13459.85021929 0 4949.42884486 0 2540.68886986 0 2784
0.05250000 0.05249300 40958.30107614 0 1362.44956893 0 11542.23428395 0 1424.22206910 0 -110.74982177 0 3055
0.05350000 0.05348950 39639.14429725 0 2191.41238346 0 11924.67238319 0 -1210.18295803 0 279.31821650 0 3009
0.05450000 0.05448610 37086.86270330 0 2524.63399887 0 12348.18880750 0 -1357.57774601 0 -790.75886497 0 3336
0.05550000 0.05550870 34320.33162412 0 2052.43256233 0 12736.82740863 0 -2209.19453712 0 -2402.24052033 0 3349
0.05650000 0.05647670 33200.14452221 0 1020.77866245 0 12615.25328212 0 463.78093352 0 -2060.55964875 0 3324
0.05750000 0.05747970 33024.09455760 0 51.21127386 0 12615.25328212 0 2334.90971311 0 -1606.91542861 0 3639
0.05850000 0.05849280 32958.76784117 0 -266.47210525 0 12033.40261290 0 976.42292922 0 -4082.56546248 0 3846
0.05950000 0.05951020 33129.39236662 0 390.42124543 0 10950.03099102 0 1147.46931026 0 -2937.50991904 0 3787
0.06050000 0.06049470 33402.76806640 0 142.42774307 0 10111.13630114 0 3375.16570214 0 -586.41800321 0 3930
0.06150000 0.06148310 32425.96757089 0 -194.15100123 0 8524.69360112 0 1776.06733486 0 -242.61788866 0 4083
0.06250000 0.06249100 32137.97640236 0 620.63480859 0 9122.86487713 0 3222.60013847 0 317.15677934 0 4303
0.06350000 0.06350600 32733.33530786 0 445.32447528 0 7859.15830092 0 2606.41418998 0 -48.83260632 0 4470
0.06450000 0.06451750 31410.19249203 0 -327.62898415 0 7238.95309853 0 1265.95425814 0 1200.16250407 0 4479
0.06550000 0.06550280 31361.80643257 0 606.59399349 0 7413.60795022 0 -603.28779730 0 1265.13490610 0 4636
0.06650000 0.06648880 31081.89806116 0 1149.22980990 0 9696.93170200 0 -1279.19675862 0 2729.10662130 0 4653
0.06750000 0.06749660 30789.25651620 0 1373.20079633 0 9116.59794128 0 -1311.69403197 0 3177.46934251 0 5220
0.06850000 0.06852730 29808.24853727 0 844.33673753 0 10647.94475300 0 -411.01687683 0 2977.01597399 0 5029
0.06950000 0.06949320 29661.87240317 0 -301.87697109 0 10094.52781391 0 -43.31072721 0 429.86086643 0 5040
0.07050000 0.07048030 29328.81687262 0 -157.27573065 0 10206.07041413 0 1414.87702695 0 1335.27808383 0 5475
0.07150000 0.07148790 29427.02839376 0 414.49690852 0 9295.31633618 0 439.46610821 0 367.52367771 0 5509
0.07250000 0.07249820 29029.19976303 0 409.07146935 0 9855.84170780 0 -201.47202240 0 -1268.43445890 0 5916
0.07350000 0.07351270 28539.24938981 0 538.70846280 0 10336.92314884 0 -529.09879209 0 -1778.39252307 0 5721
0.07450000 0.07449140 27486.93563904 0 1807.00341040 0 9800.39150510 0 -1126.87478609 0 1268.62268842 0 6028
0.07550000 0.07549160 26887.36925011 0 1206.04190855 0 9815.66024103 0 1441.88242718 0 1475.55336696 0 6183
0.07650000 0.07648840 25653.69081882 0 -252.87529037 0 9932.42897857 0 2845.70927397 0 2182.25557083 0 6330
0.07750000 0.07749960 26399.85478835 0 -213.16661187 0 9243.20997558 0 2020.62177313 0 1044.59855483 0 6583
0.07850000 0.07848650 26476.47527609 0 -5.63106331 0 8753.27067468 0 1187.86115119 0 -39.62607895 0 6549
0.07950000 0.07947320 26088.83318419 0 38.17494006 0 7497.77976349 0 53.98555556 0 955.85054971 0 6828
0.08050000 0.08048110 26041.55435722 0 269.00656040 0 8374.14320056 0 -902.84733080 0 1215.38695069 0 7147
0.08150000 0.08149960 25315.87418860 0 786.25796493 0 7929.73329932 0 -61.50587858 0 77.99035577 0 7386
0.08250000 0.08250610 25312.22032141 0 720.55036053 0 8371.09831124 0 -1155.60746900 0 -60.18428589 0 7227
0.08350000 0.08350160 23749.69384300 0 1429.02745807 0 9958.17213377 0 -245.88533171 0 386.23479942 0 7798
0.08450000 0.08449610 23550.39199627 0 1199.59781550 0 10267.28929806 0 199.90196674 0 1143.17324823 0 7371
0.08550000 0.08548940 22451.13158827 0 711.03591181 0 10707.51386052 0 1135.46691015 0 3377.75662615 0 8256
0.08650000 0.08650700 22112.76134181 0 -133.28421724 0 9396.57274664 0 2182.86454870 0 1587.15132880 0 8037
0.08750000 0.08749060 22046.99173239 0 -132.34417686 0 8629.69245738 0 1638.33868644 0 2594.09069246 0 8155
0.08850000 0.08849210 21999.04856593 0 358.96698509 0 8472.91941027 0 897.73745290 0 1523.15329135 0 8718
0.08950000 0.08949900 21149.24763610 0 1041.71089252 0 7360.43864644 0 335.67524260 0 833.69069722 0 8571
0.09050000 0.09049190 20252.16787929 0 1335.12307128 0 7407.51817157 0 -824.24046799 0 1625.64980220 0 8932
0.09150000 0.09150830 19143.05310221 0 1009.39520530 0 6951.23873812 0 -762.84221240 0 1336.81713698 0 9285
0.09250000 0.09250820 18928.25000072 0 -246.00159112 0 7296.75063409 0 -197.58231469 0 78.63133266 0 9204
0.09350000 0.09350330 19181.25262283 0 -105.82750904 0 7770.90079980 0 192.12698025 0 -1185.25915486 0 9349
0.09450000 0.09448040 19419.08615993 0 185.47140580 0 7569.28483717 0 -556.18391306 0 -1867.73511203 0 9564
0.09550000 0.09549270 18992.13731493 0 776.40581031 0 7401.89343056 0 -924.08737150 0 -1233.20232133 0 10155
0.09650000 0.09649430 18564.41340718 0 423.64929221 0 8589.23418249 0 -800.42279007 0 -1131.79089831 0 9913
0.09750000 0.09749140 18503.73706718 0 220.90727415 0 8677.36988805 0 369.24763868 0 -809.60396181 0 10476
0.09850000 0.09850240 18383.27017315 0 189.20499373 0 8811.28965673 0 835.15556579 0 -716.72487230 0 10575
0.09950000 0.09950330 18114.65557305 0 -169.28145245 0 8098.49767420 0 1564.96238987 0 -263.72506146 0 10882
0.10050000 0.10051200 18340.30955285 0 87.73676969 0 8897.11124640 0 754.71512599 0 -435.07260973 0 10875
0.10150000 0.10150300 17874.60757098 0 360.00999808 0 7969.90369376 0 1105.37676023 0 640.27046943 0 11118
0.10250000 0.10250800 17809.17013130 0 64.55508611 0 7430.61504114 0 769.34609600 0 484.83163746 0 11575
0.10350000 0.10349800 17132.09746864 0 423.71240446 0 6865.07390638 0 534.03594172 0 1105.00473011 0 11364
0.10450000 0.10450100 17065.88496623 0 493.28535746 0 6229.62211271 0 1193.74055567 0 34.69745501 0 12093
0.10550000 0.10551000 16149.09647124 0 452.15499246 0 5639.19039176 0 249.92230134 0 186.73586530 0 12067
0.10650000 0.10649700 16205.34388132 0 211.50354869 0 5361.40790671 0 347.80386720 0 -999.28949444 0 12054
0.10750000 0.10749900 15893.10432144 0 133.89208787 0 5245.75747398 0 -56.57825114 0 -100.43141154 0 12807
0.10850000 0.10850100 15485.97493786 0 446.47599706 0 5159.85837804 0 -4.93102664 0 79.63526035 0 12736
0.10950000 0.10950300 15472.13453183 0 329.05952852 0 5653.19688266 0 397.50421162 0 18.04002810 0 12933
0.11050000 0.11050200 15090.80366508 0 289.11390227 0 6005.40753514 0 -222.79732000 0 156.11313655 0 13428
0.11150000 0.11150900 15161.22365092 0 303.17796925 0 5977.50527659 0 73.79549479 0 929.03227177 0 13453
0.11250000 0.11250000 14925.49385554 0 179.94853019 0 5845.70032195 0 -136.78639358 0 946.87200152 0 13668
0.11350000 0.11349100 14742.02543329 0 171.78601233 0 6144.86346623 0 449.18428771 0 1240.36611548 0 13791
0.11450000 0.11448600 14788.41847428 0 -28.29621186 0 5751.30875287 0 535.77872565 0 902.81632830 0 14205
0.11550000 0.11549300 14746.67580971 0 -13.55385426 0 5371.27334812 0 964.31423480 0 1026.45765785 0 14776
0.11650000 0.11649800 14726.74562504 0 12.58513656 0 4875.38820880 0 401.44817372 0 939.39153887 0 14553
0.11750000 0.11747300 14932.80158992 0 159.53227045 0 4769.61428980 0 273.73887203 0 924.70520723 0 14568
0.11850000 0.11849100 14467.87467078 0 268.71867995 0 4541.38045832 0 -191.24230150 0 789.43904385 0 16015
0.11950000 0.11950300 14212.32541397 0 275.61784555 0 4599.16692155 0 -104.34658560 0 1357.67739694 0 15270
0.12050000 0.12050700 14058.19865249 0 -63.80615406 0 4268.22620504 0 568.49301656 0 1324.46042248 0 15999
0.12150000 0.12150000 14092.85502917 0 -139.17801574 0 4126.64438758 0 1136.30840684 0 1316.11188957 0 15670
0.12250000 0.12250700 14370.99182862 0 -21.09643265 0 3507.80108115 0 887.37375687 0 235.40759074 0 16887
0.12350000 0.12352200 14060.52384070 0 245.42472300 0 3236.87236516 0 400.95656250 0 627.46532578 0 16407
0.12450000 0.12449800 13753.48827348 0 548.55508126 0 3572.37487949 0 -556.44743439 0 594.18302460 0 16306
0.12550000 0.12549900 13478.34100174 0 265.80665853 0 3377.76769848 0 -404.78537242 0 208.12870408 0 17523
0.12650000 0.12650100 13069.88293918 0 151.90233142 0 3470.35447861 0 -378.72665596 0 268.87037080 0 17154
0.12750000 0.12750600 13182.37775934 0 231.31858118 0 3541.74882904 0 -200.63716911 0 -452.34211475 0 18007
0.12850000 0.12850300 12977.65047344 0 64.67920687 0 3361.21457287 0 202.16404270 0 -826.89450425 0 17496
0.12950000 0.12949900 12670.61490622 0 209.56257015 0 3172.77467678 0 -58.15406441 0 -826.16040911 0 18405
0.13050000 0.13049000 12765.06183692 0 288.24693924 0 3285.67917296 0 314.38205474 0 -840.48689019 0 18100
0.13150000 0.13148800 12518.14899347 0 44.06475253 0 3307.25913403 0 404.32919263 0 -951.82575964 0 19059
0.13250000 0.13249300 12458.69060919 0 147.32392511 0 3234.19286255 0 133.81568883 0 -404.29929736 0 18957
0.13350000 0.13349100 12147.89045153 0 196.99880317 0 3377.29158851 0 601.92811581 0 -128.56851410 0 19468
0.13450000 0.13450700 12333.24116899 0 -18.35348562 0 3157.56130248 0 285.74791552 0 270.58325945 0 19953
0.13550000 0.13551000 12084.66747682 0 53.87472159 0 3475.86849637 0 462.07136656 0 567.79435286 0 19956
0.13650000 0.13649900 12234.47603161 0 277.78137782 0 3154.26174969 0 37.69672635 0 54.00393562 0 19723
0.13750000 0.13749600 11786.04687646 0 212.26200294 0 3169.90694466 0 -81.27330008 0 834.52444328 0 20946
0.13850000 0.13851100 11676.43086075 0 305.17098772 0 3181.46645177 0 -23.17825116 0 482.94823501 0 20955
0.13950000 0.13949800 11297.97879845 0 337.87863524 0 3245.64164641 0 56.37828496 0 1026.40893962 0 20506
0.14050000 0.14048300 11191.35231045 0 245.77903739 0 3244.34618441 0 366.18614087 0 594.95919457 0 21447
0.14150000 0.14148400 10815.73476330 0 138.17043418 0 2699.26670591 0 488.18987358 0 1332.03389266 0 21771
0.14250000 0.14249400 10878.48162805 0 282.34760457 0 2899.98581023 0 423.71019000 0 1179.62334153 0 22470
0.14350000 0.14350900 10794.98522659 0 68.32166957 0 2807.48760869 0 46.65744811 0 1440.80841168 0 22519
0.14450000 0.14449900 10781.90881098 0 -51.59969101 0 3007.58666281 0 -182.18513980 0 1723.75060009 0 22218
0.14550000 0.14550500 10840.49248159 0 -5.81565003 0 2850.30428876 0 63.14701857 0 1746.06133460 0 23559
0.14650000 0.14650700 10687.15185518 0 -15.25954590 0 3138.11830010 0 -196.59134162 0 1485.76205044 0 23044
0.14750000 0.14750500 10701.68981767 0 258.88977721 0 2842.09969607 0 179.99171225 0 1004.46248460 0 23649
0.14850000 0.14849900 10647.76759580 0 58.07644742 0 3163.08639257 0 91.42175012 0 1168.68388461 0 23640
0.14950000 0.14949500 10322.65092215 0 236.89238949 0 2731.11071209 0 126.72275755 0 713.80067132 0 24457
0.15050000 0.15050000 10397.59948885 0 164.80380430 0 2920.62462369 0 -36.87969951 0 1009.08185851 0 24591
0.15150000 0.15149900 10091.39434599 0 232.27412281 0 2924.47779272 0 -5.06786950 0 1135.72157362 0 25020
0.15250000 0.15250500 10038.22504221 0 165.76931102 0 2804.73059981 0 57.47555235 0 1328.33573617 0 25297
0.15350000 0.15350100 10031.51521337 0 101.50232680 0 2698.89024687 0 -48.48770340 0 1009.10953932 0 25452
0.15450000 0.15450400 9961.33881867 0 -19.47655153 0 2987.04750028 0 134.89191880 0 764.69571958 0 26061
0.15550000 0.15549900 9881.13089768 0 57.70020982 0 2919.66133143 0 -255.68544641 0 360.39531499 0 26128
0.15650000 0.15649500 9686.59015062 0 222.84935993 0 2829.98657272 0 -61.73662583 0 387.00986215 0 26331
0.15750000 0.15749700 9623.92079214 0 170.45401165 0 2793.65827499 0 17.88457266 0 8.21206651 0 27345
0.15850000 0.15849900 9467.30275758 0 131.99096970 0 2726.67070984 0 163.60910045 0 73.33289306 0 26980
0.15950000 0.15949700 9244.82653500 0 268.71757272 0 2838.22438239 0 -132.06515427 0 126.56110161 0 27777
0.16050000 0.16050000 9144.45591052 0 112.83252606 0 2739.27101548 0 143.31795799 0 -223.37972429 0 28224
0.16150000 0.16150500 9078.48699925 0 47.72327009 0 2539.40448018 0 -14.10890990 0 74.80462647 0 28075
0.16250000 0.16249700 9099.04830644 0 69.98761156 0 2941.06413530 0 -154.76784908 0 -4.05095398 0 28590
0.16350000 0.16349900 9036.23500775 0 16.98804652 0 2801.26496214 0 66.96331676 0 -200.07026608 0 29163
0.16450000 0.16449100 9005.56466800 0 46.77116088 0 3030.36243497 0 123.64243678 0 93.64695523 0 28996
0.16550000 0.16550500 8884.42236216 0 179.59864472 0 2484.17572399 0 151.92226160 0 -235.86266329 0 30777
0.16650000 0.16650700 8827.57704654 0 123.72437199 0 2681.68385410 0 165.08393412 0 -188.45207565 0 29211
0.16750000 0.16749900 8710.45399461 0 198.82462954 0 2566.88599038 0 116.42881717 0 -377.44337351 0 30922
0.16850000 0.16850800 8573.09073291 0 170.51712390 0 2352.48149259 0 23.02213138 0 -352.38448798 0 30867
0.16950000 0.16949900 8289.80530242 0 236.39856381 0 2279.45951041 0 3.36251003 0 -479.86237808 0 30852
0.17050000 0.17049200 8296.64799916 0 124.54372403 0 2169.50025264 0 154.62280163 0 -307.00456471 0 31257
0.17150000 0.17149500 8098.76341000 0 65.84002941 0 2211.98476297 0 201.63257111 0 -418.35339925 0 32608
0.17250000 0.17250900 7991.98190945 0 84.90369394 0 1873.44843164 0 239.77673011 0 -476.01917414 0 32361
0.17350000 0.17350400 8041.61914161 0 30.12580281 0 1951.46403231 0 354.05862349 0 -134.12239223 0 32508
0.17450000 0.17449800 8046.61276010 0 -61.43335485 0 1709.26799923 0 298.67264029 0 -365.11655429 0 32791
0.17550000 0.17549800 8049.79051733 0 -39.66383558 0 1781.14953195 0 247.19186604 0 -112.61661573 0 33633
0.17650000 0.17650100 8013.46221960 0 104.76689105 0 1711.71498301 0 47.78660379 0 -182.84283589 0 33984
0.17750000 0.17750300 7937.65001156 0 174.90619346 0 1735.06651606 0 -170.06980198 0 -43.40683499 0 34069
0.17850000 0.17849800 7794.14160959 0 204.55677209 0 1782.04639026 0 -82.97201615 0 134.99489142 0 34536
