### header ###
fiducial parameters:
Omega_m = 0.31
Omega_nu = 0
Omega_de = 0.69
Omega_k = 0
H_0 = 100
w_de = -1
zeff = 0
beta = 0
fgrowth = 0
b_1 = 2
gamma = 0.55
Lx = 3500 Ly = 3500 Lz = 3500
nx = 700 ny = 700 nz = 700
xoffset = -685.467585 yoffset = -31.7331281 zoffset = 572.489161
bins = 400 dk = 0.001
kx_ny = 0.628318531 ky_ny = 0.628318531 kz_ny = 0.628318531
############################
A(data) = 8.00750064 (not used)
A(ran) = 8.00235658 (used)
Ngal = 476442
weighted Ngal = 0
Nran = 23820508
weighted Nran = 0
SN(data) = 3490.04954
SN(ran) = 69.703428
SN(data+ran) = 3559.75297
############################
13 columns: k_central k_mean P_0(k) sigma^{lin}_{P_0(k)} P^img_1(k) sigma^{lin}_{P_1(k)} P_2(k) sigma^{lin}_{P_2(k)} P^img_3(k) sigma^{lin}_{P_3(k)} P_4(k) sigma^{lin}_{P_4(k)} N_modes
### header ###
0.00050000 0 0 0 0 0 0 0 0 0 0 0 0
0.00150000 0.00179520 1146.25135453 0 -3728.60538268 0 860.43700505 0 -13126.46251900 0 -5839.75448353 0 3
0.00250000 0.00253879 6074.11131064 0 -9377.99338560 0 -11343.59677670 0 15299.29554141 0 -474.83000645 0 6
0.00350000 0.00331552 5566.62237490 0 -5396.61789963 0 219.12130816 0 -873.14692671 0 4244.49821295 0 7
0.00450000 0.00420575 19554.72213896 0 -20227.36587170 0 -33281.52610963 0 30311.37497703 0 -1852.42208681 0 24
0.00550000 0.00557378 56768.80585443 0 -47085.72563078 0 -51203.41250759 0 3497.57025301 0 -55056.91371422 0 45
0.00650000 0.00659388 90632.51480303 0 -42691.23063351 0 -68229.65855097 0 -51947.02984241 0 -45532.16773548 0 40
0.00750000 0.00754703 104966.74651325 0 -2493.16645174 0 -35837.35084752 0 -99415.30429568 0 -38651.49292343 0 57
0.00850000 0.00846663 104586.96577197 0 24430.08820311 0 10228.15970215 0 -100145.63484071 0 11256.78975012 0 75
0.00950000 0.00948925 94939.09554124 0 -3417.27375343 0 35108.23825821 0 -40491.49186179 0 14361.35890603 0 112
0.01050000 0.01054430 99080.25574666 0 9381.10470887 0 68142.96224764 0 8395.55707676 0 31173.57691066 0 105
0.01150000 0.01145670 100793.80873560 0 8887.94336145 0 73434.86917146 0 23724.33821917 0 -22599.50074084 0 144
0.01250000 0.01249090 96121.39838538 0 15691.92017948 0 76144.26705458 0 33970.00326686 0 9415.17425234 0 169
0.01350000 0.01339930 73314.18083094 0 15357.42524671 0 62115.63150936 0 9860.96819419 0 31265.14503691 0 180
0.01450000 0.01448870 73175.88749395 0 17555.06027672 0 85942.94234934 0 33785.31688888 0 25258.07665305 0 267
0.01550000 0.01550050 60084.85641437 0 -1417.16899819 0 53049.94411759 0 33322.27226496 0 36521.95269106 0 238
0.01650000 0.01653350 66283.03312460 0 -11102.66298865 0 51737.65218009 0 33786.75629111 0 3364.39233009 0 315
0.01750000 0.01747870 69453.37188992 0 -6801.38589403 0 35315.18000907 0 10950.81712609 0 -566.74912540 0 297
0.01850000 0.01844180 85736.22204498 0 1419.98136869 0 52473.51888754 0 -11390.10054094 0 -16564.19792869 0 388
0.01950000 0.01947590 74543.20888581 0 8004.61543207 0 34587.06392900 0 -16085.98421978 0 -18006.14678983 0 399
0.02050000 0.02045430 72376.24419555 0 9402.10890905 0 55357.97022604 0 -4262.38001754 0 1844.23963877 0 462
0.02150000 0.02154770 72662.46379211 0 -246.12006500 0 51566.14186865 0 -1278.13381544 0 -19645.51520248 0 571
0.02250000 0.02255340 71436.20381845 0 -4030.70269303 0 52898.58543732 0 26621.74417771 0 -566.71369396 0 510
0.02350000 0.02348930 72906.16566137 0 3161.14873572 0 51520.63461364 0 16987.49290651 0 -13123.80516105 0 555
0.02450000 0.02439640 72629.68971065 0 2301.64844935 0 42866.28408889 0 26394.98296543 0 7358.78887005 0 592
0.02550000 0.02547300 69200.03709807 0 -2258.41102093 0 34931.41323086 0 20848.41257077 0 -47.17817954 0 837
0.02650000 0.02652900 68263.98275790 0 2549.59101902 0 26160.58184902 0 7145.39195382 0 13776.96160210 0 723
0.02750000 0.02749970 69177.22810895 0 1917.85952649 0 26460.42040510 0 3352.53387021 0 -1047.37770836 0 826
0.02850000 0.02848090 63312.10692926 0 2760.58524076 0 16743.45886751 0 2729.04018735 0 11534.81582632 0 831
0.02950000 0.02946900 63651.47368495 0 -1879.99217561 0 16063.72884689 0 1058.37584860 0 7682.86474516 0 996
0.03050000 0.03053250 64762.36003401 0 969.53594319 0 11236.63811896 0 4159.49597532 0 -2530.15908896 0 1041
0.03150000 0.03150510 63453.38979395 0 2054.15984500 0 9057.30564188 0 -513.91752753 0 -5091.58642320 0 1036
0.03250000 0.03246190 60830.02387466 0 4343.03083152 0 9228.56128985 0 -1534.80137706 0 -11746.74012335 0 1059
0.03350000 0.03345080 53642.86711163 0 6310.72689201 0 9636.84219521 0 -6837.58132386 0 -10018.26164056 0 1302
0.03450000 0.03451200 49799.55244383 0 5226.85701551 0 15883.91429184 0 -4065.25941879 0 -12482.38538430 0 1339
0.03550000 0.03553350 45213.61695045 0 3243.12822868 0 16788.52322952 0 -8231.32128273 0 -10935.96913850 0 1365
0.03650000 0.03647120 47338.39608314 0 -31.54760004 0 21889.98616646 0 -1280.51436528 0 -10562.49962237 0 1308
0.03750000 0.03744890 46804.71002689 0 -1047.33009736 0 22657.29827640 0 -4476.18660978 0 -6705.26704227 0 1579
0.03850000 0.03847530 50029.74607681 0 -1366.91171584 0 25013.59972105 0 3655.19586913 0 -4957.15732758 0 1662
0.03950000 0.03950240 50915.75350880 0 -1538.58811215 0 27253.64175511 0 4728.59132635 0 -4634.07796170 0 1683
0.04050000 0.04050350 51580.86806066 0 525.16700954 0 22291.69011088 0 4810.51545768 0 -2780.07253244 0 1822
0.04150000 0.04152450 49947.25725691 0 2201.45498207 0 21993.73385001 0 8121.37309728 0 -5503.77585923 0 1887
0.04250000 0.04250150 47957.67121025 0 3360.04090644 0 19315.78136938 0 2845.10029610 0 2938.70573012 0 1920
0.04350000 0.04349210 44405.00506894 0 2885.54749866 0 18053.31489355 0 4607.82547955 0 49.72691799 0 2005
0.04450000 0.04448520 42413.42600381 0 1829.63524233 0 15619.72862166 0 3079.91108853 0 3481.02819973 0 2151
0.04550000 0.04548030 40177.14856019 0 1827.40970504 0 14433.88263359 0 1669.99446310 0 4256.99886767 0 2274
0.04650000 0.04648670 39013.77939149 0 1116.72146423 0 14428.90008742 0 3366.45178251 0 3274.67328209 0 2311
0.04750000 0.04749250 37879.53043707 0 1014.96126299 0 14558.88918079 0 -834.76803442 0 4124.48528425 0 2568
0.04850000 0.04851840 38089.46171563 0 -222.44300561 0 15742.96359690 0 -540.55421934 0 2112.84316654 0 2493
0.04950000 0.04949480 37354.14862443 0 339.39554374 0 18425.89862370 0 -4336.30993035 0 2734.57634976 0 2644
0.05050000 0.05050630 38275.14460284 0 1156.22751919 0 18443.28217367 0 -1977.09646427 0 -253.77436315 0 2829
0.05150000 0.05149060 35605.27491932 0 895.95037968 0 17070.86751240 0 228.87270463 0 881.99703594 0 2784
0.05250000 0.05249300 36684.16224965 0 1098.71564961 0 17336.16041505 0 2773.80559659 0 1304.12056179 0 3055
0.05350000 0.05348950 35825.61418321 0 -177.30556625 0 16213.53740169 0 4251.68415176 0 -995.94122341 0 3009
0.05450000 0.05448610 35493.55516190 0 768.64521784 0 14220.62965758 0 5263.62820624 0 -2483.71068634 0 3336
0.05550000 0.05550870 34188.79240527 0 857.18063432 0 11235.30943998 0 3178.08939270 0 -1363.51251212 0 3349
0.05650000 0.05647670 33810.11889647 0 -75.03814181 0 11265.20471699 0 1289.46080373 0 -229.56029600 0 3324
0.05750000 0.05747970 32865.98175919 0 454.37167189 0 9941.44185097 0 738.23950666 0 146.32630864 0 3639
0.05850000 0.05849280 33509.72672414 0 260.67352874 0 11310.49052550 0 -1365.00727597 0 1166.29226245 0 3846
0.05950000 0.05951020 33159.50909013 0 1011.12802414 0 10450.32589963 0 -1124.18421116 0 -826.62544675 0 3787
0.06050000 0.06049470 32425.74612440 0 639.05804986 0 14277.31996065 0 -1072.47202533 0 -1113.30011587 0 3930
0.06150000 0.06148310 31721.10337294 0 1106.18171824 0 11744.85782813 0 -911.27004829 0 -939.29410241 0 4083
0.06250000 0.06249100 32003.22620932 0 -222.29131476 0 13121.36924959 0 1264.31555407 0 135.14326057 0 4303
0.06350000 0.06350600 31935.79575117 0 -102.57612086 0 12537.52556190 0 1322.97673096 0 -1506.14620043 0 4470
0.06450000 0.06451750 31552.80403570 0 1430.12361823 0 10994.88497886 0 1082.89772638 0 253.52745030 0 4479
0.06550000 0.06550280 30647.19858878 0 521.34705748 0 10160.40814658 0 588.88602441 0 575.97126474 0 4636
0.06650000 0.06648880 30475.79900059 0 270.21233657 0 10392.61694268 0 1163.19201150 0 721.63101943 0 4653
0.06750000 0.06749660 29497.00548662 0 465.46835582 0 9227.44298504 0 2032.63524556 0 1747.61146008 0 5220
0.06850000 0.06852730 29423.92814282 0 600.50532207 0 8937.10448364 0 1959.28109363 0 2088.49512427 0 5029
0.06950000 0.06949320 29670.84098627 0 -790.10670504 0 8259.57785567 0 1984.38205400 0 1423.56880193 0 5040
0.07050000 0.07048030 29705.16519321 0 -433.07405510 0 8694.22196642 0 672.05247059 0 2209.17239247 0 5475
0.07150000 0.07148790 29982.85909966 0 934.94267876 0 8352.46358857 0 -758.82960189 0 2889.79927139 0 5509
0.07250000 0.07249820 28850.27099396 0 716.62632861 0 9309.17888685 0 -215.71324658 0 3312.66242854 0 5916
0.07350000 0.07351270 28574.45938273 0 760.30554279 0 9636.96399078 0 970.37854711 0 4103.61395196 0 5721
0.07450000 0.07449140 28696.36567898 0 -341.51589394 0 9227.65335921 0 533.77574209 0 2150.87660230 0 6028
0.07550000 0.07549160 27966.14585719 0 174.78771959 0 9005.14391965 0 732.53504491 0 972.51218410 0 6183
0.07650000 0.07648840 27730.30533856 0 707.98327186 0 8575.89203109 0 -48.03285230 0 1863.18438653 0 6330
0.07750000 0.07749960 27440.43187480 0 675.85581416 0 8211.30251946 0 -614.35237149 0 21.08226007 0 6583
0.07850000 0.07848650 26222.03325176 0 732.87607251 0 7688.88808986 0 -477.29138426 0 38.44875866 0 6549
0.07950000 0.07947320 25620.80601411 0 1404.52440325 0 7903.41438322 0 37.80722816 0 -1606.52789724 0 6828
0.08050000 0.08048110 24121.05961742 0 1056.79139892 0 7281.18294539 0 252.70477657 0 1082.87779619 0 7147
0.08150000 0.08149960 23992.73137277 0 467.73486071 0 6880.87411390 0 2035.32582049 0 -1006.37024616 0 7386
0.08250000 0.08250610 23611.84339901 0 -181.28385256 0 6766.49699852 0 908.68244598 0 -96.05518588 0 7227
0.08350000 0.08350160 23369.24876223 0 460.80801430 0 6890.15272210 0 -119.30872885 0 -1299.31517282 0 7798
0.08450000 0.08449610 22544.02839350 0 1545.16507309 0 6923.70186630 0 -1025.47997157 0 -932.53666257 0 7371
0.08550000 0.08548940 21502.89769080 0 1406.51742171 0 7838.15410074 0 -1950.23500426 0 -496.34906974 0 8256
0.08650000 0.08650700 21279.01528297 0 453.55896324 0 8305.57229296 0 -598.88211926 0 -140.66060003 0 8037
0.08750000 0.08749060 20755.29431905 0 -494.38926824 0 8686.77029182 0 885.53353649 0 -613.37247075 0 8155
0.08850000 0.08849210 21535.00743278 0 -260.88611738 0 8134.29450034 0 1183.24399174 0 -2074.47756105 0 8718
0.08950000 0.08949900 20767.47387635 0 585.98396807 0 7782.03955856 0 1513.22141599 0 -1700.70909214 0 8571
0.09050000 0.09049190 20613.34711487 0 726.22714146 0 7271.27321468 0 -137.90469838 0 -1906.94221422 0 8932
0.09150000 0.09150830 19729.11125486 0 576.30343449 0 7255.67230901 0 1069.13371940 0 -751.94704478 0 9285
0.09250000 0.09250820 19409.23179085 0 290.54333940 0 7303.64869245 0 288.79834101 0 -801.63631687 0 9204
0.09350000 0.09350330 18665.17156303 0 722.50573309 0 6443.21833079 0 844.52939598 0 -136.06447800 0 9349
0.09450000 0.09448040 18499.64030699 0 523.72650008 0 6575.45510610 0 207.50754666 0 11.57888368 0 9564
0.09550000 0.09549270 18120.41318196 0 -214.18858745 0 6444.07089980 0 1120.94001999 0 601.14087352 0 10155
0.09650000 0.09649430 18185.96134488 0 -288.93120891 0 6414.66280508 0 406.34657022 0 232.72255197 0 9913
0.09750000 0.09749140 18438.85324374 0 -13.59936151 0 6293.47620994 0 271.18337946 0 677.95291248 0 10476
0.09850000 0.09850240 18713.66834574 0 -145.25893653 0 6096.01236913 0 -177.51926212 0 757.88181088 0 10575
0.09950000 0.09950330 18498.64379776 0 205.23993454 0 6534.31034707 0 -150.55482949 0 468.98381895 0 10882
0.10050000 0.10051200 18364.66866745 0 700.07873917 0 6321.84350613 0 -444.70996125 0 14.54870264 0 10875
0.10150000 0.10150300 17409.23775885 0 1011.54212908 0 6393.27107353 0 -42.78844565 0 605.22545414 0 11118
0.10250000 0.10250800 17031.67148254 0 706.42207406 0 5884.04378280 0 736.37160546 0 522.88943233 0 11575
0.10350000 0.10349800 16481.04476931 0 -30.21338490 0 5588.96632638 0 1474.28004960 0 185.67624381 0 11364
0.10450000 0.10450100 16432.10509361 0 -82.91388645 0 5297.19949509 0 914.53749135 0 -769.33945261 0 12093
0.10550000 0.10551000 16273.66012545 0 184.48153997 0 4717.18683179 0 63.27014282 0 -530.04215416 0 12067
0.10650000 0.10649700 16074.02610897 0 407.26557318 0 4984.80492265 0 -497.11748908 0 -1020.34905625 0 12054
0.10750000 0.10749900 15638.10868086 0 476.22290491 0 5213.26020064 0 -204.11277187 0 693.40434177 0 12807
0.10850000 0.10850100 15585.29369148 0 57.46979474 0 5233.40075948 0 379.70766394 0 1020.53064237 0 12736
0.10950000 0.10950300 15663.46430470 0 -107.24100203 0 5743.77957200 0 474.52662475 0 472.45056385 0 12933
0.11050000 0.11050200 15892.66142844 0 110.48065355 0 5858.20097667 0 381.45598402 0 746.17725632 0 13428
0.11150000 0.11150900 15597.58397203 0 484.78291923 0 5792.18777610 0 -82.59832519 0 726.65010427 0 13453
0.11250000 0.11250000 15237.29052243 0 550.54367080 0 5553.93349066 0 -257.96966702 0 1562.90293745 0 13668
0.11350000 0.11349100 14960.03950897 0 137.85487292 0 6020.29981202 0 -165.48807397 0 1168.65066763 0 13791
0.11450000 0.11448600 14816.54217932 0 291.48448701 0 6149.01558804 0 233.60169456 0 1634.52980670 0 14205
0.11550000 0.11549300 14518.58591845 0 44.27656610 0 5738.58665166 0 514.86974746 0 281.49060663 0 14776
0.11650000 0.11649800 14548.48119546 0 -89.50081248 0 5149.38395876 0 751.52076028 0 845.56244389 0 14553
0.11750000 0.11747300 14566.30763842 0 23.69654668 0 5020.47995322 0 434.01630994 0 495.68362302 0 14568
0.11850000 0.11849100 14522.68267863 0 141.05920372 0 4543.80529745 0 658.26299726 0 973.11341134 0 16015
0.11950000 0.11950300 14171.57925863 0 0.78027005 0 4128.57097210 0 597.81474714 0 1208.00171004 0 15270
0.12050000 0.12050700 14194.72041750 0 226.02600992 0 4084.53633630 0 869.56281517 0 678.63053876 0 15999
0.12150000 0.12150000 13862.21850320 0 226.94279841 0 3554.08339889 0 -146.72269787 0 269.11064025 0 15670
0.12250000 0.12250700 13830.44093097 0 351.42451742 0 3863.83168569 0 -565.86333941 0 -193.25303569 0 16887
0.12350000 0.12352200 13597.14704704 0 290.50347903 0 4139.86474342 0 -485.17930846 0 1320.70690437 0 16407
0.12450000 0.12449800 13137.86701356 0 394.43164148 0 4220.70378692 0 -457.35344896 0 863.31802397 0 16306
0.12550000 0.12549900 13380.79382009 0 -224.09499647 0 4492.45185494 0 599.44570059 0 1228.79553605 0 17523
0.12650000 0.12650100 13282.69302219 0 -79.00269843 0 4269.90919841 0 913.42804440 0 1068.96763452 0 17154
0.12750000 0.12750600 13381.45815958 0 310.31518983 0 4046.19287545 0 890.19387800 0 1087.88137978 0 18007
0.12850000 0.12850300 13132.33085116 0 316.11819527 0 3728.87111847 0 300.71659145 0 1457.15116311 0 17496
0.12950000 0.12949900 12694.42040458 0 438.02006259 0 3738.29366690 0 181.81421692 0 2092.45901655 0 18405
0.13050000 0.13049000 12395.46763447 0 429.88522555 0 3730.25515908 0 292.84749020 0 2394.50096528 0 18100
0.13150000 0.13148800 11984.24149071 0 85.76202056 0 3066.08175483 0 628.47180010 0 1928.50003064 0 19059
0.13250000 0.13249300 12099.94728506 0 -36.86696633 0 3182.68440750 0 466.76049612 0 2194.91123810 0 18957
0.13350000 0.13349100 12086.43904879 0 46.55835080 0 3280.40874635 0 -103.38207539 0 1772.22523815 0 19468
0.13450000 0.13450700 12099.72583857 0 181.60716444 0 3471.50600039 0 -197.52916753 0 2174.72638996 0 19953
0.13550000 0.13551000 11977.37664932 0 186.43801976 0 3338.22842655 0 -702.43825159 0 2095.08315753 0 19956
0.13650000 0.13649900 11854.25239734 0 84.51284088 0 4109.27190994 0 -454.46910834 0 1943.81305586 0 19723
0.13750000 0.13749600 12040.82107053 0 -10.85881718 0 4583.27813543 0 -171.65757336 0 1696.87806776 0 20946
0.13850000 0.13851100 11814.83492098 0 62.63724873 0 4246.07048308 0 56.41105904 0 1605.85248542 0 20955
0.13950000 0.13949800 11949.80656052 0 97.87791199 0 4200.23105833 0 296.56668411 0 927.09129323 0 20506
0.14050000 0.14048300 11828.12171077 0 97.42372523 0 4141.37057959 0 415.09370682 0 825.28237375 0 21447
0.14150000 0.14148400 11842.95862602 0 106.22799503 0 3947.02913438 0 136.54501690 0 454.53554229 0 21771
0.14250000 0.14249400 11502.04174486 0 254.09656780 0 3719.48178703 0 74.49294053 0 -82.97777376 0 22470
0.14350000 0.14350900 11139.20166055 0 524.57464017 0 3554.09447121 0 6.31797926 0 -125.68195902 0 22519
0.14450000 0.14449900 10795.99280815 0 300.45307012 0 3687.05094763 0 -246.68253910 0 -123.50181826 0 22218
0.14550000 0.14550500 10627.42773511 0 125.29332042 0 3688.12496314 0 -3.74761656 0 126.43376987 0 23559
0.14650000 0.14650700 10493.41938783 0 160.27965238 0 3593.66696011 0 -29.81710640 0 -252.65495111 0 23044
0.14750000 0.14750500 10393.95669398 0 214.90275241 0 3538.06174488 0 131.13507899 0 -183.33444711 0 23649
0.14850000 0.14849900 10153.12255685 0 148.25510762 0 3387.62206756 0 466.17809184 0 -5.63345493 0 23640
0.14950000 0.14949500 10151.42849115 0 12.36269355 0 3234.39216440 0 265.20875299 0 155.12769964 0 24457
0.15050000 0.15050000 9991.71020565 0 16.90600060 0 3003.12451591 0 561.22624978 0 -74.17405758 0 24591
0.15150000 0.15149900 10007.96437848 0 238.90976708 0 3037.99126677 0 220.24514913 0 467.44365857 0 25020
0.15250000 0.15250500 9825.04957248 0 90.24741935 0 2588.95313375 0 70.20640070 0 720.51382185 0 25297
0.15350000 0.15350100 9935.03097490 0 -100.87662973 0 2761.00598910 0 155.09226820 0 438.85159419 0 25452
0.15450000 0.15450400 9953.87607174 0 38.70464008 0 2903.47359254 0 -289.87014205 0 300.60586820 0 26061
0.15550000 0.15549900 9877.83134489 0 374.06077828 0 2951.85965200 0 -314.97885305 0 477.43200279 0 26128
0.15650000 0.15649500 9518.43475360 0 330.44246189 0 3020.19804078 0 -177.08854868 0 314.79505245 0 26331
0.15750000 0.15749700 9466.10694650 0 37.54857865 0 2847.56942453 0 552.14694343 0 593.10347293 0 27345
0.15850000 0.15849900 9396.84955476 0 -1.50799528 0 2621.63863661 0 607.44434804 0 313.76421901 0 26980
0.15950000 0.15949700 9280.12510653 0 38.43115366 0 2204.59952232 0 833.12157972 0 214.01918088 0 27777
0.16050000 0.16050000 9203.16137671 0 104.31890479 0 1857.82538132 0 303.24883213 0 167.32165096 0 28224
0.16150000 0.16150500 9174.45083846 0 -2.43699655 0 1849.10038936 0 -115.55853243 0 127.72258848 0 28075
0.16250000 0.16249700 9113.28731616 0 49.92754852 0 2055.58817491 0 -362.34847309 0 101.36580504 0 28590
0.16350000 0.16349900 9165.98050997 0 107.45945900 0 2237.42896540 0 -428.89535971 0 55.82367221 0 29163
0.16450000 0.16449100 9025.81595009 0 271.98169408 0 2389.39662354 0 -414.82022040 0 145.89005904 0 28996
0.16550000 0.16550500 9001.84436686 0 191.70512468 0 2641.11485597 0 5.08664817 0 -35.17157196 0 30777
0.16650000 0.16650700 8812.37474456 0 233.68362976 0 2519.52965713 0 211.46701001 0 494.68600655 0 29211
0.16750000 0.16749900 8636.83410689 0 112.97757352 0 2400.69039485 0 393.37423446 0 68.51034199 0 30922
0.16850000 0.16850800 8419.51758767 0 110.86829564 0 2234.01868936 0 328.51144844 0 235.94570572 0 30867
0.16950000 0.16949900 8398.22550705 0 209.99439081 0 2302.95498368 0 288.04431569 0 80.57795808 0 30852
0.17050000 0.17049200 8169.94738626 0 114.97059199 0 2090.64315528 0 -72.30217034 0 333.04002929 0 31257
0.17150000 0.17149500 8160.93451386 0 29.70306145 0 1955.14004415 0 -84.92019171 0 446.94324916 0 32608
0.17250000 0.17250900 8205.64456147 0 -48.70627109 0 2193.29467868 0 1.00309948 0 427.91545896 0 32361
0.17350000 0.17350400 8240.59989093 0 39.39333869 0 2180.77187931 0 124.66109067 0 249.83704444 0 32508
0.17450000 0.17449800 8157.25850202 0 122.40676534 0 2200.84600420 0 94.87166508 0 336.99838541 0 32791
0.17550000 0.17549800 8072.47771088 0 112.75280533 0 2164.35162160 0 253.17535037 0 506.22336901 0 33633
0.17650000 0.17650100 8049.60228781 0 43.71730297 0 2052.02288631 0 157.31116209 0 583.28453528 0 33984
0.17750000 0.17750300 7932.00312591 0 84.94853686 0 2104.84894802 0 120.42703366 0 505.35751321 0 34069
0.17850000 0.17849800 7870.64030176 0 231.81794303 0 2117.78142341 0 -39.68243709 0 560.17105722 0 34536
