### header ###
fiducial parameters:
Omega_m = 0.31
Omega_nu = 0
Omega_de = 0.69
Omega_k = 0
H_0 = 100
w_de = -1
zeff = 0
beta = 0
fgrowth = 0
b_1 = 2
gamma = 0.55
Lx = 3500 Ly = 3500 Lz = 3500
nx = 700 ny = 700 nz = 700
xoffset = -685.467585 yoffset = -31.7331281 zoffset = 572.489161
bins = 400 dk = 0.001
kx_ny = 0.628318531 ky_ny = 0.628318531 kz_ny = 0.628318531
############################
A(data) = 8.03865851 (not used)
A(ran) = 8.03276004 (used)
Ngal = 477276
weighted Ngal = 0
Nran = 23820508
weighted Nran = 0
SN(data) = 3491.10928
SN(ran) = 69.9682532
SN(data+ran) = 3561.07754
############################
13 columns: k_central k_mean P_0(k) sigma^{lin}_{P_0(k)} P^img_1(k) sigma^{lin}_{P_1(k)} P_2(k) sigma^{lin}_{P_2(k)} P^img_3(k) sigma^{lin}_{P_3(k)} P_4(k) sigma^{lin}_{P_4(k)} N_modes
### header ###
0.00050000 0 0 0 0 0 0 0 0 0 0 0 0
0.00150000 0.00179520 29098.51251640 0 -9928.42079698 0 37296.57253537 0 2200.70206398 0 -54905.99792694 0 3
0.00250000 0.00253879 63185.43953334 0 -21330.94448637 0 4654.40675007 0 -12408.42225451 0 34392.96607493 0 6
0.00350000 0.00331552 61224.30936146 0 -10886.99624583 0 -25428.25828551 0 30443.91070511 0 85837.53381707 0 7
0.00450000 0.00420575 58161.37214687 0 10177.43738215 0 -2670.57831231 0 -34616.18414327 0 9461.72230588 0 24
0.00550000 0.00557378 50720.32697575 0 3678.10450918 0 8257.90593462 0 11337.28555156 0 6992.47207575 0 45
0.00650000 0.00659388 44193.74511140 0 -324.24528169 0 8467.01786114 0 47002.46174815 0 35052.54446437 0 40
0.00750000 0.00754703 49056.48872525 0 -9600.24816168 0 -1929.79549264 0 5840.97243926 0 -12099.83656182 0 57
0.00850000 0.00846663 50873.23578150 0 -4776.00302122 0 -10729.95746293 0 30070.77335872 0 19716.71025106 0 75
0.00950000 0.00948925 60453.89700058 0 -7389.34848654 0 -12283.63715381 0 16533.74903544 0 25213.12301428 0 112
0.01050000 0.01054430 54322.48640900 0 -3295.28995090 0 -8661.89077795 0 -4656.21153901 0 22400.42034060 0 105
0.01150000 0.01145670 69298.02717272 0 -8424.78801429 0 -19614.18052324 0 12108.58369842 0 20961.01811418 0 144
0.01250000 0.01249090 60652.53450782 0 -501.55195517 0 -791.66347391 0 -21687.03045254 0 -337.06149766 0 169
0.01350000 0.01339930 66789.92415480 0 9432.13705396 0 -19818.79708589 0 -31546.71425705 0 7461.65076761 0 180
0.01450000 0.01448870 61105.06042316 0 -3083.76425757 0 -1477.78997657 0 -23879.79365962 0 3523.61236099 0 267
0.01550000 0.01550050 66178.39965506 0 -7483.23072868 0 -8128.57010841 0 -3731.52847643 0 -3715.06392943 0 238
0.01650000 0.01653350 75727.72619491 0 -7935.29160638 0 10684.07374888 0 -14156.63162013 0 -33326.92264139 0 315
0.01750000 0.01747870 84332.47270447 0 6980.58039889 0 8863.70604242 0 -19830.86591994 0 -38843.04414279 0 297
0.01850000 0.01844180 69123.74878007 0 12818.87333554 0 13824.24042907 0 -5149.01857204 0 -18097.93636257 0 388
0.01950000 0.01947590 59917.33213986 0 3201.03124972 0 12548.15499372 0 4495.91749261 0 -11495.95196621 0 399
0.02050000 0.02045430 64852.26731153 0 -6323.94724785 0 16308.75939513 0 6118.33417596 0 -29140.03373447 0 462
0.02150000 0.02154770 70332.07158753 0 -3385.71762770 0 14975.43004047 0 2866.85741437 0 -37478.82300188 0 571
0.02250000 0.02255340 68073.53877102 0 3785.70536177 0 13621.28471515 0 -7616.87368924 0 -18260.69953741 0 510
0.02350000 0.02348930 68678.64132236 0 1168.37385951 0 15600.90566947 0 -15926.32129589 0 -14041.25799552 0 555
0.02450000 0.02439640 67924.39455572 0 -342.58326605 0 23647.27483843 0 -3569.08639902 0 -7545.03644582 0 592
0.02550000 0.02547300 72712.73214679 0 3056.82529128 0 30367.29021736 0 -2495.93453294 0 -15293.42720926 0 837
0.02650000 0.02652900 68404.49055985 0 5010.69201808 0 38980.78386353 0 -2572.59930999 0 -7583.81172733 0 723
0.02750000 0.02749970 68068.55622485 0 3469.05901661 0 39831.13840961 0 9421.08687379 0 -6131.11163880 0 826
0.02850000 0.02848090 64275.84208148 0 3527.50981932 0 46670.62417333 0 2460.56952747 0 5722.28818952 0 831
0.02950000 0.02946900 60137.33923401 0 3903.27130669 0 40014.49610860 0 14087.65103651 0 4094.63429653 0 996
0.03050000 0.03053250 59362.94083619 0 18.40032155 0 40499.90682865 0 10147.50888817 0 1240.93080405 0 1041
0.03150000 0.03150510 56472.39971904 0 3834.39037400 0 35005.70853039 0 11338.94640028 0 5354.64271625 0 1036
0.03250000 0.03246190 53256.88586846 0 3204.24222392 0 28009.54937048 0 5825.11687012 0 -396.87973250 0 1059
0.03350000 0.03345080 49616.85908433 0 2635.92193563 0 19951.00064422 0 3892.45364535 0 6697.95930789 0 1302
0.03450000 0.03451200 49366.84598992 0 -507.93404320 0 16393.13051025 0 5683.93365635 0 7950.46069138 0 1339
0.03550000 0.03553350 52101.82094337 0 -3759.94006192 0 12067.06248035 0 8327.16332636 0 3966.32819654 0 1365
0.03650000 0.03647120 54687.09806528 0 -3162.31132983 0 12919.85293789 0 6832.45483747 0 5383.91794307 0 1308
0.03750000 0.03744890 54206.11627516 0 1093.08758691 0 10700.28363241 0 -1462.48802367 0 -2807.42117474 0 1579
0.03850000 0.03847530 52452.14930064 0 3081.63837120 0 14428.23574793 0 -3183.75842300 0 3645.88404396 0 1662
0.03950000 0.03950240 51256.33822022 0 3051.77631116 0 15092.46451380 0 -4881.79908487 0 7546.33190782 0 1683
0.04050000 0.04050350 49108.63937515 0 1993.97068729 0 18518.46325919 0 107.42502407 0 5719.23222787 0 1822
0.04150000 0.04152450 46929.60585084 0 609.00443861 0 15035.22059449 0 984.14033962 0 1193.71841102 0 1887
0.04250000 0.04250150 48523.02411549 0 -1248.03923658 0 12850.20801478 0 5663.75988053 0 -122.26946851 0 1920
0.04350000 0.04349210 47247.38157313 0 -1719.48775504 0 11125.36125453 0 1552.51709677 0 -5351.38745275 0 2005
0.04450000 0.04448520 48496.11836618 0 650.42932745 0 10372.29922664 0 1414.44520628 0 -6794.07815964 0 2151
0.04550000 0.04548030 47056.38397001 0 1162.97056500 0 9571.24974298 0 -4560.84560535 0 -8291.23363232 0 2274
0.04650000 0.04648670 45562.72735198 0 3685.17972474 0 8668.87741491 0 -3774.27872256 0 -6513.37258084 0 2311
0.04750000 0.04749250 42183.89671032 0 3835.38688323 0 13257.55884485 0 -2279.93562038 0 -2958.12658785 0 2568
0.04850000 0.04851840 39492.10382366 0 3293.83947635 0 12889.07187489 0 1819.92481347 0 -4620.45900217 0 2493
0.04950000 0.04949480 37740.68348385 0 2335.91729466 0 14639.82787521 0 1515.44695328 0 -5290.45644927 0 2644
0.05050000 0.05050630 35647.79264662 0 1467.90239051 0 15116.71290515 0 410.71570959 0 -4405.98807043 0 2829
0.05150000 0.05149060 35057.85918029 0 305.35368108 0 14812.88831213 0 -450.16640292 0 -3079.50141251 0 2784
0.05250000 0.05249300 35980.29456093 0 -891.23356930 0 14444.73351191 0 1030.33407877 0 -3452.88235005 0 3055
0.05350000 0.05348950 36202.29467354 0 -1896.42350564 0 12977.98264318 0 2751.52807906 0 -1975.91172551 0 3009
0.05450000 0.05448610 38071.30310293 0 -1249.46756648 0 13403.49208596 0 1502.90200926 0 -6665.68348105 0 3336
0.05550000 0.05550870 39391.23494456 0 -437.95141418 0 13723.15010348 0 -973.29610470 0 -2529.18472437 0 3349
0.05650000 0.05647670 38973.58685240 0 2332.92776696 0 16994.24702465 0 -1350.04856514 0 -3244.19117186 0 3324
0.05750000 0.05747970 36570.44947376 0 2964.59282554 0 15049.94678650 0 -1326.18770515 0 258.07928304 0 3639
0.05850000 0.05849280 35847.53738635 0 937.33430092 0 17585.95206296 0 1462.24443252 0 -10.86521698 0 3846
0.05950000 0.05951020 33974.98581302 0 1393.87282677 0 17075.07499583 0 2528.13285352 0 3201.02017740 0 3787
0.06050000 0.06049470 34115.60433822 0 579.30735621 0 16335.55442119 0 2980.80270908 0 573.65604162 0 3930
0.06150000 0.06148310 32402.93713527 0 694.29123499 0 16555.56151534 0 2215.79364271 0 2907.10531508 0 4083
0.06250000 0.06249100 32883.14386266 0 350.18552427 0 16486.47020847 0 860.20670070 0 2654.62309224 0 4303
0.06350000 0.06350600 31733.61509998 0 198.75376666 0 14065.50638687 0 677.50005440 0 2688.77014199 0 4470
0.06450000 0.06451750 31754.87396364 0 515.80535891 0 14972.99412901 0 -1319.41144236 0 2159.88947470 0 4479
0.06550000 0.06550280 31656.10882625 0 -129.76432518 0 13317.34939888 0 1805.28720006 0 1788.60120655 0 4636
0.06650000 0.06648880 32489.07982236 0 -1240.17788596 0 14032.28941242 0 1558.50722450 0 -1312.25872053 0 4653
0.06750000 0.06749660 32014.29853414 0 326.45421049 0 11728.69223390 0 1182.67930318 0 -1450.00951360 0 5220
0.06850000 0.06852730 31753.21311491 0 1145.48736411 0 11352.78680630 0 752.03119445 0 -1542.24197934 0 5029
0.06950000 0.06949320 30895.88300421 0 1026.80200715 0 11277.27355104 0 1947.24547656 0 -758.42435480 0 5040
0.07050000 0.07048030 29848.88396935 0 906.02398080 0 11015.45735838 0 -350.23977866 0 -246.47548663 0 5475
0.07150000 0.07148790 29460.79898446 0 480.54554052 0 12555.35200486 0 242.91019803 0 885.22683309 0 5509
0.07250000 0.07249820 29051.89802891 0 1135.75479060 0 14434.10408008 0 424.65576654 0 2107.35129343 0 5916
0.07350000 0.07351270 28714.96718468 0 816.24182054 0 14321.16636693 0 656.29433791 0 3498.81035339 0 5721
0.07450000 0.07449140 28414.13211935 0 276.46155670 0 13983.46045996 0 1016.33423127 0 3902.34123141 0 6028
0.07550000 0.07549160 28286.46821420 0 382.12364521 0 15069.54480143 0 649.41399526 0 3675.63538075 0 6183
0.07650000 0.07648840 27271.91109106 0 828.58192655 0 14281.30599759 0 1056.00858556 0 3027.27325634 0 6330
0.07750000 0.07749960 26496.95907701 0 856.46868384 0 13186.25307302 0 2142.06303174 0 3324.31051425 0 6583
0.07850000 0.07848650 25566.88379224 0 662.90894475 0 11980.14473053 0 1795.26674610 0 3460.15686745 0 6549
0.07950000 0.07947320 25377.32559134 0 1.59585418 0 10429.04489133 0 933.16889232 0 1502.19338047 0 6828
0.08050000 0.08048110 25065.75037095 0 110.42130589 0 9646.59691337 0 662.61884984 0 1677.40184840 0 7147
0.08150000 0.08149960 25106.49652628 0 530.56808959 0 9123.01988967 0 -676.22452258 0 124.50718535 0 7386
0.08250000 0.08250610 24380.59491117 0 1284.93222288 0 9568.96884407 0 -1117.93941996 0 -1309.24704818 0 7227
0.08350000 0.08350160 23475.76452699 0 1066.74209724 0 9473.64719971 0 -615.06764368 0 863.67012390 0 7798
0.08450000 0.08449610 22675.23544260 0 -62.05584096 0 9269.17457728 0 165.63422866 0 -177.70859887 0 7371
0.08550000 0.08548940 22896.90338547 0 -97.17182984 0 9487.48760573 0 1793.29587228 0 -836.58611016 0 8256
0.08650000 0.08650700 23027.33537184 0 245.42361577 0 8760.68913231 0 1971.79282068 0 -593.90068032 0 8037
0.08750000 0.08749060 22303.42677519 0 555.01246109 0 8649.16867674 0 1012.16771544 0 -79.78207937 0 8155
0.08850000 0.08849210 22374.62182378 0 236.76616499 0 7764.02488608 0 839.49480989 0 1544.53395058 0 8718
0.08950000 0.08949900 21699.76362608 0 406.04318852 0 8009.85264171 0 520.48784507 0 1508.44924399 0 8571
0.09050000 0.09049190 21048.93237324 0 684.37596811 0 8245.21705038 0 707.42079776 0 1376.27890263 0 8932
0.09150000 0.09150830 20656.86135141 0 696.29200408 0 7907.51114341 0 -109.27310580 0 2065.76364141 0 9285
0.09250000 0.09250820 20118.19274898 0 341.39852730 0 7885.33327680 0 198.23336739 0 1978.31442000 0 9204
0.09350000 0.09350330 19928.19165510 0 447.55997766 0 8162.30748213 0 -44.56134630 0 2085.05163125 0 9349
0.09450000 0.09448040 19284.33596689 0 444.07219534 0 7768.25451416 0 914.20975053 0 1540.21574390 0 9564
0.09550000 0.09549270 18999.11287956 0 493.09269901 0 8231.94133292 0 224.52570990 0 2103.58670300 0 10155
0.09650000 0.09649430 18636.27279526 0 449.21750468 0 7816.06481273 0 360.77509573 0 2266.83706012 0 9913
0.09750000 0.09749140 18371.42278559 0 325.61049934 0 7484.76978183 0 313.15634838 0 1800.06106274 0 10476
0.09850000 0.09850240 17973.81560136 0 375.55443490 0 7050.67928732 0 330.71816278 0 2448.78857387 0 10575
0.09950000 0.09950330 17888.78014675 0 340.79508559 0 6866.62403186 0 435.65501401 0 1941.03390233 0 10882
0.10050000 0.10051200 17587.39146519 0 -24.96266703 0 6593.60264648 0 344.75454895 0 1983.99452263 0 10875
0.10150000 0.10150300 17006.75875170 0 413.51479330 0 6658.69684409 0 414.36293339 0 1641.46108204 0 11118
0.10250000 0.10250800 17079.94681875 0 317.07927306 0 5916.88429821 0 -166.52333634 0 864.85486265 0 11575
0.10350000 0.10349800 17166.42167558 0 -227.58388602 0 6631.27069551 0 451.46629385 0 1881.63087968 0 11364
0.10450000 0.10450100 16920.28389486 0 -82.83405499 0 5779.01170957 0 641.97671468 0 48.41196870 0 12093
0.10550000 0.10551000 16811.11077215 0 409.76238242 0 6028.55976633 0 488.87967942 0 1416.01747641 0 12067
0.10650000 0.10649700 16548.03233446 0 319.11990253 0 5525.01257823 0 696.11816858 0 373.64002994 0 12054
0.10750000 0.10749900 16227.70997746 0 544.15715384 0 5425.93741575 0 890.13740915 0 1498.36235608 0 12807
0.10850000 0.10850100 15455.63676785 0 575.49626201 0 4752.92829630 0 554.74008190 0 860.96183325 0 12736
0.10950000 0.10950300 15002.00362003 0 292.51532045 0 4528.35940433 0 357.97601201 0 1489.36055601 0 12933
0.11050000 0.11050200 14992.14925094 0 155.21184931 0 4820.19266958 0 251.75698556 0 1547.42382735 0 13428
0.11150000 0.11150900 14880.20804703 0 52.08930922 0 4462.60086723 0 134.28736987 0 1724.18242076 0 13453
0.11250000 0.11250000 14979.85897039 0 -235.60799982 0 4432.41770978 0 477.86271622 0 1933.02861149 0 13668
0.11350000 0.11349100 15437.58887840 0 -237.52461924 0 4950.44749874 0 204.64867239 0 1126.35438683 0 13791
0.11450000 0.11448600 15384.22027277 0 -4.42342698 0 4764.54316504 0 15.07397373 0 1772.72349276 0 14205
0.11550000 0.11549300 15339.82025025 0 446.07296443 0 4930.52838639 0 311.85756468 0 1692.00624484 0 14776
0.11650000 0.11649800 15049.50389350 0 238.16792131 0 4554.16899348 0 -2.89261164 0 1295.48414843 0 14553
0.11750000 0.11747300 14712.79449577 0 209.85709399 0 4854.70510603 0 76.94014576 0 1623.77857930 0 14568
0.11850000 0.11849100 14785.76111632 0 332.70785955 0 5025.91646471 0 -487.89756420 0 1065.66697450 0 16015
0.11950000 0.11950300 14323.71300164 0 340.97888619 0 4658.76924604 0 -180.82435108 0 922.52617370 0 15270
0.12050000 0.12050700 14135.48347972 0 307.59693409 0 5079.35150428 0 6.78693651 0 913.64506197 0 15999
0.12150000 0.12150000 14063.73481490 0 210.94107458 0 4649.51278250 0 356.19890388 0 1136.44127474 0 15670
0.12250000 0.12250700 13973.49536763 0 -194.72454766 0 4573.64521284 0 547.59621793 0 320.72871132 0 16887
0.12350000 0.12352200 13976.92778832 0 11.09446947 0 4336.74175102 0 390.16879642 0 640.94698847 0 16407
0.12450000 0.12449800 14183.42664619 0 120.36281417 0 4275.64466267 0 321.72743502 0 729.49126282 0 16306
0.12550000 0.12549900 13659.04134278 0 375.91317822 0 4230.85710878 0 -89.99884565 0 779.60017602 0 17523
0.12650000 0.12650100 13405.26365794 0 494.74026094 0 4103.48108406 0 436.68252576 0 579.78789511 0 17154
0.12750000 0.12750600 13079.62658502 0 311.73023294 0 4333.30933032 0 179.27754730 0 823.51412348 0 18007
0.12850000 0.12850300 12786.09925408 0 382.05831849 0 3851.82928559 0 343.62295735 0 933.48113188 0 17496
0.12950000 0.12949900 12748.01045670 0 -23.81490984 0 3722.59311030 0 306.56056449 0 1247.99494728 0 18405
0.13050000 0.13049000 12486.92503748 0 -32.47756460 0 3941.93586496 0 255.65887283 0 1734.34681494 0 18100
0.13150000 0.13148800 12686.33760746 0 -93.43071273 0 3673.46520508 0 461.29187490 0 1219.41727693 0 19059
0.13250000 0.13249300 12757.64337929 0 -10.45403513 0 3634.09201803 0 416.12675473 0 1666.06378779 0 18957
0.13350000 0.13349100 12831.60650908 0 211.79807253 0 3566.53976431 0 39.67457574 0 1297.39966062 0 19468
0.13450000 0.13450700 12422.26266054 0 357.77671017 0 3688.65643473 0 -26.31315849 0 2059.61850114 0 19953
0.13550000 0.13551000 12297.80972957 0 301.93897611 0 3710.01494931 0 -173.01504038 0 1854.29330970 0 19956
0.13650000 0.13649900 12165.60617124 0 97.89773146 0 4027.75745463 0 66.58143228 0 2339.37186001 0 19723
0.13750000 0.13749600 11958.44297388 0 279.70574787 0 4083.98272006 0 80.37522381 0 2165.18204596 0 20946
0.13850000 0.13851100 12013.36170498 0 81.13843916 0 4001.30567064 0 -158.85132248 0 1327.97034945 0 20955
0.13950000 0.13949800 11805.86633788 0 -21.79830732 0 4058.06240766 0 95.29994261 0 1262.05679980 0 20506
0.14050000 0.14048300 11799.55511274 0 127.73698250 0 4067.85034280 0 -363.86759605 0 679.44324740 0 21447
0.14150000 0.14148400 11862.55664095 0 170.64334841 0 4081.65753185 0 -441.62078262 0 530.79839395 0 21771
0.14250000 0.14249400 11514.99636490 0 334.37978059 0 4379.18197205 0 -292.55850252 0 483.83734269 0 22470
0.14350000 0.14350900 11350.46161809 0 224.44266747 0 3901.47759007 0 -218.04175649 0 -97.85078480 0 22519
0.14450000 0.14449900 11338.50350729 0 247.34134243 0 4372.29498601 0 226.39250387 0 84.25020533 0 22218
0.14550000 0.14550500 10967.56955354 0 118.88798051 0 4112.63789669 0 433.26117739 0 200.84975775 0 23559
0.14650000 0.14650700 10949.39986851 0 54.26812129 0 4216.92812416 0 597.58001386 0 196.71092273 0 23044
0.14750000 0.14750500 10897.41530349 0 89.68472380 0 3927.01037110 0 487.66393815 0 109.01633859 0 23649
0.14850000 0.14849900 10608.33904712 0 277.20450969 0 3844.34439401 0 319.89939420 0 591.22671388 0 23640
0.14950000 0.14949500 10484.17399660 0 235.74640388 0 3624.82448215 0 391.05347518 0 648.69761585 0 24457
0.15050000 0.15050000 10385.43100387 0 24.93764357 0 3416.64263091 0 254.34458787 0 1122.93303846 0 24591
0.15150000 0.15149900 10232.31182395 0 201.74440159 0 3480.17563072 0 296.08060905 0 1216.39453225 0 25020
0.15250000 0.15250500 10059.60570143 0 191.84795767 0 2966.14295102 0 335.11498296 0 998.81892064 0 25297
0.15350000 0.15350100 9800.42472208 0 225.93521685 0 3160.08579254 0 372.82178513 0 1449.85450105 0 25452
0.15450000 0.15450400 9660.49268102 0 102.37836914 0 2541.33106470 0 241.39550400 0 1093.86929304 0 26061
0.15550000 0.15549900 9723.89281293 0 -75.67623988 0 2742.81415943 0 520.24536116 0 1329.56476422 0 26128
0.15650000 0.15649500 9611.74123484 0 104.24283792 0 2425.65848732 0 103.18952766 0 1066.52618690 0 26331
0.15750000 0.15749700 9757.95128407 0 18.50340490 0 2380.83771645 0 -21.83473527 0 1171.96129275 0 27345
0.15850000 0.15849900 9579.44326335 0 115.17543000 0 2612.13858192 0 -338.89507465 0 1041.78175540 0 26980
0.15950000 0.15949700 9499.81110325 0 191.60104482 0 2734.21096304 0 -305.44668861 0 985.89862480 0 27777
0.16050000 0.16050000 9416.25934017 0 244.16137074 0 2791.20021888 0 -303.46363523 0 284.65507707 0 28224
0.16150000 0.16150500 9135.42089347 0 263.34860242 0 2985.65238735 0 -526.47908003 0 639.29499761 0 28075
0.16250000 0.16249700 9028.96049034 0 226.65159627 0 3074.51886634 0 75.49875052 0 318.89956326 0 28590
0.16350000 0.16349900 8938.94248956 0 -44.33270279 0 3015.08262672 0 156.88709205 0 324.01829903 0 29163
0.16450000 0.16449100 8936.71695228 0 16.06771488 0 2867.56604316 0 265.54756613 0 335.51690835 0 28996
0.16550000 0.16550500 8976.74340649 0 94.31793812 0 2968.85567060 0 265.70257867 0 202.68112027 0 30777
0.16650000 0.16650700 8867.19382474 0 174.18317065 0 2958.13766017 0 149.90156232 0 274.70216429 0 29211
0.16750000 0.16749900 8647.05386269 0 221.83402774 0 2860.38010435 0 1.19814734 0 496.68013225 0 30922
0.16850000 0.16850800 8536.10916801 0 105.24355463 0 2807.76441681 0 131.66987228 0 816.15434917 0 30867
0.16950000 0.16949900 8464.85875780 0 69.71501093 0 2813.59953199 0 185.47362027 0 446.94435640 0 30852
0.17050000 0.17049200 8542.45361013 0 37.12273704 0 2876.20245652 0 360.83045735 0 829.45221128 0 31257
0.17150000 0.17149500 8521.78157970 0 11.18947002 0 2575.85457349 0 -41.59274529 0 669.27331706 0 32608
0.17250000 0.17250900 8415.25474262 0 177.81821489 0 2564.17327080 0 41.03237493 0 668.28677292 0 32361
0.17350000 0.17350400 8397.07398526 0 71.73991769 0 2659.27346867 0 129.02358665 0 645.25633729 0 32508
0.17450000 0.17449800 8260.67401582 0 122.12774275 0 2505.89962528 0 8.21405953 0 353.77849368 0 32791
0.17550000 0.17549800 8148.51136541 0 199.19112349 0 2611.44102545 0 -12.87135616 0 275.13730665 0 33633
0.17650000 0.17650100 8003.70750143 0 39.02883775 0 2404.26675577 0 23.49292663 0 -105.10991167 0 33984
0.17750000 0.17750300 7936.77529790 0 59.26594727 0 2401.95263988 0 -44.25397856 0 -330.57975872 0 34069
