### header ###
fiducial parameters:
Omega_m = 0.31
Omega_nu = 0
Omega_de = 0.69
Omega_k = 0
H_0 = 100
w_de = -1
zeff = 0
beta = 0
fgrowth = 0
b_1 = 2
gamma = 0.55
Lx = 3500 Ly = 3500 Lz = 3500
nx = 700 ny = 700 nz = 700
xoffset = -685.467585 yoffset = -31.7331281 zoffset = 572.489161
bins = 400 dk = 0.001
kx_ny = 0.628318531 ky_ny = 0.628318531 kz_ny = 0.628318531
############################
A(data) = 8.01416652 (not used)
A(ran) = 8.011087 (used)
Ngal = 475893
weighted Ngal = 0
Nran = 23820508
weighted Nran = 0
SN(data) = 3490.87628
SN(ran) = 69.7794732
SN(data+ran) = 3560.65575
############################
13 columns: k_central k_mean P_0(k) sigma^{lin}_{P_0(k)} P^img_1(k) sigma^{lin}_{P_1(k)} P_2(k) sigma^{lin}_{P_2(k)} P^img_3(k) sigma^{lin}_{P_3(k)} P_4(k) sigma^{lin}_{P_4(k)} N_modes
### header ###
0.00050000 0 0 0 0 0 0 0 0 0 0 0 0
0.00150000 0.00179520 6971.55645416 0 -10739.36893902 0 1239.31424463 0 -612.71145295 0 32372.26679552 0 3
0.00250000 0.00253879 14549.80987444 0 -10645.16559947 0 -2200.52490678 0 -19559.59396188 0 -17647.29274245 0 6
0.00350000 0.00331552 23565.56108127 0 -15816.48383369 0 -8008.38002251 0 10802.52547979 0 29500.54863056 0 7
0.00450000 0.00420575 29357.71564040 0 -12116.44504904 0 2762.64469318 0 -12945.31928497 0 5666.24008129 0 24
0.00550000 0.00557378 39022.30508160 0 -7721.36321856 0 6898.13586829 0 -15560.71313038 0 -13131.33434192 0 45
0.00650000 0.00659388 49372.27142908 0 -9106.71035522 0 -5357.31114653 0 -1366.41346122 0 -281.80506066 0 40
0.00750000 0.00754703 55331.50736972 0 -4461.29433290 0 5780.62826899 0 -30520.53119285 0 -27457.81542477 0 57
0.00850000 0.00846663 70775.40747327 0 -13493.28864024 0 -14151.64907396 0 -3930.33206855 0 -28521.53367010 0 75
0.00950000 0.00948925 83999.97079016 0 -21350.54250130 0 -14102.93084476 0 -34512.10428998 0 -72566.79890568 0 112
0.01050000 0.01054430 89193.77691609 0 5903.59750843 0 -59.82554257 0 -29657.33274999 0 -46387.94772071 0 105
0.01150000 0.01145670 92217.85027056 0 11425.53198036 0 -5414.03466657 0 -30467.71620347 0 -53040.75408800 0 144
0.01250000 0.01249090 74497.59090755 0 2329.56178022 0 -13359.42423319 0 -2602.61638257 0 -16358.58485681 0 169
0.01350000 0.01339930 78919.87744012 0 -1577.37446599 0 -17608.42888234 0 -11.46207065 0 -38454.40554166 0 180
0.01450000 0.01448870 79762.59208207 0 -5075.86372196 0 5154.37757725 0 520.78347615 0 -44189.86979771 0 267
0.01550000 0.01550050 80308.34697238 0 13600.80091423 0 16681.78601827 0 -13623.27773361 0 -18975.08593471 0 238
0.01650000 0.01653350 74925.97915479 0 5460.81523893 0 18839.22850918 0 -17514.09267489 0 -1851.28163735 0 315
0.01750000 0.01747870 69093.63205656 0 4513.62214000 0 22333.87566844 0 4267.89403530 0 3416.41011209 0 297
0.01850000 0.01844180 81914.60913382 0 -7076.93176946 0 43994.11109492 0 -7211.82590273 0 5849.94102236 0 388
0.01950000 0.01947590 83386.45327196 0 -6904.25886392 0 44165.51068311 0 8701.69578567 0 279.26396211 0 399
0.02050000 0.02045430 87031.90549525 0 4653.27737293 0 50718.44468053 0 4868.42371649 0 2426.62177958 0 462
0.02150000 0.02154770 86605.06737350 0 6583.16144417 0 36548.85844037 0 -2525.88517158 0 6517.13717128 0 571
0.02250000 0.02255340 79094.82017226 0 7252.29524994 0 48543.72936290 0 6996.14808759 0 10038.93367100 0 510
0.02350000 0.02348930 76880.35520853 0 7423.71698278 0 34486.19504990 0 3886.61853017 0 -5043.05642352 0 555
0.02450000 0.02439640 66487.98185699 0 2864.25541804 0 42079.26324078 0 9188.02550868 0 -3889.35339440 0 592
0.02550000 0.02547300 65626.55498610 0 4393.75315151 0 30338.17000309 0 10849.69358352 0 -5566.66666420 0 837
0.02650000 0.02652900 64140.09537920 0 -3153.97386924 0 24067.24811880 0 11780.84288379 0 -4579.31424315 0 723
0.02750000 0.02749970 67034.84397979 0 -3168.32360221 0 24554.76258057 0 601.36896341 0 -11094.91236128 0 826
0.02850000 0.02848090 64409.70648853 0 3344.52857937 0 29959.38577105 0 555.81299018 0 2501.61463558 0 831
0.02950000 0.02946900 62069.45991486 0 5350.00341215 0 27941.89746584 0 1088.37963440 0 5187.08522477 0 996
0.03050000 0.03053250 56237.99860263 0 3826.77261452 0 25136.83469628 0 3600.93040520 0 9787.83548876 0 1041
0.03150000 0.03150510 54741.79534988 0 2293.43278434 0 27367.79742399 0 9116.33220548 0 5956.08032807 0 1036
0.03250000 0.03246190 49753.27012609 0 1778.79112677 0 26266.43327428 0 5183.32063433 0 52.97432014 0 1059
0.03350000 0.03345080 51665.46062227 0 2160.52059721 0 21164.85961409 0 2880.89712224 0 4081.35857908 0 1302
0.03450000 0.03451200 48623.45010160 0 -1735.87479577 0 20906.87444582 0 928.80639634 0 1005.42577685 0 1339
0.03550000 0.03553350 49055.60293927 0 1859.61909794 0 17646.62840297 0 468.61621776 0 3306.80516871 0 1365
0.03650000 0.03647120 48169.48478403 0 3364.58055962 0 19954.43306492 0 2064.16922664 0 1453.51944057 0 1308
0.03750000 0.03744890 47496.61960480 0 646.46543516 0 16878.76267679 0 366.33229555 0 6072.05185822 0 1579
0.03850000 0.03847530 46511.51486569 0 2058.09052032 0 21565.89921902 0 1166.28119012 0 4668.65683211 0 1662
0.03950000 0.03950240 45881.83175325 0 1938.34332740 0 23195.19181609 0 -1354.00138510 0 8136.28751881 0 1683
0.04050000 0.04050350 43081.08719037 0 3477.38540487 0 25047.92392799 0 -487.85548937 0 7804.07348495 0 1822
0.04150000 0.04152450 42008.40036194 0 465.03099899 0 26961.11093340 0 3488.39129574 0 11827.34664803 0 1887
0.04250000 0.04250150 42728.65509140 0 -1166.03759898 0 27343.99192563 0 4876.79439405 0 7794.18589889 0 1920
0.04350000 0.04349210 42823.65563834 0 -493.28425023 0 23902.82409525 0 7498.51053693 0 7242.48517015 0 2005
0.04450000 0.04448520 43239.64288178 0 -503.12090360 0 20692.51423733 0 4818.50967620 0 3886.93962759 0 2151
0.04550000 0.04548030 43156.60044564 0 273.50524597 0 18078.55979414 0 3124.56577452 0 4515.90303891 0 2274
0.04650000 0.04648670 42469.56269064 0 2122.65324633 0 13493.95297973 0 2412.99174773 0 5020.59067647 0 2311
0.04750000 0.04749250 39377.61598503 0 2412.69279496 0 11284.58128542 0 681.99541827 0 4062.61313316 0 2568
0.04850000 0.04851840 37949.95042292 0 299.24729394 0 8866.26374945 0 2140.12537490 0 1000.24614330 0 2493
0.04950000 0.04949480 36272.38248964 0 178.00533718 0 10859.68082050 0 95.78978226 0 371.51303634 0 2644
0.05050000 0.05050630 37740.46203735 0 1203.20739339 0 8741.53401037 0 128.60394554 0 -4564.38874929 0 2829
0.05150000 0.05149060 35692.96773188 0 760.66317888 0 11912.93571888 0 -716.66840344 0 626.50314075 0 2784
0.05250000 0.05249300 35412.39502098 0 1835.19354939 0 8902.43703464 0 1237.27693686 0 822.70030760 0 3055
0.05350000 0.05348950 34567.57663732 0 583.53034089 0 10951.21572978 0 -404.41223507 0 2077.97641569 0 3009
0.05450000 0.05448610 35319.27676926 0 432.55587030 0 13435.93399768 0 987.58604711 0 -769.37820574 0 3336
0.05550000 0.05550870 33968.89603437 0 88.21996595 0 12350.51399571 0 -876.93809073 0 484.89917864 0 3349
0.05650000 0.05647670 35224.16549906 0 70.64453259 0 14047.34777417 0 763.33935979 0 -192.82564395 0 3324
0.05750000 0.05747970 34082.38736376 0 488.23416288 0 13056.92831914 0 -1251.11734288 0 2216.00401688 0 3639
0.05850000 0.05849280 34708.30588576 0 355.34522764 0 12731.06979973 0 270.67626698 0 -196.34221431 0 3846
0.05950000 0.05951020 33527.66389035 0 371.84963501 0 11663.14407097 0 979.20651168 0 -1121.51578088 0 3787
0.06050000 0.06049470 33381.95209574 0 152.85676582 0 10262.71642791 0 1873.86917998 0 -2815.74756301 0 3930
0.06150000 0.06148310 32603.34621449 0 -205.25100686 0 8625.68427579 0 3495.69903012 0 -3614.89260679 0 4083
0.06250000 0.06249100 33384.94162344 0 -926.77462474 0 6396.38239681 0 511.75842419 0 -5571.02916018 0 4303
0.06350000 0.06350600 32522.85041306 0 -355.78590617 0 6579.86189138 0 1709.00226343 0 -7229.37553757 0 4470
0.06450000 0.06451750 33109.68362845 0 1278.97531213 0 7584.99646609 0 -2458.17790531 0 -5882.32757245 0 4479
0.06550000 0.06550280 31992.92894724 0 1911.60366296 0 7175.43117105 0 -2896.25443676 0 -6415.62609734 0 4636
0.06650000 0.06648880 30766.77969682 0 2026.21329716 0 8775.39317967 0 -2353.10154278 0 -4023.27316308 0 4653
0.06750000 0.06749660 30015.19028813 0 787.27329712 0 10096.15544566 0 -180.63169263 0 -1596.48529863 0 5220
0.06850000 0.06852730 29141.80530644 0 -240.22958820 0 12170.25654766 0 2235.15913882 0 -2606.19274349 0 5029
0.06950000 0.06949320 29176.79385286 0 -91.12379386 0 10687.41759098 0 2823.01100809 0 -247.84070428 0 5040
0.07050000 0.07048030 29507.74564169 0 143.64902050 0 9413.21445085 0 2435.22497596 0 -3852.02858743 0 5475
0.07150000 0.07148790 29524.57557542 0 -30.34580991 0 8098.47552956 0 721.62769773 0 -935.71774149 0 5509
0.07250000 0.07249820 29011.70548982 0 692.34361305 0 7581.65262400 0 14.26624764 0 -1994.41358028 0 5916
0.07350000 0.07351270 28466.06132275 0 329.17468070 0 7128.70596031 0 -552.78360211 0 -592.37491396 0 5721
0.07450000 0.07449140 28481.34113100 0 -16.36711055 0 6269.90323041 0 655.94666691 0 -2259.70648294 0 6028
0.07550000 0.07549160 28566.26586236 0 -97.34599751 0 7290.10723920 0 -680.99226565 0 -4353.05128548 0 6183
0.07650000 0.07648840 27892.51489715 0 761.94756856 0 7496.09677012 0 -8.99547778 0 -3452.28444451 0 6330
0.07750000 0.07749960 27757.10036462 0 1094.42844544 0 7814.64755515 0 -674.44962891 0 -2737.82054093 0 6583
0.07850000 0.07848650 26236.64872052 0 1047.51279072 0 8047.85286048 0 505.33204686 0 -1255.05909052 0 6549
0.07950000 0.07947320 26284.59188698 0 606.03594832 0 9283.09248958 0 858.03652503 0 -2337.17953969 0 6828
0.08050000 0.08048110 24966.98523357 0 976.05643527 0 8391.94749887 0 1572.95660839 0 -493.72271429 0 7147
0.08150000 0.08149960 24763.91879639 0 866.04624481 0 8516.53329773 0 300.62469115 0 -1186.67641244 0 7386
0.08250000 0.08250610 23604.20349489 0 -111.83380237 0 7253.98931564 0 233.09568931 0 -1467.69201634 0 7227
0.08350000 0.08350160 23780.14273625 0 131.30559279 0 8292.35193713 0 -47.20187432 0 -2012.43932509 0 7798
0.08450000 0.08449610 23942.90591109 0 664.16011746 0 7111.30026570 0 -621.61913827 0 -1953.14702568 0 7371
0.08550000 0.08548940 22956.91538599 0 789.08030053 0 7511.01119165 0 254.92920662 0 -363.97056867 0 8256
0.08650000 0.08650700 22523.65531583 0 622.65882957 0 6927.35573349 0 1194.34953354 0 541.74449426 0 8037
0.08750000 0.08749060 22139.44564463 0 -34.26452711 0 7062.09485420 0 2805.49459022 0 1356.07190984 0 8155
0.08850000 0.08849210 22108.44313514 0 108.37868341 0 6809.09223210 0 1791.01497336 0 840.86667093 0 8718
0.08950000 0.08949900 21638.42294658 0 692.61045608 0 7409.43368377 0 337.48113877 0 2660.83466647 0 8571
0.09050000 0.09049190 21091.56082379 0 1246.02407347 0 7464.30812557 0 -627.35792422 0 2907.07209811 0 8932
0.09150000 0.09150830 20159.27107406 0 501.66489288 0 7602.67896883 0 -1016.28883473 0 3469.60156052 0 9285
0.09250000 0.09250820 19962.29441554 0 85.00987754 0 7528.59404346 0 -352.17522104 0 2355.84747934 0 9204
0.09350000 0.09350330 20106.56680792 0 -120.08268436 0 8320.61958239 0 489.38679189 0 696.21117611 0 9349
0.09450000 0.09448040 20196.69553195 0 -98.32833417 0 6662.77145962 0 386.95007160 0 -204.68299660 0 9564
0.09550000 0.09549270 19612.07678152 0 565.68396775 0 6132.66176428 0 322.99964514 0 -1091.89952646 0 10155
0.09650000 0.09649430 19558.15455966 0 589.44628405 0 5554.34316668 0 -541.01593529 0 -1008.20714485 0 9913
0.09750000 0.09749140 18928.91434021 0 262.53146484 0 6093.14463700 0 455.61066503 0 -1215.01049165 0 10476
0.09850000 0.09850240 18532.30366521 0 693.11313962 0 6718.14415604 0 -184.02425295 0 -793.98423319 0 10575
0.09950000 0.09950330 18184.30049616 0 369.36057639 0 5997.72334171 0 979.50435722 0 15.54421537 0 10882
0.10050000 0.10051200 18210.09901299 0 231.93863137 0 6584.04723016 0 1123.60845027 0 967.08895940 0 10875
0.10150000 0.10150300 17524.38993697 0 395.42815071 0 6337.84301549 0 249.70196208 0 951.34411351 0 11118
0.10250000 0.10250800 17589.38448365 0 291.18664148 0 6376.40792284 0 337.17775707 0 1214.58974331 0 11575
0.10350000 0.10349800 17096.77675247 0 506.27540894 0 6249.97304573 0 289.26891482 0 1819.72551162 0 11364
0.10450000 0.10450100 16570.73060034 0 589.70537645 0 6274.22143708 0 186.15235378 0 2294.96076516 0 12093
0.10550000 0.10551000 16192.16781479 0 171.22353823 0 5782.23375609 0 912.15472705 0 2289.38031345 0 12067
0.10650000 0.10649700 16236.01422107 0 -17.74782945 0 5602.24204384 0 910.36654659 0 1269.95136740 0 12054
0.10750000 0.10749900 16216.41620614 0 113.89325478 0 5061.70221852 0 502.34694809 0 1143.11788660 0 12807
0.10850000 0.10850100 15740.63840868 0 473.12265397 0 4862.35608248 0 28.66337015 0 1255.84522558 0 12736
0.10950000 0.10950300 15434.71007394 0 546.05384308 0 4948.13338285 0 -266.97257433 0 1619.10605823 0 12933
0.11050000 0.11050200 14876.77562633 0 422.71257353 0 5009.36333910 0 -330.94846713 0 1345.11030827 0 13428
0.11150000 0.11150900 14750.88329315 0 306.02244950 0 4970.90915501 0 333.33566036 0 1489.83666597 0 13453
0.11250000 0.11250000 14603.73209631 0 86.22130060 0 5054.53842436 0 208.12095345 0 1563.73336181 0 13668
0.11350000 0.11349100 14481.93652330 0 -53.42130989 0 4602.61041456 0 730.65939309 0 415.17121310 0 13791
0.11450000 0.11448600 14547.81685597 0 -309.03855078 0 4315.94792501 0 567.38356961 0 -45.31415366 0 14205
0.11550000 0.11549300 14456.13800647 0 -34.23507472 0 4087.22691123 0 374.36969614 0 -490.12310149 0 14776
0.11650000 0.11649800 14713.34811201 0 76.01505302 0 4124.95032189 0 -96.78972391 0 -648.04545592 0 14553
0.11750000 0.11747300 14320.28058095 0 421.75703190 0 3632.44224163 0 -552.49461443 0 -1063.76585632 0 14568
0.11850000 0.11849100 14074.80713972 0 307.73312368 0 3874.32824962 0 155.16091661 0 -806.74176584 0 16015
0.11950000 0.11950300 13886.68834105 0 90.58745044 0 3396.10346838 0 192.79685590 0 -89.52993270 0 15270
0.12050000 0.12050700 14116.21763454 0 -236.97100300 0 3282.19139064 0 742.68947400 0 -704.23196821 0 15999
0.12150000 0.12150000 13955.77964792 0 99.38208732 0 3350.33047757 0 126.03073725 0 -103.31231974 0 15670
0.12250000 0.12250700 14053.65899932 0 211.89108005 0 3188.79633080 0 203.64884146 0 -99.65479868 0 16887
0.12350000 0.12352200 13585.41038273 0 447.83346408 0 3793.64421866 0 -37.54680708 0 452.25464338 0 16407
0.12450000 0.12449800 13745.18402987 0 317.51109373 0 3538.13925115 0 -236.22472831 0 -455.83764769 0 16306
0.12550000 0.12549900 13182.26703609 0 197.56570620 0 4091.24616514 0 -405.61801124 0 -21.76199009 0 17523
0.12650000 0.12650100 13255.45510314 0 296.62868912 0 3729.39151774 0 -393.14171564 0 -603.48267022 0 17154
0.12750000 0.12750600 12809.24041295 0 344.15221448 0 4013.33021539 0 49.08749123 0 -285.09354113 0 18007
0.12850000 0.12850300 12717.00794721 0 60.72439390 0 3464.01003649 0 395.54773182 0 -941.35909099 0 17496
0.12950000 0.12949900 12595.76599044 0 27.96481718 0 3219.53310449 0 315.98200567 0 -1125.33573294 0 18405
0.13050000 0.13049000 12703.27826443 0 60.35336029 0 3597.17688708 0 27.48516407 0 -1284.20144944 0 18100
0.13150000 0.13148800 12510.84125908 0 255.25805467 0 3404.85060498 0 -137.85819462 0 -1303.11298023 0 19059
0.13250000 0.13249300 12419.60530258 0 297.61634050 0 3494.68037624 0 -253.77104145 0 -225.46242858 0 18957
0.13350000 0.13349100 12249.86656311 0 -27.90259071 0 3844.76514235 0 438.36551913 0 283.05512613 0 19468
0.13450000 0.13450700 12351.62122819 0 122.99249132 0 4184.36441686 0 453.90663424 0 281.19165386 0 19953
0.13550000 0.13551000 12210.33836351 0 230.50697977 0 3645.04254727 0 314.38759090 0 384.11666368 0 19956
0.13650000 0.13649900 11829.22894325 0 321.78168941 0 3874.18430939 0 324.49994516 0 409.04932471 0 19723
0.13750000 0.13749600 11722.15956225 0 106.86221780 0 3560.02923732 0 0.81283044 0 1122.23548199 0 20946
0.13850000 0.13851100 11525.95796647 0 126.93313172 0 3678.22630475 0 424.58379643 0 572.16681393 0 20955
0.13950000 0.13949800 11418.55641573 0 201.01916432 0 3419.85360511 0 333.79294738 0 702.54565314 0 20506
0.14050000 0.14048300 11323.88803853 0 77.57713661 0 3034.96852209 0 499.62758512 0 555.67015719 0 21447
0.14150000 0.14148400 11150.93832486 0 86.10083370 0 3079.20245974 0 -1.36225027 0 491.26797988 0 21771
0.14250000 0.14249400 11192.90243592 0 87.08272747 0 2935.90443194 0 -140.68717361 0 171.09067033 0 22470
0.14350000 0.14350900 11020.25167502 0 175.66686218 0 3028.39156115 0 -177.05865341 0 356.63072455 0 22519
0.14450000 0.14449900 10921.02150000 0 203.04318529 0 2813.11234970 0 -62.66481882 0 207.59169633 0 22218
0.14550000 0.14550500 10870.39883093 0 145.50584937 0 3224.53779531 0 31.25385127 0 366.72647032 0 23559
0.14650000 0.14650700 10597.96427877 0 141.47995207 0 2723.14971055 0 106.33672526 0 10.81358673 0 23044
0.14750000 0.14750500 10523.43646041 0 34.95798681 0 2761.37137582 0 374.48263385 0 -53.43847200 0 23649
0.14850000 0.14849900 10505.88682557 0 68.28302716 0 2596.24979580 0 135.25730552 0 -126.71943585 0 23640
0.14950000 0.14949500 10469.87962526 0 60.13291030 0 2804.79703376 0 331.40132522 0 -140.81450535 0 24457
0.15050000 0.15050000 10332.99247353 0 172.07832170 0 2497.58430934 0 121.71363780 0 -20.42533904 0 24591
0.15150000 0.15149900 10234.41556567 0 194.84191430 0 2491.35059047 0 247.82188132 0 306.75322294 0 25020
0.15250000 0.15250500 10163.29802336 0 65.56632154 0 2420.31055443 0 -66.59704426 0 571.44379112 0 25297
0.15350000 0.15350100 9920.06119174 0 137.71093270 0 2193.78186097 0 398.05782786 0 631.37274920 0 25452
0.15450000 0.15450400 9954.45183263 0 123.58707516 0 2443.79495537 0 83.19279831 0 608.83613927 0 26061
0.15550000 0.15549900 9716.17540253 0 326.70112333 0 2268.45361954 0 134.76126537 0 674.54374367 0 26128
0.15650000 0.15649500 9583.10820286 0 171.45494982 0 2308.90082211 0 106.58131292 0 615.26251659 0 26331
0.15750000 0.15749700 9326.03096522 0 173.24755920 0 2139.59390331 0 46.41994674 0 846.26996545 0 27345
0.15850000 0.15849900 9274.51143784 0 140.09923316 0 2255.79795228 0 207.00597034 0 292.49539027 0 26980
0.15950000 0.15949700 9262.89656911 0 31.75719915 0 2213.54596077 0 51.54765109 0 757.15435914 0 27777
0.16050000 0.16050000 9077.47941769 0 141.01602166 0 2073.91287248 0 100.17087974 0 600.27612495 0 28224
0.16150000 0.16150500 9105.35953159 0 65.62555848 0 1985.53357578 0 -269.06635095 0 552.45918299 0 28075
0.16250000 0.16249700 8949.40583652 0 93.93040675 0 1909.43348730 0 142.60047134 0 708.71072360 0 28590
0.16350000 0.16349900 8946.25022394 0 224.30647787 0 1907.75049393 0 -33.90268353 0 310.73815264 0 29163
0.16450000 0.16449100 8808.94232387 0 94.22958097 0 1727.48197356 0 -144.62559955 0 247.15532737 0 28996
0.16550000 0.16550500 8759.22758543 0 40.53799563 0 1880.56793650 0 14.65555058 0 -88.12197587 0 30777
0.16650000 0.16650700 8572.10529600 0 105.40963951 0 1900.89672487 0 -69.67315754 0 -171.86462584 0 29211
0.16750000 0.16749900 8663.75092852 0 124.04989834 0 1888.48464874 0 -124.79063687 0 -160.49888441 0 30922
0.16850000 0.16850800 8475.15601989 0 51.43227746 0 2018.88341813 0 116.43878226 0 -378.96913987 0 30867
0.16950000 0.16949900 8542.91864778 0 61.87790870 0 2109.12286540 0 -4.99676303 0 -112.80927418 0 30852
0.17050000 0.17049200 8438.58413101 0 126.58656795 0 2032.17020792 0 113.37839168 0 148.53413021 0 31257
0.17150000 0.17149500 8461.88030243 0 39.32646184 0 2123.22900722 0 118.89351667 0 70.89620654 0 32608
0.17250000 0.17250900 8346.78348594 0 141.96159820 0 2166.86503933 0 100.03922980 0 155.62706149 0 32361
0.17350000 0.17350400 8322.24721414 0 66.91448781 0 2085.93741723 0 192.10926453 0 158.99194100 0 32508
0.17450000 0.17449800 8218.58810919 0 25.94234633 0 1932.89574359 0 75.89237166 0 111.62896436 0 32791
0.17550000 0.17549800 8258.86922688 0 106.40338066 0 2040.23086038 0 -43.82791550 0 -60.50914790 0 33633
0.17650000 0.17650100 8120.95234894 0 165.11604386 0 1893.11288052 0 -4.71398693 0 105.50541512 0 33984
0.17750000 0.17750300 7987.47547325 0 167.08802491 0 2048.92263537 0 -7.76290658 0 417.50083024 0 34069
0.17850000 0.17849800 7835.13135607 0 71.98395173 0 1809.32859861 0 377.10677484 0 366.69989674 0 34536
