### header ###
fiducial parameters:
Omega_m = 0.31
Omega_nu = 0
Omega_de = 0.69
Omega_k = 0
H_0 = 100
w_de = -1
zeff = 0
beta = 0
fgrowth = 0
b_1 = 2
gamma = 0.55
Lx = 3500 Ly = 3500 Lz = 3500
nx = 700 ny = 700 nz = 700
xoffset = -685.467585 yoffset = -31.7331281 zoffset = 572.489161
bins = 400 dk = 0.001
kx_ny = 0.628318531 ky_ny = 0.628318531 kz_ny = 0.628318531
############################
A(data) = 8.02202345 (not used)
A(ran) = 8.02294957 (used)
Ngal = 476132
weighted Ngal = 0
Nran = 23820508
weighted Nran = 0
SN(data) = 3485.72372
SN(ran) = 69.8828004
SN(data+ran) = 3555.60652
############################
13 columns: k_central k_mean P_0(k) sigma^{lin}_{P_0(k)} P^img_1(k) sigma^{lin}_{P_1(k)} P_2(k) sigma^{lin}_{P_2(k)} P^img_3(k) sigma^{lin}_{P_3(k)} P_4(k) sigma^{lin}_{P_4(k)} N_modes
### header ###
0.00050000 0 0 0 0 0 0 0 0 0 0 0 0
0.00150000 0.00179520 10014.18702503 0 -29308.88668795 0 -25806.93179431 0 -16451.81383179 0 -9097.23244517 0 3
0.00250000 0.00253879 16998.89740107 0 -27565.77059175 0 -34276.70666433 0 12163.17025978 0 1883.81212767 0 6
0.00350000 0.00331552 37688.42211070 0 -29238.35597885 0 -12806.36160849 0 -61835.50169145 0 -67114.45399523 0 7
0.00450000 0.00420575 54116.09827438 0 -27165.50604956 0 -33086.43174633 0 -34703.65550934 0 -3162.66564422 0 24
0.00550000 0.00557378 63171.37768082 0 -969.34549920 0 -25076.71197252 0 -46742.48356140 0 12591.33706052 0 45
0.00650000 0.00659388 69422.59082693 0 3780.61209235 0 -14266.80125207 0 -40421.84693868 0 50706.70801622 0 40
0.00750000 0.00754703 67554.91107652 0 -10798.35121333 0 -21474.44181602 0 2844.13700384 0 -24913.83807444 0 57
0.00850000 0.00846663 73658.41940955 0 -3210.91883578 0 -352.03128082 0 -25481.51616789 0 9810.26801884 0 75
0.00950000 0.00948925 78367.25770842 0 15668.66829736 0 -2621.62756429 0 -13790.58056162 0 4788.51474827 0 112
0.01050000 0.01054430 59274.47296089 0 -1224.59912494 0 9559.30270450 0 18891.93277532 0 23994.50294474 0 105
0.01150000 0.01145670 72804.63244278 0 -6780.82458684 0 5108.16169346 0 21544.52963212 0 34028.35441865 0 144
0.01250000 0.01249090 80891.08342758 0 -10448.93078671 0 7873.06514090 0 33465.76959461 0 12899.25841372 0 169
0.01350000 0.01339930 81240.74744536 0 1450.82886564 0 -5408.96354181 0 32111.84571579 0 21613.06732275 0 180
0.01450000 0.01448870 80574.74710752 0 4146.71851248 0 -2475.70539550 0 4335.90025433 0 30622.50730443 0 267
0.01550000 0.01550050 82930.93782892 0 -6426.77592844 0 -1628.72790850 0 5640.02081612 0 25677.93921017 0 238
0.01650000 0.01653350 77224.92595688 0 -1794.40310476 0 6753.17699176 0 -2166.71002679 0 22562.62989920 0 315
0.01750000 0.01747870 84956.95182424 0 2236.53210709 0 3420.72831877 0 4008.19265667 0 22472.72262167 0 297
0.01850000 0.01844180 74334.71700947 0 7203.03447682 0 1351.27759319 0 1148.68726599 0 23052.69099567 0 388
0.01950000 0.01947590 69118.87695715 0 9751.71756520 0 5440.03248525 0 8097.46794800 0 31835.25904182 0 399
0.02050000 0.02045430 66013.97563151 0 3389.77009858 0 1628.49538968 0 9422.49305904 0 24362.21485197 0 462
0.02150000 0.02154770 61398.14486111 0 878.96875510 0 8554.76603533 0 7298.02395144 0 28307.72707785 0 571
0.02250000 0.02255340 64826.02590171 0 -1008.75190323 0 3734.87231853 0 5901.85915343 0 24199.56240039 0 510
0.02350000 0.02348930 60761.26473754 0 -3783.61269238 0 9270.49218393 0 -416.30391193 0 24830.90636154 0 555
0.02450000 0.02439640 66840.30323272 0 -1397.05058399 0 1110.17772027 0 -839.04084457 0 14025.42457103 0 592
0.02550000 0.02547300 63806.26478592 0 4005.08133340 0 4467.27338831 0 -9812.79250890 0 10289.91005766 0 837
0.02650000 0.02652900 62573.58286386 0 4667.81533542 0 -100.01797094 0 -8115.06187213 0 4705.81555420 0 723
0.02750000 0.02749970 56893.03733890 0 4230.08204604 0 7105.08869148 0 -8374.74110611 0 5370.38756214 0 826
0.02850000 0.02848090 54477.49895646 0 4149.15442394 0 4256.76634885 0 -2053.88303688 0 2886.49971860 0 831
0.02950000 0.02946900 56219.39709693 0 -675.17597342 0 11024.87990680 0 -3578.94076811 0 -7164.65779900 0 996
0.03050000 0.03053250 56461.10594772 0 965.04057931 0 11607.56100038 0 2242.42258390 0 -1462.32193880 0 1041
0.03150000 0.03150510 56563.19278255 0 2265.61910439 0 20029.06053419 0 -5055.70101847 0 3807.14138262 0 1036
0.03250000 0.03246190 55789.34800098 0 -1276.50618369 0 22863.79713426 0 750.51982211 0 11519.42529482 0 1059
0.03350000 0.03345080 61081.47637130 0 -1641.88183038 0 26615.43295257 0 2135.17604570 0 6967.34897073 0 1302
0.03450000 0.03451200 60228.68591376 0 247.57386125 0 25831.06946241 0 2434.40562393 0 2970.87083372 0 1339
0.03550000 0.03553350 62034.02847544 0 580.80987069 0 26788.38266623 0 4104.03470030 0 -717.21980522 0 1365
0.03650000 0.03647120 56711.34048862 0 4598.75724553 0 23162.41773462 0 -446.43724392 0 1693.35706846 0 1308
0.03750000 0.03744890 56406.74083286 0 5045.75807078 0 20708.23693857 0 1516.38810089 0 -2001.11233680 0 1579
0.03850000 0.03847530 47609.77876445 0 3093.53004806 0 16893.59959205 0 414.14259412 0 -4572.83693313 0 1662
0.03950000 0.03950240 47010.10165227 0 2153.34573073 0 18450.03629181 0 3184.54455807 0 -6848.88616750 0 1683
0.04050000 0.04050350 46412.86045155 0 -1546.98093436 0 16357.58834758 0 2787.91173841 0 -9363.74330356 0 1822
0.04150000 0.04152450 45507.80862088 0 1957.67560654 0 18177.54637802 0 182.25600268 0 -8027.75659094 0 1887
0.04250000 0.04250150 44940.01980418 0 3133.51221298 0 19120.24411308 0 -4693.39240575 0 -4359.00819623 0 1920
0.04350000 0.04349210 44156.54210001 0 1128.11488647 0 22958.02261847 0 -2867.79856198 0 -1206.79482663 0 2005
0.04450000 0.04448520 42409.77213662 0 293.24166496 0 25053.46009040 0 2004.97657816 0 1950.46752308 0 2151
0.04550000 0.04548030 43105.99992122 0 1588.07033176 0 24808.31881891 0 4355.31003974 0 -1195.95502064 0 2274
0.04650000 0.04648670 41456.22352324 0 1210.93587612 0 23781.13924549 0 5582.71046286 0 55.43835530 0 2311
0.04750000 0.04749250 40232.95307727 0 551.53242940 0 21316.66118735 0 4370.08052105 0 1971.91461625 0 2568
0.04850000 0.04851840 38879.13992170 0 1245.70297605 0 18898.90833995 0 2283.81093407 0 97.56954775 0 2493
0.04950000 0.04949480 37545.25695080 0 827.59095348 0 17073.96776335 0 2551.84977328 0 -691.25963245 0 2644
0.05050000 0.05050630 36555.39111201 0 1072.32476341 0 17496.81984817 0 -1155.44138413 0 -1292.66070560 0 2829
0.05150000 0.05149060 36395.72818812 0 388.78475582 0 16994.35774790 0 1338.27868386 0 763.99484142 0 2784
0.05250000 0.05249300 36819.68750543 0 -1090.45348083 0 15977.14326681 0 245.23095732 0 -1860.61560717 0 3055
0.05350000 0.05348950 36674.75077355 0 145.00538029 0 14696.62890153 0 3495.33364340 0 879.55669555 0 3009
0.05450000 0.05448610 38465.36714323 0 29.41219148 0 18089.18922597 0 284.85770061 0 -2991.27712836 0 3336
0.05550000 0.05550870 37191.93906583 0 -667.01234833 0 14790.30076950 0 3083.81961919 0 1743.37075967 0 3349
0.05650000 0.05647670 36536.01454358 0 1352.20766848 0 15481.21383818 0 1518.13752821 0 1996.29587550 0 3324
0.05750000 0.05747970 36900.29403011 0 809.40133827 0 14266.13691258 0 3894.53524241 0 3431.59026942 0 3639
0.05850000 0.05849280 35862.70647135 0 -71.52024276 0 11809.63092832 0 2964.89177831 0 2596.77019507 0 3846
0.05950000 0.05951020 35698.17172455 0 1767.44199383 0 10108.75575130 0 925.59210045 0 128.91286340 0 3787
0.06050000 0.06049470 34172.07319480 0 1464.66927166 0 11005.78014649 0 -2372.81028096 0 1285.72943027 0 3930
0.06150000 0.06148310 32736.65700531 0 1046.42659566 0 10411.89386019 0 -63.35329598 0 159.29642993 0 4083
0.06250000 0.06249100 31844.33834817 0 408.38719968 0 12107.14429620 0 71.69031367 0 1144.38013163 0 4303
0.06350000 0.06350600 32707.42606778 0 450.01471207 0 10864.48620948 0 1144.35798698 0 -2074.94259869 0 4470
0.06450000 0.06451750 31344.42288261 0 1102.59982116 0 10506.49580344 0 752.40543903 0 -1229.22735672 0 4479
0.06550000 0.06550280 30794.34978562 0 893.95293228 0 9935.79496531 0 -1001.33455283 0 234.86504682 0 4636
0.06650000 0.06648880 30864.43760172 0 128.72463388 0 12054.44003006 0 -1270.93680431 0 126.60981984 0 4653
0.06750000 0.06749660 30253.13454848 0 -133.60310019 0 12839.24641321 0 -309.66745883 0 -232.34941462 0 5220
0.06850000 0.06852730 30640.77664038 0 624.57877070 0 13346.69105964 0 -315.36084825 0 -1602.50864333 0 5029
0.06950000 0.06949320 30618.52126750 0 412.07871278 0 14080.12185563 0 113.51790297 0 262.71083651 0 5040
0.07050000 0.07048030 29263.37943294 0 290.22888538 0 12931.25743245 0 2236.63175802 0 -1047.03335906 0 5475
0.07150000 0.07148790 29439.20795107 0 254.64021895 0 12322.94390691 0 2457.69072302 0 118.45505261 0 5509
0.07250000 0.07249820 28863.00416750 0 346.92583185 0 11100.55924693 0 2522.93993318 0 -672.19751804 0 5916
0.07350000 0.07351270 28412.02837764 0 367.76062546 0 9965.92276114 0 2064.19137129 0 194.98253282 0 5721
0.07450000 0.07449140 27932.48598974 0 669.56009027 0 8931.36901939 0 325.31818996 0 40.33238255 0 6028
0.07550000 0.07549160 28178.73449371 0 -361.83582445 0 9367.86220839 0 -144.38422287 0 -479.13603357 0 6183
0.07650000 0.07648840 27603.08432639 0 1078.19641726 0 9339.51705685 0 -724.73791377 0 -136.85725646 0 6330
0.07750000 0.07749960 26276.28764337 0 1814.02326434 0 8989.41014609 0 -136.48744081 0 -2095.92465422 0 6583
0.07850000 0.07848650 25306.46271251 0 1461.21470632 0 9030.83171323 0 -770.77553314 0 -690.22990624 0 6549
0.07950000 0.07947320 24049.86456884 0 862.90059732 0 8974.17462714 0 1118.79198898 0 -2671.51945992 0 6828
0.08050000 0.08048110 23321.52704227 0 688.62331191 0 8192.56814586 0 1561.40817360 0 -1653.83994119 0 7147
0.08150000 0.08149960 22845.85996806 0 -302.25564460 0 7771.84194740 0 1349.00776660 0 -1861.92214150 0 7386
0.08250000 0.08250610 22907.64354055 0 -197.14606509 0 5784.82468010 0 1325.81124611 0 -1330.22910371 0 7227
0.08350000 0.08350160 23310.01182446 0 113.30974326 0 6278.71680096 0 517.29790829 0 -139.28431006 0 7798
0.08450000 0.08449610 22676.34267508 0 252.67709576 0 5773.40911321 0 1002.86585536 0 1749.56018924 0 7371
0.08550000 0.08548940 23540.31618068 0 6.47603670 0 6727.81029561 0 260.23063575 0 2367.55092667 0 8256
0.08650000 0.08650700 23218.55442145 0 179.30854981 0 7426.19718354 0 -255.80724198 0 3703.96945996 0 8037
0.08750000 0.08749060 23062.10247177 0 735.60761505 0 7996.52156262 0 171.89562834 0 2323.70452039 0 8155
0.08850000 0.08849210 22292.68662012 0 1111.76106272 0 7774.02319539 0 -973.15991510 0 3510.08198006 0 8718
0.08950000 0.08949900 21352.20335002 0 1185.60239693 0 8352.99506016 0 290.06722944 0 2154.18722742 0 8571
0.09050000 0.09049190 20227.91948794 0 402.21770029 0 6533.81209246 0 511.01325673 0 2187.33776792 0 8932
0.09150000 0.09150830 20194.03817399 0 54.78885273 0 6775.19984583 0 1019.29054199 0 431.18400925 0 9285
0.09250000 0.09250820 19837.06642184 0 -27.59666238 0 6164.55005976 0 699.29814027 0 -373.77954123 0 9204
0.09350000 0.09350330 19668.54563810 0 240.62708466 0 5595.78687847 0 158.60551686 0 -999.88961445 0 9349
0.09450000 0.09448040 19573.98798415 0 562.10539237 0 5553.39094674 0 870.02674558 0 528.51417334 0 9564
0.09550000 0.09549270 19019.04306424 0 -109.44528046 0 5452.18989790 0 159.79689902 0 512.82911800 0 10155
0.09650000 0.09649430 19251.78333192 0 257.94973684 0 5415.38549020 0 1387.08549166 0 773.19815781 0 9913
0.09750000 0.09749140 19326.18935471 0 116.50410897 0 5579.55485029 0 -357.10794175 0 1611.48829876 0 10476
0.09850000 0.09850240 18485.57845447 0 735.60982951 0 5839.09014404 0 -63.79098498 0 894.64605981 0 10575
0.09950000 0.09950330 18250.62372182 0 980.64923561 0 5984.31475636 0 -964.67076366 0 1135.99838174 0 10882
0.10050000 0.10051200 17306.59730779 0 680.77081915 0 6753.69739103 0 -372.23827361 0 617.29539543 0 10875
0.10150000 0.10150300 16882.52726723 0 508.40683147 0 6598.82878379 0 121.23199167 0 666.04573437 0 11118
0.10250000 0.10250800 16848.97812303 0 -22.11098977 0 6498.38065304 0 527.80665178 0 -360.92900104 0 11575
0.10350000 0.10349800 16436.97691653 0 259.58511921 0 6017.39886292 0 743.48446692 0 291.70371904 0 11364
0.10450000 0.10450100 16497.32108679 0 237.74274404 0 5791.25770082 0 501.58074321 0 -193.67267680 0 12093
0.10550000 0.10551000 15952.00908947 0 271.29299547 0 5640.34191354 0 208.35679397 0 1032.98590056 0 12067
0.10650000 0.10649700 16010.36024127 0 337.93067516 0 5885.98143964 0 142.01917429 0 294.34003958 0 12054
0.10750000 0.10749900 15706.64637149 0 28.84019518 0 5569.83334910 0 136.31803424 0 1274.33600803 0 12807
0.10850000 0.10850100 15662.46779546 0 321.06973893 0 6468.49644835 0 -451.22713164 0 630.92985621 0 12736
0.10950000 0.10950300 15229.87206480 0 303.59318143 0 6279.51400835 0 -87.11871252 0 968.09321926 0 12933
0.11050000 0.11050200 15536.90763202 0 193.80665193 0 6512.77467530 0 80.41054453 0 1857.22747578 0 13428
0.11150000 0.11150900 15281.69054495 0 -83.58896609 0 6130.73517976 0 589.22926648 0 1687.04584332 0 13453
0.11250000 0.11250000 15429.72752778 0 -91.26374804 0 6068.63050985 0 876.62363670 0 1242.73559300 0 13668
0.11350000 0.11349100 15176.72490567 0 256.92111786 0 5933.48171312 0 399.09641193 0 635.47836725 0 13791
0.11450000 0.11448600 14984.84151656 0 565.32854613 0 5953.24581292 0 67.89283843 0 629.82373096 0 14205
0.11550000 0.11549300 14403.10157059 0 488.53200842 0 5381.85849065 0 -451.96454847 0 829.06357268 0 14776
0.11650000 0.11649800 14166.04309622 0 222.95454701 0 5726.40709436 0 -191.65862091 0 354.80268372 0 14553
0.11750000 0.11747300 14071.59616552 0 -103.05533108 0 5954.98416791 0 252.94615325 0 81.18881824 0 14568
0.11850000 0.11849100 14427.90357819 0 -176.55486263 0 5612.31785943 0 294.66778040 0 -561.15538690 0 16015
0.11950000 0.11950300 14477.83976312 0 -79.74044743 0 5328.54524665 0 290.23109984 0 -583.56355787 0 15270
0.12050000 0.12050700 14426.68562246 0 100.68541068 0 4976.78855949 0 266.79652437 0 -173.52990349 0 15999
0.12150000 0.12150000 14374.64569581 0 129.79532769 0 5206.48393785 0 19.53025230 0 29.74624352 0 15670
0.12250000 0.12250700 14391.36490628 0 174.30164453 0 5127.22823680 0 631.82892899 0 -327.72974231 0 16887
0.12350000 0.12352200 13903.40755153 0 206.38149122 0 5173.08980619 0 158.30988579 0 -117.23488241 0 16407
0.12450000 0.12449800 13939.17116069 0 515.30599706 0 5210.00493714 0 95.49736216 0 -2.42394228 0 16306
0.12550000 0.12549900 13520.74800579 0 151.11841082 0 4831.51965786 0 272.30722043 0 639.64266861 0 17523
0.12650000 0.12650100 13566.47670729 0 15.61109221 0 4815.09940016 0 901.33595847 0 586.30838719 0 17154
0.12750000 0.12750600 13303.17682311 0 -78.64063341 0 3968.86375892 0 765.03896165 0 198.75708835 0 18007
0.12850000 0.12850300 13553.07919426 0 21.41487271 0 3759.12070988 0 736.96729653 0 -40.97158787 0 17496
0.12950000 0.12949900 13252.35485219 0 207.73010039 0 3574.55612748 0 -3.55374016 0 -148.96705811 0 18405
0.13050000 0.13049000 13105.42510185 0 341.96764479 0 3057.10209940 0 253.76882698 0 179.91531321 0 18100
0.13150000 0.13148800 12798.72170437 0 163.47180362 0 3133.40148973 0 48.08013112 0 626.22854709 0 19059
0.13250000 0.13249300 12828.83842788 0 -57.68537290 0 3324.38802052 0 273.41002398 0 747.23687780 0 18957
0.13350000 0.13349100 12819.98056802 0 190.17382216 0 3520.42353144 0 293.40442814 0 764.33476179 0 19468
0.13450000 0.13450700 12513.49861704 0 473.72277397 0 3864.16385543 0 102.45687192 0 1321.69234128 0 19953
0.13550000 0.13551000 12272.01121275 0 537.10076123 0 3797.72990652 0 38.05491606 0 1861.32423596 0 19956
0.13650000 0.13649900 11735.00345904 0 305.09901761 0 4068.81363506 0 -124.21487598 0 2624.76103221 0 19723
0.13750000 0.13749600 11680.52762093 0 181.24731389 0 3835.85192087 0 427.15368302 0 2147.05665023 0 20946
0.13850000 0.13851100 11549.65274158 0 65.67195152 0 3791.11972861 0 369.23767359 0 2085.58310284 0 20955
0.13950000 0.13949800 11562.38591512 0 14.20213888 0 3445.28673522 0 514.48332333 0 2072.42918096 0 20506
0.14050000 0.14048300 11376.81375116 0 -34.81448948 0 3172.95183398 0 310.57760393 0 1427.14516285 0 21447
0.14150000 0.14148400 11619.62983443 0 -28.79568443 0 3142.94583372 0 222.16398302 0 1231.45289401 0 21771
0.14250000 0.14249400 11397.40827532 0 9.60934961 0 3163.32998371 0 17.85456666 0 1199.81926200 0 22470
0.14350000 0.14350900 11519.86818782 0 230.68635143 0 3132.90323511 0 -441.12695694 0 715.90219857 0 22519
0.14450000 0.14449900 11389.21475496 0 215.46744097 0 3202.42636265 0 -260.30592756 0 910.38758401 0 22218
0.14550000 0.14550500 11194.89545439 0 104.76312646 0 3383.17099299 0 -348.06960300 0 572.10370168 0 23559
0.14650000 0.14650700 11029.81816367 0 321.16717539 0 3561.44649489 0 -201.04684513 0 661.39867965 0 23044
0.14750000 0.14750500 10954.74780140 0 194.96924603 0 3425.66657564 0 93.09289610 0 315.61994065 0 23649
0.14850000 0.14849900 10609.26912241 0 183.94674668 0 3225.96612521 0 498.50152968 0 246.12338670 0 23640
0.14950000 0.14949500 10454.68839561 0 105.39757067 0 2760.58524076 0 368.55672561 0 219.94066020 0 24457
0.15050000 0.15050000 10435.40040578 0 239.12678464 0 2768.55731463 0 556.95011794 0 31.47906235 0 24591
0.15150000 0.15149900 10045.05666662 0 369.09816229 0 2707.18341816 0 -116.05789428 0 25.95563312 0 25020
0.15250000 0.15250500 9788.17873083 0 337.72915885 0 2851.88763121 0 -188.62480391 0 678.67593529 0 25297
0.15350000 0.15350100 9613.78961494 0 187.02263851 0 2751.73845323 0 169.24934271 0 1273.49451134 0 25452
0.15450000 0.15450400 9645.29037904 0 -163.41312030 0 2761.70354557 0 406.80717893 0 822.69698591 0 26061
0.15550000 0.15549900 9719.38637673 0 -157.73633937 0 2812.66945671 0 228.88931312 0 498.85030791 0 26128
0.15650000 0.15649500 9684.10994986 0 266.46767632 0 2817.53020730 0 15.09357175 0 430.70014866 0 26331
0.15750000 0.15749700 9521.29141340 0 229.31670485 0 2618.73768751 0 -135.11004360 0 708.83584087 0 27345
0.15850000 0.15849900 9270.31502674 0 93.55062601 0 2484.20894096 0 -126.31418876 0 519.23999407 0 26980
0.15950000 0.15949700 9301.77150155 0 64.37803964 0 2482.30450109 0 175.22507642 0 300.32241668 0 27777
0.16050000 0.16050000 9194.85713310 0 57.33681612 0 2168.54803271 0 202.71433724 0 -218.14694358 0 28224
0.16150000 0.16150500 9163.33422434 0 160.07370714 0 2277.34469637 0 -101.59345203 0 -20.01953833 0 28075
0.16250000 0.16249700 9020.52337883 0 163.22378355 0 2388.96480287 0 90.47949527 0 -51.51842015 0 28590
0.16350000 0.16349900 8873.87043660 0 249.82154319 0 2580.33886504 0 139.39060437 0 -17.58971665 0 29163
0.16450000 0.16449100 8660.14135063 0 177.72520736 0 2317.89154986 0 167.46780565 0 288.86920389 0 28996
0.16550000 0.16550500 8622.71689274 0 -11.64985728 0 2354.82882546 0 181.84189773 0 179.71047520 0 30777
0.16650000 0.16650700 8601.41373979 0 161.42563800 0 2496.52136616 0 78.64218353 0 190.77615663 0 29211
0.16750000 0.16749900 8449.82254070 0 229.88028619 0 2426.25639286 0 -197.98866901 0 239.82434111 0 30922
0.16850000 0.16850800 8338.51245930 0 258.55096407 0 2507.54940168 0 -242.84930025 0 225.75805966 0 30867
0.16950000 0.16949900 8134.40522359 0 111.79504923 0 2302.97712833 0 -60.08452424 0 232.42802813 0 30852
0.17050000 0.17049200 8200.34091789 0 -43.53073430 0 2642.53211354 0 68.67122286 0 183.73305081 0 31257
0.17150000 0.17149500 8090.06056269 0 -2.97050545 0 2453.45002261 0 245.81114714 0 154.28066679 0 32608
0.17250000 0.17250900 8159.62797953 0 181.76660592 0 2466.07247291 0 257.97631041 0 -10.39704587 0 32361
0.17350000 0.17350400 7960.30398814 0 107.13149674 0 2431.26108368 0 226.38696771 0 424.04457421 0 32508
0.17450000 0.17449800 7978.69511967 0 75.51901287 0 2308.14790402 0 293.53840327 0 394.90332252 0 32791
0.17550000 0.17549800 7823.77115080 0 127.23540619 0 2238.68013811 0 29.72509538 0 745.96245322 0 33633
0.17650000 0.17650100 7747.68213465 0 172.49021219 0 2273.02648970 0 32.78681464 0 722.67624689 0 33984
0.17750000 0.17750300 7605.83458140 0 109.30942303 0 2259.89471246 0 158.52136720 0 796.85750148 0 34069
0.17850000 0.17849800 7491.74534647 0 40.23173512 0 2052.58757488 0 136.99233882 0 842.38579390 0 34536
