### header ###
fiducial parameters:
Omega_m = 0.31
Omega_nu = 0
Omega_de = 0.69
Omega_k = 0
H_0 = 100
w_de = -1
zeff = 0
beta = 0
fgrowth = 0
b_1 = 2
gamma = 0.55
Lx = 3500 Ly = 3500 Lz = 3500
nx = 700 ny = 700 nz = 700
xoffset = -685.467585 yoffset = -31.7331281 zoffset = 572.489161
bins = 400 dk = 0.001
kx_ny = 0.628318531 ky_ny = 0.628318531 kz_ny = 0.628318531
############################
A(data) = 8.00952343 (not used)
A(ran) = 8.00867489 (used)
Ngal = 476406
weighted Ngal = 0
Nran = 23820508
weighted Nran = 0
SN(data) = 3486.84647
SN(ran) = 69.7584628
SN(data+ran) = 3556.60493
############################
13 columns: k_central k_mean P_0(k) sigma^{lin}_{P_0(k)} P^img_1(k) sigma^{lin}_{P_1(k)} P_2(k) sigma^{lin}_{P_2(k)} P^img_3(k) sigma^{lin}_{P_3(k)} P_4(k) sigma^{lin}_{P_4(k)} N_modes
### header ###
0.00050000 0 0 0 0 0 0 0 0 0 0 0 0
0.00150000 0.00179520 7869.99810692 0 -18499.41886050 0 -4768.68421452 0 14934.13026889 0 -18362.67564899 0 3
0.00250000 0.00253879 16160.39024256 0 -17981.12333574 0 -725.42771961 0 -51.39928193 0 19667.10623587 0 6
0.00350000 0.00331552 36591.26544442 0 -25078.48354449 0 1080.00674237 0 -4838.08554648 0 -2743.02453360 0 7
0.00450000 0.00420575 40850.78880215 0 -10278.53878007 0 8896.52441318 0 -25201.16490348 0 -26747.74723415 0 24
0.00550000 0.00557378 53726.90605701 0 17712.06584264 0 11344.48256269 0 -26846.84454128 0 -452.04205474 0 45
0.00650000 0.00659388 38260.08624109 0 275.39086289 0 9181.53712634 0 -25622.46686283 0 -2410.35653442 0 40
0.00750000 0.00754703 46004.84528199 0 -2509.11059948 0 7048.27659283 0 9524.74597874 0 4183.14646113 0 57
0.00850000 0.00846663 59604.64968699 0 -22290.47215515 0 13921.78761072 0 4868.66730763 0 -14241.55635149 0 75
0.00950000 0.00948925 73745.00498963 0 -10922.26160038 0 22350.70560217 0 21323.30458225 0 -36454.74367941 0 112
0.01050000 0.01054430 73891.82401673 0 -674.30347422 0 9546.65810956 0 8208.73374010 0 -24265.11056331 0 105
0.01150000 0.01145670 67893.05987648 0 9535.26468732 0 13751.82742476 0 -823.05572923 0 -7797.00934172 0 144
0.01250000 0.01249090 62629.38738094 0 8931.18078987 0 10723.69052708 0 -12936.35070187 0 -6118.54455013 0 169
0.01350000 0.01339930 64409.92793503 0 4279.90750772 0 17036.21113571 0 -6278.91610281 0 5487.25595060 0 180
0.01450000 0.01448870 65107.15222886 0 -8414.41324593 0 12445.29309616 0 -8904.16431731 0 -2290.72006476 0 267
0.01550000 0.01550050 70097.33830138 0 -11193.67749866 0 14809.78806118 0 -1423.87882703 0 -4994.02816923 0 238
0.01650000 0.01653350 77933.66546852 0 -1156.46003801 0 16105.58223471 0 -4703.47929366 0 -18816.41952006 0 315
0.01750000 0.01747870 85496.83838240 0 -6087.14343695 0 2153.92149162 0 5067.01693443 0 -17922.88290719 0 297
0.01850000 0.01844180 80560.02091551 0 1482.10818325 0 -1011.54766525 0 -61.78268670 0 -32710.19414899 0 388
0.01950000 0.01947590 79142.43116898 0 8230.97804066 0 8255.10463644 0 -13711.85633216 0 -33362.24335756 0 399
0.02050000 0.02045430 75889.60358375 0 7183.08214750 0 3730.99700484 0 -11436.49358193 0 -24637.02995397 0 462
0.02150000 0.02154770 66640.44776975 0 2500.51847542 0 8444.12029342 0 -1659.74149032 0 -10115.96383476 0 571
0.02250000 0.02255340 64652.07967881 0 45.17209573 0 9100.85309539 0 -4392.33589393 0 -27770.83004739 0 510
0.02350000 0.02348930 65439.43269667 0 1936.87070820 0 16624.98499195 0 6125.58654872 0 -29486.59750129 0 555
0.02450000 0.02439640 63282.87599174 0 2043.77400433 0 14918.40756765 0 -1596.33028608 0 -24735.13075186 0 592
0.02550000 0.02547300 62642.12055448 0 4303.07081124 0 13695.69073793 0 -8851.05037515 0 -22618.87730928 0 837
0.02650000 0.02652900 57587.05065853 0 7837.78871402 0 12335.23418746 0 -7410.00944466 0 -14744.46134475 0 723
0.02750000 0.02749970 57796.20687436 0 -990.09725038 0 17873.16816876 0 -7819.43079948 0 -18168.13490192 0 826
0.02850000 0.02848090 55892.32062179 0 -2133.55948628 0 15756.02894018 0 7619.28745605 0 -14400.33348939 0 831
0.02950000 0.02946900 60350.81365651 0 -3699.93913372 0 16218.29850136 0 12988.16918202 0 -14405.42675880 0 996
0.03050000 0.03053250 59854.44133489 0 1034.26253961 0 12329.69802505 0 12826.95613266 0 -15344.24918018 0 1041
0.03150000 0.03150510 55515.64013146 0 2997.13438818 0 6549.31334720 0 10336.85671489 0 3416.46547372 0 1036
0.03250000 0.03246190 53419.31687354 0 2765.66743785 0 6905.03392665 0 699.35350189 0 3896.80506900 0 1059
0.03350000 0.03345080 51243.16215369 0 2169.06843197 0 8157.62388874 0 886.46250454 0 9825.35959757 0 1302
0.03450000 0.03451200 50190.95912617 0 2456.15166987 0 14515.92856049 0 -3555.35671624 0 9265.23282964 0 1339
0.03550000 0.03553350 48464.45151720 0 2014.33269263 0 14766.16310139 0 -5965.20392372 0 12102.16175003 0 1365
0.03650000 0.03647120 48336.34471905 0 649.40181571 0 15784.59553821 0 -380.59234269 0 5863.85893466 0 1308
0.03750000 0.03744890 48451.38617391 0 13.77840100 0 19136.96332356 0 -2606.55813021 0 5050.69632765 0 1579
0.03850000 0.03847530 46517.16175135 0 702.81913956 0 14695.85383880 0 3822.84193921 0 1048.08412268 0 1662
0.03950000 0.03950240 48559.67351064 0 751.46429142 0 15831.54219545 0 941.71672708 0 2782.14305718 0 1683
0.04050000 0.04050350 48732.62322431 0 312.74888683 0 11979.36966779 0 2894.53822642 0 6718.78635088 0 1822
0.04150000 0.04152450 47579.44059445 0 42.16341291 0 11938.40206596 0 2357.82942548 0 4266.12246333 0 1887
0.04250000 0.04250150 47624.83712620 0 1907.13044374 0 13400.72400476 0 1137.68137512 0 5653.21902731 0 1920
0.04350000 0.04349210 45287.02646399 0 1766.40119529 0 12800.49327634 0 1440.17728916 0 6291.61605937 0 2005
0.04450000 0.04448520 44119.00691887 0 1824.65269616 0 13216.81268952 0 854.16785474 0 7652.26083936 0 2151
0.04550000 0.04548030 42886.54644331 0 108.36462155 0 15539.89715972 0 341.04974906 0 4022.39844942 0 2274
0.04650000 0.04648670 42485.39611513 0 2159.29156916 0 18641.36606467 0 -496.34796251 0 3289.93094569 0 2311
0.04750000 0.04749250 40513.52578818 0 2277.40005800 0 16655.65533170 0 -191.49364327 0 5373.42137914 0 2568
0.04850000 0.04851840 39271.65383652 0 852.33538498 0 16390.91604528 0 440.97748055 0 4781.60561758 0 2493
0.04950000 0.04949480 40093.22033806 0 -1693.63387658 0 16666.28476352 0 613.55516411 0 3673.15517999 0 2644
0.05050000 0.05050630 41113.97796309 0 -215.35450326 0 17700.43990158 0 145.03306110 0 912.36953015 0 2829
0.05150000 0.05149060 39457.44744698 0 1575.60289402 0 15946.14075732 0 -727.20925667 0 -1749.68198482 0 2784
0.05250000 0.05249300 38334.04937088 0 2120.77095111 0 16092.29544492 0 53.52649698 0 -1949.79211126 0 3055
0.05350000 0.05348950 37309.85932515 0 1478.98578765 0 16306.54493016 0 670.79022556 0 -2475.25143018 0 3009
0.05450000 0.05448610 35032.72500295 0 2199.48410825 0 14872.90031265 0 937.13167737 0 -4237.02439370 0 3336
0.05550000 0.05550870 34464.71473975 0 452.65989047 0 13310.92745048 0 2917.15898602 0 -3377.24729921 0 3349
0.05650000 0.05647670 32016.51299910 0 628.92576542 0 13013.96769884 0 3176.22924213 0 -4808.52243922 0 3324
0.05750000 0.05747970 32317.56951092 0 998.11804247 0 10010.76567666 0 2412.98067540 0 -3197.63204600 0 3639
0.05850000 0.05849280 31684.56470104 0 -617.32861240 0 8984.74869734 0 2138.49774315 0 -2305.35767817 0 3846
0.05950000 0.05951020 32460.62394758 0 -1140.60446887 0 6449.25274782 0 1999.59542830 0 -573.77783719 0 3787
0.06050000 0.06049470 33138.47167297 0 -536.90588832 0 6591.04493945 0 1995.88619948 0 -3976.44830142 0 3930
0.06150000 0.06148310 32927.43316193 0 1602.04360569 0 6382.95166680 0 -1497.53193172 0 -1451.71465162 0 4083
0.06250000 0.06249100 32097.00880053 0 1019.23960930 0 7931.31664177 0 -2380.90415040 0 -1149.08586968 0 4303
0.06350000 0.06350600 30815.60864927 0 1585.11402104 0 9803.27030956 0 -624.21338398 0 752.10537903 0 4470
0.06450000 0.06451750 31085.99482134 0 771.69453610 0 11143.74131373 0 -754.85242281 0 548.92932584 0 4479
0.06550000 0.06550280 30213.71707213 0 667.34673254 0 12703.27826443 0 -533.23873434 0 3182.91692632 0 4636
0.06650000 0.06648880 30527.50675749 0 205.94967056 0 13560.60837514 0 920.94172402 0 1497.27726825 0 4653
0.06750000 0.06749660 30291.22334586 0 -118.41076331 0 13487.08813834 0 891.57459691 0 3339.64568412 0 5220
0.06850000 0.06852730 30538.35763581 0 20.43087520 0 13480.11257371 0 -698.27616469 0 1184.16299470 0 5029
0.06950000 0.06949320 30119.15941818 0 226.02379545 0 13194.66803988 0 485.25017134 0 1590.29586905 0 5040
0.07050000 0.07048030 29868.48198428 0 432.60458852 0 12725.97653031 0 316.90765203 0 651.89973219 0 5475
0.07150000 0.07148790 29798.39416818 0 301.70202836 0 12731.40196947 0 619.61394025 0 -501.34158100 0 5509
0.07250000 0.07249820 29028.64614679 0 585.98950424 0 11134.77273062 0 1222.46216625 0 -2508.78950206 0 5916
0.07350000 0.07351270 27907.35181241 0 1072.83519758 0 9506.44342582 0 873.69057786 0 -633.25615166 0 5721
0.07450000 0.07449140 27195.62277306 0 1012.94831434 0 8443.26772441 0 1141.30202533 0 -1790.73816524 0 6028
0.07550000 0.07549160 26031.03564864 0 1140.80377071 0 8656.12209672 0 1366.95600514 0 -1766.42333994 0 6183
0.07650000 0.07648840 25622.24541633 0 605.00400765 0 8480.68110997 0 653.36681522 0 -1015.96441562 0 6330
0.07750000 0.07749960 24139.55039987 0 475.06141804 0 8251.74972202 0 1308.51627474 0 64.53094845 0 6583
0.07850000 0.07848650 25023.23264364 0 -23.73087089 0 8112.78097322 0 -361.49479684 0 -690.54103857 0 6549
0.07950000 0.07947320 24229.90057039 0 -553.78675473 0 8298.77388552 0 633.47538369 0 -94.00691651 0 6828
0.08050000 0.08048110 24899.33332892 0 38.97026515 0 8791.70271413 0 41.28105934 0 -690.07267923 0 7147
0.08150000 0.08149960 24684.41950419 0 801.66067598 0 8237.41106138 0 -72.21957080 0 -2475.37322576 0 7386
0.08250000 0.08250610 23233.94495295 0 1638.73729013 0 8114.48611124 0 -259.77445597 0 -242.50273648 0 7227
0.08350000 0.08350160 22512.91516076 0 1518.29254076 0 8032.30731644 0 -749.83776690 0 -615.37102538 0 7798
0.08450000 0.08449610 21570.43887220 0 172.42267101 0 8292.91662570 0 234.57716638 0 44.39470781 0 7371
0.08550000 0.08548940 21717.70079229 0 -413.85139198 0 8882.60650089 0 590.02425940 0 -254.69336611 0 8256
0.08650000 0.08650700 21844.70035796 0 -438.37437699 0 8831.04268421 0 1252.44602186 0 -538.23013836 0 8037
0.08750000 0.08749060 22401.85974283 0 508.86522571 0 8662.56618977 0 -262.22697591 0 -131.13175729 0 8155
0.08850000 0.08849210 22197.24318018 0 198.97410592 0 8250.31031979 0 852.97425812 0 -391.17637798 0 8718
0.08950000 0.08949900 21831.52429142 0 357.51983223 0 8412.84097581 0 603.06745804 0 624.97958885 0 8571
0.09050000 0.09049190 21275.80430877 0 680.91254491 0 7923.20062768 0 583.90237101 0 -236.08632425 0 8932
0.09150000 0.09150830 21069.41617415 0 473.87114312 0 6983.38169707 0 1314.99358476 0 302.09620312 0 9285
0.09250000 0.09250820 20684.65288671 0 -129.82411573 0 6376.06468077 0 1885.31796385 0 -1002.17162059 0 9204
0.09350000 0.09350330 20096.60171559 0 569.37326638 0 6072.91549956 0 206.58190030 0 -526.49679575 0 9349
0.09450000 0.09448040 19373.91107467 0 1055.22909389 0 6134.42226392 0 -548.72116613 0 -255.38649364 0 9564
0.09550000 0.09549270 18776.33770421 0 891.08298568 0 6720.65757377 0 -169.34013578 0 733.41972366 0 10155
0.09650000 0.09649430 18007.91836180 0 259.48214659 0 6630.10810141 0 807.46478865 0 895.55509768 0 9913
0.09750000 0.09749140 18064.16577188 0 244.32524115 0 7298.89866510 0 548.48975454 0 -113.03957854 0 10476
0.09850000 0.09850240 17334.05667334 0 611.96296380 0 6826.49792671 0 -95.22752960 0 1030.36065235 0 10575
0.09950000 0.09950330 17421.74948590 0 681.35654513 0 7579.41601438 0 -209.96449554 0 1715.49064578 0 10882
0.10050000 0.10051200 16843.77413037 0 36.84017131 0 6820.54101596 0 123.44092047 0 2284.36455031 0 10875
0.10150000 0.10150300 17116.37476740 0 -242.55809810 0 6598.88414542 0 323.08490205 0 862.56732035 0 11118
0.10250000 0.10250800 17304.93645906 0 -257.32304325 0 6580.24942275 0 162.34353372 0 29.56255365 0 11575
0.10350000 0.10349800 17433.04325721 0 44.62080468 0 6300.69536573 0 -296.75380639 0 210.07521878 0 11364
0.10450000 0.10450100 16980.84951162 0 373.35325672 0 6516.04101112 0 -138.34980584 0 -501.46669827 0 12093
0.10550000 0.10551000 17177.49400040 0 228.67340278 0 6853.94621994 0 -509.72775982 0 -828.65278943 0 12067
0.10650000 0.10649700 16526.99491730 0 333.29026383 0 6878.75929986 0 326.65351233 0 -939.94404788 0 12054
0.10750000 0.10749900 16456.13203846 0 560.01383021 0 6837.75848105 0 -0.99950208 0 -1036.80474539 0 12807
0.10850000 0.10850100 16082.99469208 0 163.67774886 0 6182.25470714 0 556.98333491 0 -1304.90669685 0 12736
0.10950000 0.10950300 15943.04050637 0 273.91602922 0 6409.97921169 0 280.84066117 0 -562.79187651 0 12933
0.11050000 0.11050200 15626.92563280 0 90.34053760 0 5901.79271948 0 1025.42793164 0 -858.39305389 0 13428
0.11150000 0.11150900 15531.70363936 0 106.12568675 0 5753.47892854 0 523.78518341 0 -1021.61130127 0 13453
0.11250000 0.11250000 15392.74596288 0 166.70492247 0 5442.35767346 0 565.87773344 0 -177.13394522 0 13668
0.11350000 0.11349100 15151.03711209 0 219.04048019 0 5275.48666612 0 605.27085068 0 -1144.30262536 0 13791
0.11450000 0.11448600 15117.26652139 0 285.10129176 0 4883.91389891 0 519.26546041 0 -382.50231872 0 14205
0.11550000 0.11549300 14746.01147022 0 160.16339297 0 5170.81997961 0 68.09247245 0 -762.60747912 0 14776
0.11650000 0.11649800 14530.76547575 0 429.48772909 0 4882.45235203 0 -120.75366724 0 -838.95115874 0 14553
0.11750000 0.11747300 14313.96935580 0 134.25968905 0 4433.48065296 0 -54.13148881 0 -354.95437457 0 14568
0.11850000 0.11849100 14190.62365732 0 67.14988543 0 4728.05985476 0 183.17168394 0 -622.29455008 0 16015
0.11950000 0.11950300 14531.87270823 0 -14.93346593 0 4887.62312772 0 256.92222509 0 -458.58579871 0 15270
0.12050000 0.12050700 14326.70252934 0 123.14528940 0 4999.89650138 0 450.14979443 0 -263.51690175 0 15999
0.12150000 0.12150000 14151.53835071 0 315.38077844 0 4400.17509990 0 303.46695693 0 165.23119604 0 15670
0.12250000 0.12250700 14108.68845366 0 87.38101590 0 4323.67640773 0 790.92937877 0 270.89771348 0 16887
0.12350000 0.12352200 14027.52831274 0 -5.20674967 0 4416.59535761 0 520.35719164 0 1128.07059717 0 16407
0.12450000 0.12449800 13899.97513083 0 -46.48217320 0 4390.29858617 0 231.05838155 0 507.88532497 0 16306
0.12550000 0.12549900 13910.82600915 0 140.30185671 0 4089.93963081 0 -71.45646617 0 537.33660175 0 17523
0.12650000 0.12650100 13499.71058864 0 369.73149927 0 4473.93892785 0 61.28775378 0 530.13737615 0 17154
0.12750000 0.12750600 13431.83723750 0 343.71928658 0 4116.39141480 0 61.39471244 0 748.39836468 0 18007
0.12850000 0.12850300 13280.92145022 0 74.18036880 0 4142.03491908 0 418.78079099 0 738.87395087 0 17496
0.12950000 0.12949900 13016.84650330 0 54.90633010 0 3873.81892268 0 102.61897076 0 624.26320944 0 18405
0.13050000 0.13049000 13118.15827539 0 270.01524919 0 4345.45567065 0 237.56337238 0 360.77177403 0 18100
0.13150000 0.13148800 12788.86733528 0 227.44769642 0 3794.80681277 0 -124.10525996 0 432.88693281 0 19059
0.13250000 0.13249300 12497.66519255 0 371.46874704 0 3890.25025271 0 130.61800142 0 1072.00588045 0 18957
0.13350000 0.13349100 12427.90954619 0 128.37807011 0 3586.99034825 0 249.03208643 0 907.71583203 0 19468
0.13450000 0.13450700 12474.08114069 0 -170.75850059 0 3757.49307813 0 461.62625911 0 1080.31455300 0 19953
0.13550000 0.13551000 12458.35843944 0 82.13738431 0 3605.73579417 0 46.78223321 0 833.93982453 0 19956
0.13650000 0.13649900 12276.88303567 0 331.42457710 0 3847.17890916 0 -248.50725823 0 426.70193216 0 19723
0.13750000 0.13749600 12069.27694532 0 475.20757273 0 3888.29045121 0 -476.48089008 0 1258.53580051 0 20946
0.13850000 0.13851100 11844.95164449 0 309.42054599 0 4205.54577424 0 -43.86844021 0 1084.86306403 0 20955
0.13950000 0.13949800 11673.21988655 0 -5.42435407 0 4185.40521540 0 156.61692733 0 1096.92636192 0 20506
0.14050000 0.14048300 11717.06629284 0 -14.91685744 0 3871.61553004 0 584.45709448 0 616.40296605 0 21447
0.14150000 0.14148400 11565.37544282 0 159.22778152 0 3992.25958126 0 251.03617722 0 446.40734864 0 21771
0.14250000 0.14249400 11428.41078481 0 207.01704267 0 3623.44044155 0 250.70400747 0 668.03432391 0 22470
0.14350000 0.14350900 11351.45812732 0 -65.51007413 0 3523.50163774 0 424.48525273 0 536.07878565 0 22519
0.14450000 0.14449900 11092.14428007 0 151.04644071 0 3437.35895065 0 276.86901825 0 568.93369509 0 22218
0.14550000 0.14550500 11153.26351307 0 305.31271348 0 3248.97441619 0 335.99744725 0 504.51933822 0 23559
0.14650000 0.14650700 10798.77196168 0 74.79599006 0 2965.45646688 0 239.07806641 0 885.15818467 0 23044
0.14750000 0.14750500 10649.52809545 0 174.15106091 0 2668.61851082 0 411.44980473 0 655.55802831 0 23649
0.14850000 0.14849900 10562.76535817 0 93.70453132 0 2485.60405389 0 198.56664437 0 922.38444795 0 23640
0.14950000 0.14949500 10441.66734163 0 52.32946794 0 2337.07988877 0 256.23684819 0 463.26385595 0 24457
0.15050000 0.15050000 10354.42849438 0 309.29653595 0 2493.64256171 0 -235.62239384 0 416.58625621 0 24591
0.15150000 0.15149900 10069.93618049 0 289.53686508 0 2313.34082436 0 -127.61297246 0 391.80750050 0 25020
0.15250000 0.15250500 9873.01488359 0 295.22693280 0 2451.88882482 0 -668.33106222 0 171.69632650 0 25297
0.15350000 0.15350100 9850.47163026 0 163.62238724 0 2977.21527584 0 -329.16914453 0 114.83550962 0 25452
0.15450000 0.15450400 9674.97528188 0 197.36640436 0 3136.25814953 0 -432.10854837 0 30.46594463 0 26061
0.15550000 0.15549900 9588.85473944 0 162.95694052 0 3430.93700225 0 -133.89208787 0 -280.70004264 0 26128
0.15650000 0.15649500 9435.49196838 0 97.07915448 0 3246.89281912 0 9.14341511 0 -283.95752060 0 26331
0.15750000 0.15749700 9434.51760380 0 128.75674362 0 3399.49159977 0 318.91838622 0 -284.70268806 0 27345
0.15850000 0.15849900 9426.63410853 0 9.34127756 0 3143.74304111 0 276.60771139 0 -305.53415998 0 26980
0.15950000 0.15949700 9311.59265366 0 -50.55003462 0 2954.71631180 0 306.80304840 0 7.74285460 0 27777
0.16050000 0.16050000 9270.70255811 0 148.30271862 0 2824.35075939 0 456.79208209 0 -135.26284168 0 28224
0.16150000 0.16150500 9127.37131333 0 217.94099834 0 2539.79201155 0 255.93678818 0 128.04811483 0 28075
0.16250000 0.16249700 8913.07753879 0 166.91197494 0 2467.67796001 0 317.67164244 0 279.81868558 0 28590
0.16350000 0.16349900 8886.90256292 0 40.83805563 0 2512.98591316 0 109.34762255 0 242.16170888 0 29163
0.16450000 0.16449100 8798.57862784 0 143.44528972 0 2562.29097558 0 42.62767549 0 278.37374720 0 28996
0.16550000 0.16550500 8635.68258511 0 257.36843978 0 2493.19966871 0 -46.31309880 0 368.20351845 0 30777
0.16650000 0.16650700 8452.91171932 0 182.86387331 0 2628.92422634 0 19.63267131 0 474.80011118 0 29211
0.16750000 0.16749900 8316.79963033 0 199.11140275 0 2512.63159877 0 220.95820685 0 728.57115262 0 30922
0.16850000 0.16850800 8226.22801331 0 28.20940483 0 2484.67397860 0 406.00443538 0 763.02379853 0 30867
0.16950000 0.16949900 8278.01327649 0 -20.94385601 0 2218.99354458 0 392.03116146 0 854.65946596 0 30852
0.17050000 0.17049200 8234.18901486 0 -10.82491372 0 2211.27613418 0 162.77313993 0 820.59988759 0 31257
0.17150000 0.17149500 8204.85842641 0 143.17844669 0 2074.12324665 0 -6.33150965 0 996.57788209 0 32608
0.17250000 0.17250900 8076.28659062 0 214.58386945 0 2125.23309802 0 -246.60946176 0 622.01995643 0 32361
0.17350000 0.17350400 7928.34925872 0 139.58658452 0 2148.42961851 0 -46.04393059 0 971.40052269 0 32508
0.17450000 0.17449800 7908.81767774 0 -24.33918442 0 2160.98563486 0 49.27594220 0 542.37672401 0 32791
0.17550000 0.17549800 7941.94607359 0 -31.16571556 0 2378.78933636 0 58.15162850 0 516.73764866 0 33633
0.17650000 0.17650100 7938.80153335 0 125.05747990 0 2217.28840656 0 -13.32188905 0 479.81476709 0 33984
0.17750000 0.17750300 7936.70886395 0 83.44004332 0 2362.46872958 0 38.14914155 0 578.99179495 0 34069
0.17850000 0.17849800 7875.48998003 0 -24.99643762 0 2211.73009950 0 25.99427553 0 476.30262565 0 34536
