### header ###
fiducial parameters:
Omega_m = 0.31
Omega_nu = 0
Omega_de = 0.69
Omega_k = 0
H_0 = 100
w_de = -1
zeff = 0
beta = 0
fgrowth = 0
b_1 = 2
gamma = 0.55
Lx = 3500 Ly = 3500 Lz = 3500
nx = 700 ny = 700 nz = 700
xoffset = -685.467585 yoffset = -31.7331281 zoffset = 572.489161
bins = 400 dk = 0.001
kx_ny = 0.628318531 ky_ny = 0.628318531 kz_ny = 0.628318531
############################
A(data) = 8.02792671 (not used)
A(ran) = 8.02222954 (used)
Ngal = 477383
weighted Ngal = 0
Nran = 23820508
weighted Nran = 0
SN(data) = 3492.7504
SN(ran) = 69.8765287
SN(data+ran) = 3562.62693
############################
13 columns: k_central k_mean P_0(k) sigma^{lin}_{P_0(k)} P^img_1(k) sigma^{lin}_{P_1(k)} P_2(k) sigma^{lin}_{P_2(k)} P^img_3(k) sigma^{lin}_{P_3(k)} P_4(k) sigma^{lin}_{P_4(k)} N_modes
### header ###
0.00050000 0 0 0 0 0 0 0 0 0 0 0 0
0.00150000 0.00179520 46574.29494741 0 -28995.20772584 0 72478.88464662 0 -104660.37528552 0 55616.84118030 0 3
0.00250000 0.00253879 64622.07367855 0 546.19556884 0 -10853.51353558 0 43931.10956670 0 7943.96123671 0 6
0.00350000 0.00331552 75905.43700824 0 -3135.05126613 0 23083.91495166 0 -42389.62050545 0 32472.36061188 0 7
0.00450000 0.00420575 62460.42370421 0 3127.56637455 0 10733.96564451 0 -43558.74728305 0 1419.18416131 0 24
0.00550000 0.00557378 64062.58910547 0 20670.59103419 0 66316.02865256 0 -14810.89529366 0 -3092.25673070 0 45
0.00650000 0.00659388 51473.13434017 0 13881.48434839 0 52297.35819967 0 -8494.27792485 0 4270.37423606 0 40
0.00750000 0.00754703 37323.81045442 0 -2893.53064486 0 49757.92050251 0 29167.93599301 0 3749.48778729 0 57
0.00850000 0.00846663 45419.11929908 0 -12752.55010988 0 42406.45043917 0 47726.25962154 0 -3203.95434347 0 75
0.00950000 0.00948925 60783.40938718 0 -7210.22041563 0 37122.18341948 0 42418.18710348 0 -29008.60523887 0 112
0.01050000 0.01054430 50649.02120392 0 4583.37778635 0 6358.94686660 0 15316.56836813 0 3055.28623813 0 105
0.01150000 0.01145670 50298.02850717 0 3752.72090613 0 -6675.79251361 0 2285.95896508 0 -181.63705972 0 144
0.01250000 0.01249090 49696.35837652 0 -7562.86288878 0 118.71193054 0 -5568.48252547 0 5356.38107124 0 169
0.01350000 0.01339930 49703.33394116 0 -1269.94029507 0 -958.66292022 0 -11582.42682304 0 2392.34186194 0 180
0.01450000 0.01448870 57613.73496134 0 1506.46729785 0 1555.61734772 0 -9028.42901875 0 5100.66572956 0 267
0.01550000 0.01550050 56556.99228065 0 4690.04856366 0 2963.10913402 0 -5561.27444201 0 17325.97387622 0 238
0.01650000 0.01653350 55035.32268083 0 3428.60074172 0 10593.50213186 0 -3210.53130441 0 5453.21962411 0 315
0.01750000 0.01747870 54183.97162552 0 -205.74261808 0 7992.18121130 0 4223.38328953 0 8117.67494079 0 297
0.01850000 0.01844180 53400.82609110 0 -3953.60609532 0 11247.04610428 0 11753.60496474 0 2650.49311509 0 388
0.01950000 0.01947590 57402.03211081 0 -1264.17161384 0 10966.10800666 0 7709.39403543 0 10700.56044054 0 399
0.02050000 0.02045430 57407.12538023 0 -5254.57104454 0 6791.67546516 0 4762.24012147 0 7507.41268609 0 462
0.02150000 0.02154770 62127.14672717 0 -1636.35674030 0 7660.35470881 0 -455.68706407 0 2857.96633754 0 571
0.02250000 0.02255340 64109.20359295 0 -777.17644411 0 8381.80524934 0 -9228.32877102 0 1141.09165116 0 510
0.02350000 0.02348930 64811.07826321 0 -708.80040943 0 10840.38175835 0 2093.62161066 0 -2791.65418420 0 555
0.02450000 0.02439640 60709.00336440 0 4392.87843785 0 15079.06700077 0 -7645.93854189 0 3449.17312123 0 592
0.02550000 0.02547300 59000.54364488 0 5884.94064111 0 16118.42613150 0 4588.85858714 0 -6085.91440889 0 837
0.02650000 0.02652900 56767.58789870 0 -166.62741620 0 14101.71288903 0 239.54753299 0 10259.45009209 0 723
0.02750000 0.02749970 57193.42951123 0 -2407.10127092 0 14621.11564627 0 1970.51950332 0 2676.15876402 0 826
0.02850000 0.02848090 60446.25709645 0 -1598.69976359 0 18366.77240917 0 2707.44915395 0 6314.48041013 0 831
0.02950000 0.02946900 63023.11925149 0 1050.89981488 0 29663.42252864 0 -7961.85411362 0 3591.69608630 0 996
0.03050000 0.03053250 62083.74321388 0 3141.30712965 0 26484.77951971 0 -5512.19082609 0 9961.50490354 0 1041
0.03150000 0.03150510 61310.78421829 0 967.00923866 0 35698.83606404 0 484.51607620 0 11334.84964010 0 1036
0.03250000 0.03246190 61442.65560688 0 135.00264205 0 30221.57842275 0 -1019.18756937 0 2402.06336313 0 1059
0.03350000 0.03345080 61568.54794007 0 2574.83591960 0 30968.18528527 0 10611.90433571 0 -533.24648496 0 1302
0.03450000 0.03451200 54952.39096793 0 5322.99801191 0 26077.53941288 0 5338.17816924 0 -6183.74947099 0 1339
0.03550000 0.03553350 52698.50852785 0 3444.94349315 0 23091.22268604 0 2336.94702087 0 668.39638893 0 1365
0.03650000 0.03647120 50543.50194840 0 -1382.66763405 0 17758.23743714 0 5182.31305277 0 -2397.65657785 0 1308
0.03750000 0.03744890 50856.07367803 0 -112.49703462 0 20184.84814439 0 2110.66191855 0 -196.26138634 0 1579
0.03850000 0.03847530 49728.24667200 0 2322.46442001 0 17270.16935913 0 -37.45922499 0 -5037.07736812 0 1662
0.03950000 0.03950240 48733.84118004 0 1212.57458019 0 19287.21477134 0 1285.86229816 0 -2870.93202990 0 1683
0.04050000 0.04050350 47128.68625108 0 866.89659935 0 22436.18394977 0 -2310.93812987 0 -1570.93037294 0 1822
0.04150000 0.04152450 47905.63128360 0 1647.41799279 0 21023.02313316 0 -1022.09294740 0 -3645.08683657 0 1887
0.04250000 0.04250150 45972.95698651 0 540.11907698 0 23414.86674049 0 389.44023745 0 -240.38127905 0 1920
0.04350000 0.04349210 45150.50469898 0 2771.38075746 0 22069.57927502 0 -328.38743840 0 -2180.24040771 0 2005
0.04450000 0.04448520 44674.72690152 0 1594.96839013 0 23560.46781185 0 4491.93145568 0 -1067.37764868 0 2151
0.04550000 0.04548030 41836.11498777 0 525.36741862 0 18998.66998657 0 3984.03284392 0 -305.23188551 0 2274
0.04650000 0.04648670 42000.09611833 0 1658.27994344 0 18775.78408797 0 5176.65509479 0 2743.30134172 0 2311
0.04750000 0.04749250 39952.04819663 0 819.91672515 0 17632.78799694 0 3893.83768595 0 3037.34907193 0 2568
0.04850000 0.04851840 39558.64849582 0 1028.18051159 0 16630.85332410 0 1785.22414748 0 4062.09273389 0 2493
0.04950000 0.04949480 38357.74414599 0 1829.12591539 0 16721.64638762 0 2553.80957477 0 7736.43265263 0 2644
0.05050000 0.05050630 36518.52027036 0 1970.64129890 0 16857.72525964 0 -1151.75429996 0 4798.13659854 0 2829
0.05150000 0.05149060 36144.94003098 0 976.15830066 0 19174.05561170 0 79.10600322 0 7055.48467629 0 2784
0.05250000 0.05249300 34757.90990095 0 1187.77257260 0 19301.71951686 0 276.66307301 0 5722.11103233 0 3055
0.05350000 0.05348950 34795.99869833 0 475.70250565 0 21138.50748102 0 1857.21640346 0 5482.86023765 0 3009
0.05450000 0.05448610 34668.77768616 0 95.61118566 0 19042.40566960 0 2882.24794587 0 6194.14638400 0 3336
0.05550000 0.05550870 35007.92299536 0 -969.20709514 0 15902.18362779 0 2584.33597430 0 5074.61254926 0 3349
0.05650000 0.05647670 35541.71977486 0 -738.33029972 0 15179.16081713 0 2475.97113130 0 3998.78118058 0 3324
0.05750000 0.05747970 34752.59518504 0 -364.21637428 0 13760.46383812 0 3857.46509892 0 4125.60358905 0 3639
0.05850000 0.05849280 35341.19997240 0 97.17194056 0 12239.23713128 0 1519.39977324 0 1206.91662221 0 3846
0.05950000 0.05951020 34876.05160676 0 622.74519371 0 12525.78889759 0 -872.01865681 0 -588.49517134 0 3787
0.06050000 0.06049470 33062.29407822 0 2519.34142761 0 12284.41221654 0 -1584.81506827 0 -472.38745160 0 3930
0.06150000 0.06148310 31242.88966402 0 2302.44565674 0 11491.30158978 0 -1911.72545854 0 2758.80259646 0 4083
0.06250000 0.06249100 30501.81896391 0 -195.26376987 0 12896.49033252 0 292.19865196 0 1573.17805488 0 4303
0.06350000 0.06350600 31320.06376801 0 -1608.83094080 0 13068.11136721 0 2543.45695107 0 504.77732339 0 4470
0.06450000 0.06451750 32983.68057201 0 -1050.51339075 0 12608.49916399 0 3613.81859128 0 -2008.89618115 0 4479
0.06550000 0.06550280 32496.27683349 0 310.35615743 0 9913.24063966 0 -303.31415885 0 -2164.62842972 0 4636
0.06650000 0.06648880 32798.99419404 0 1059.82853762 0 11115.17471569 0 232.33502060 0 -1545.64118306 0 4653
0.06750000 0.06749660 32183.26221087 0 406.00886431 0 10739.52395157 0 -610.85573131 0 -195.60811918 0 5220
0.06850000 0.06852730 31585.24594742 0 -32.75304405 0 10961.11438817 0 468.08696064 0 -1899.36874404 0 5029
0.06950000 0.06949320 30838.41763840 0 1672.12034946 0 10560.20765113 0 211.05069060 0 -5050.53024278 0 5040
0.07050000 0.07048030 29867.15330531 0 1476.90419058 0 10943.07757104 0 -532.76816053 0 -4255.90270752 0 5475
0.07150000 0.07148790 28900.53934864 0 657.21998426 0 9166.86629596 0 -14.83780104 0 -4005.24741827 0 5509
0.07250000 0.07249820 28705.11281559 0 34.29464383 0 8750.86798019 0 -254.61475260 0 -4788.86906266 0 5916
0.07350000 0.07351270 28201.43275959 0 362.93862800 0 9671.49857189 0 -54.80878292 0 -4619.59536084 0 5721
0.07450000 0.07449140 28444.47028936 0 833.87339058 0 10668.76072366 0 -1650.86148581 0 -4649.06988950 0 6028
0.07550000 0.07549160 27001.96781198 0 1502.03836792 0 10341.82818874 0 -391.34024839 0 -4068.12715092 0 6183
0.07650000 0.07648840 26322.23779137 0 1272.40942351 0 12056.43304853 0 -152.41498006 0 -1842.65629632 0 6330
0.07750000 0.07749960 25743.59809635 0 -264.83672287 0 12625.55054421 0 2083.32434858 0 -671.85316874 0 6583
0.07850000 0.07848650 25542.30323114 0 469.13108087 0 11807.74863310 0 3185.55213962 0 507.26084585 0 6549
0.07950000 0.07947320 25101.29253362 0 1045.17653019 0 11908.06389596 0 2368.51421893 0 1964.06433796 0 6828
0.08050000 0.08048110 24259.46367765 0 752.22274567 0 10448.25537489 0 2141.34333063 0 3633.63805271 0 7147
0.08150000 0.08149960 23244.79583127 0 683.69391290 0 9720.73720036 0 1695.82619690 0 4047.95337510 0 7386
0.08250000 0.08250610 23004.52638271 0 569.20275258 0 9170.87447754 0 347.68871503 0 5092.01824387 0 7227
0.08350000 0.08350160 22773.66841024 0 265.82437425 0 8870.68160706 0 286.73445967 0 2833.10896832 0 7798
0.08450000 0.08449610 22327.01082706 0 191.10943360 0 9208.13285055 0 -313.68781997 0 3668.44944194 0 7371
0.08550000 0.08548940 22637.36809172 0 183.33666158 0 8549.37381314 0 -778.62359697 0 1566.97755298 0 8256
0.08650000 0.08650700 22206.76537953 0 -170.93565778 0 8297.52271282 0 508.04698091 0 977.83354341 0 8037
0.08750000 0.08749060 22395.21634794 0 3.61683026 0 7918.31773243 0 831.59692060 0 1382.06972851 0 8155
0.08850000 0.08849210 22521.44085087 0 118.05866338 0 8701.47433918 0 799.98543324 0 135.83417364 0 8718
0.08950000 0.08949900 22029.05456619 0 48.72896936 0 8266.24339521 0 734.67532530 0 1003.93987086 0 8571
0.09050000 0.09049190 21766.41902149 0 534.36921870 0 7778.31925742 0 1152.62901362 0 1691.18689280 0 8932
0.09150000 0.09150830 21394.27818433 0 211.37510972 0 7145.52482171 0 1017.98511490 0 1960.33296449 0 9285
0.09250000 0.09250820 21079.71343624 0 211.76817725 0 6812.29213397 0 473.05843448 0 873.15910627 0 9204
0.09350000 0.09350330 20699.26835547 0 1006.87846587 0 6546.08022836 0 -19.54940742 0 902.91155029 0 9349
0.09450000 0.09448040 19763.54618504 0 962.57698704 0 6549.95554204 0 -287.58924314 0 1539.88357415 0 9564
0.09550000 0.09549270 18969.88194204 0 908.31927373 0 6508.15751585 0 -215.83725662 0 1122.95518311 0 10155
0.09650000 0.09649430 18697.05985851 0 540.20654834 0 6477.77505655 0 555.37120442 0 1043.26212522 0 9913
0.09750000 0.09749140 17781.71076575 0 254.74319157 0 7066.55700111 0 -282.58676679 0 627.55611884 0 10476
0.09850000 0.09850240 17941.92730588 0 667.13082221 0 7454.15480371 0 338.78545864 0 1600.53776951 0 10575
0.09950000 0.09950330 17472.35001032 0 230.87790265 0 7606.93074156 0 483.38448461 0 1359.42682426 0 10882
0.10050000 0.10051200 16949.18266264 0 286.81639487 0 7692.59731868 0 604.20680026 0 1954.30961979 0 10875
0.10150000 0.10150300 16858.16815263 0 208.84951243 0 7281.86942953 0 336.47798615 0 1444.35155562 0 11118
0.10250000 0.10250800 16615.79496235 0 121.95390725 0 7066.14732509 0 574.33145344 0 610.07734688 0 11575
0.10350000 0.10349800 16742.24091178 0 217.08842932 0 6723.80211402 0 256.45275852 0 1205.38864138 0 11364
0.10450000 0.10450100 16405.19934430 0 221.92039188 0 6318.21178359 0 162.87500531 0 376.16673446 0 12093
0.10550000 0.10551000 16483.59140402 0 151.06415643 0 6150.16710982 0 724.67480152 0 731.18311405 0 12067
0.10650000 0.10649700 16288.82921046 0 118.57684818 0 5542.15253705 0 488.86196370 0 179.10592627 0 12054
0.10750000 0.10749900 16183.86357117 0 174.47105110 0 5857.60307113 0 194.66918603 0 876.24939213 0 12807
0.10850000 0.10850100 15825.78458654 0 367.45392206 0 5555.82685820 0 71.94697016 0 816.20306740 0 12736
0.10950000 0.10950300 15652.83487287 0 351.32154480 0 5877.72148533 0 551.18365117 0 1705.10480510 0 12933
0.11050000 0.11050200 15279.47607999 0 130.63018098 0 5617.74329859 0 341.68862221 0 1895.43806873 0 13428
0.11150000 0.11150900 15152.47651432 0 115.78440786 0 6106.43142678 0 243.68415354 0 1472.22059719 0 13453
0.11250000 0.11250000 15175.50694994 0 496.59266088 0 5954.79593839 0 96.92026662 0 1678.84125063 0 13668
0.11350000 0.11349100 14645.91765386 0 231.74265122 0 6206.69132802 0 127.54100235 0 1483.63616407 0 13791
0.11450000 0.11448600 14520.02532068 0 361.61548518 0 6244.14900288 0 222.77849705 0 2152.83640379 0 14205
0.11550000 0.11549300 14400.66565913 0 310.31851153 0 6327.93328478 0 38.54254125 0 1888.29641922 0 14776
0.11650000 0.11649800 14047.90139041 0 248.15958723 0 5731.84360584 0 657.91311179 0 1541.13474686 0 14553
0.11750000 0.11747300 13689.71168253 0 87.76588991 0 5677.79958840 0 652.59285972 0 1876.82549071 0 14568
0.11850000 0.11849100 13689.60095928 0 54.67458634 0 5282.03041009 0 549.26371005 0 1334.85733549 0 16015
0.11950000 0.11950300 13633.79644219 0 -11.23143413 0 4651.12934192 0 294.77961088 0 620.32367627 0 15270
0.12050000 0.12050700 13550.20038981 0 2.85537541 0 4391.52761422 0 120.23769690 0 622.67211636 0 15999
0.12150000 0.12150000 13745.95909260 0 -49.95312559 0 3807.34068446 0 123.46306512 0 373.16502720 0 15670
0.12250000 0.12250700 13643.20791829 0 -151.30110418 0 3566.68370453 0 354.84143686 0 141.34819140 0 16887
0.12350000 0.12352200 13703.10919556 0 -20.24851401 0 3234.48074300 0 433.88676374 0 445.47395166 0 16407
0.12450000 0.12449800 13675.53910676 0 197.73179108 0 3296.02072434 0 356.07600108 0 -2.36701946 0 16306
0.12550000 0.12549900 13644.75804376 0 298.41797681 0 3152.83341978 0 -165.88335597 0 154.30281144 0 17523
0.12650000 0.12650100 13203.08300675 0 377.82758318 0 3754.69177995 0 -82.35982731 0 -4.21857790 0 17154
0.12750000 0.12750600 12985.29037756 0 251.58093560 0 3634.13630733 0 -528.30269193 0 168.66693843 0 18007
0.12850000 0.12850300 12965.24946964 0 158.08401037 0 4399.85400248 0 -226.42682808 0 368.10386753 0 17496
0.12950000 0.12949900 12966.13525563 0 59.89817702 0 3995.48162778 0 -19.10518575 0 236.31330691 0 18405
0.13050000 0.13049000 12819.64839828 0 53.43105354 0 4079.45413921 0 118.48162619 0 -54.38493432 0 18100
0.13150000 0.13148800 12794.95711393 0 274.09540089 0 4287.04915723 0 298.12898914 0 -179.23104354 0 19059
0.13250000 0.13249300 12470.42727350 0 396.51323855 0 3775.78455873 0 185.84454315 0 -235.80065827 0 18957
0.13350000 0.13349100 12143.35079835 0 253.66585436 0 3560.66035983 0 78.80705045 0 -130.11642511 0 19468
0.13450000 0.13450700 12056.76521827 0 129.30925263 0 3438.62119568 0 28.41247127 0 147.41361094 0 19953
0.13550000 0.13551000 11918.69332778 0 167.95055901 0 3962.58575075 0 506.54557366 0 -163.93905573 0 19956
0.13650000 0.13649900 11795.45835255 0 200.28839088 0 3337.18762802 0 164.47495625 0 227.40008543 0 19723
0.13750000 0.13749600 11397.85116831 0 320.68995819 0 3574.95473117 0 254.82734124 0 537.13065651 0 20946
0.13850000 0.13851100 11294.21420801 0 160.96502928 0 3413.90776668 0 476.10885997 0 871.40414278 0 20955
0.13950000 0.13949800 11241.50994188 0 -19.38664425 0 3245.70808036 0 627.68787950 0 734.84141017 0 20506
0.14050000 0.14048300 11204.97126997 0 -132.93765347 0 3251.96394389 0 584.85348371 0 621.33347229 0 21447
0.14150000 0.14148400 11350.79378784 0 -127.14129143 0 2967.12838793 0 44.38994671 0 257.67292871 0 21771
0.14250000 0.14249400 11253.91094567 0 305.97483850 0 2785.27652510 0 -128.06583055 0 224.55228348 0 22470
0.14350000 0.14350900 10969.41863178 0 381.18692653 0 2837.34966873 0 -473.83571168 0 351.47434288 0 22519
0.14450000 0.14449900 10790.42342876 0 235.15624896 0 2628.71385217 0 -232.61182872 0 146.23662281 0 22218
0.14550000 0.14550500 10460.11383477 0 278.71145310 0 2834.71445542 0 -130.41759234 0 -229.60790700 0 23559
0.14650000 0.14650700 10453.80260963 0 187.74898302 0 3037.67016935 0 -31.27522085 0 -446.62104451 0 23044
0.14750000 0.14750500 10212.54772415 0 95.36327631 0 2830.94986498 0 103.05034853 0 -323.84999969 0 23649
0.14850000 0.14849900 10215.73655370 0 100.65684408 0 3093.70720525 0 -30.17053501 0 20.29557139 0 23640
0.14950000 0.14949500 10233.33047784 0 14.92139710 0 2976.29627288 0 -61.35573786 0 -462.45557624 0 24457
0.15050000 0.15050000 10124.21271675 0 184.82256757 0 3250.96743465 0 59.19065546 0 -305.37139680 0 24591
0.15150000 0.15149900 10062.15233614 0 147.83657375 0 2980.59233491 0 94.91484715 0 24.16103071 0 25020
0.15250000 0.15250500 9871.67513229 0 16.74689129 0 3149.48957769 0 453.48920760 0 -314.59907230 0 25297
0.15350000 0.15350100 9986.99339527 0 22.50760044 0 3052.28563811 0 151.21363282 0 -323.78356574 0 25452
0.15450000 0.15450400 9845.06833575 0 228.03452964 0 2991.56500880 0 68.43527162 0 -151.32324883 0 26061
0.15550000 0.15549900 9715.31176120 0 137.89030436 0 2716.70561750 0 -9.91872144 0 -77.23046212 0 26128
0.15650000 0.15649500 9637.24079890 0 193.70810824 0 2865.75018189 0 -214.92932598 0 152.41165836 0 26331
0.15750000 0.15749700 9599.06342293 0 74.44377941 0 2911.01384575 0 27.76717618 0 376.00950745 0 27345
0.15850000 0.15849900 9477.20141597 0 54.15928034 0 3113.89205340 0 112.25676517 0 348.03417156 0 26980
0.15950000 0.15949700 9416.79081176 0 144.42961940 0 3129.51510372 0 155.37571972 0 399.83715046 0 27777
0.16050000 0.16050000 9327.49251210 0 185.16580964 0 3216.39963657 0 215.06330111 0 432.07865310 0 28224
0.16150000 0.16150500 9175.97881928 0 143.48182839 0 3156.02224933 0 99.79530648 0 441.08488210 0 28075
0.16250000 0.16249700 8991.32565828 0 155.12548517 0 3109.71778694 0 188.70784635 0 747.78606511 0 28590
0.16350000 0.16349900 8923.27514995 0 219.96391208 0 2916.16247679 0 60.25592383 0 309.49030163 0 29163
0.16450000 0.16449100 8630.00248247 0 108.73576588 0 2993.25907450 0 19.95886199 0 181.18752333 0 28996
0.16550000 0.16550500 8586.67647546 0 249.07859019 0 2736.04896896 0 144.31557445 0 46.91565472 0 30777
0.16650000 0.16650700 8365.54000418 0 178.62760183 0 2731.05535047 0 142.34912957 0 175.99571022 0 29211
0.16750000 0.16749900 8364.20025288 0 -20.41160936 0 2467.04683749 0 233.94715109 0 147.07811950 0 30922
0.16850000 0.16850800 8389.69981694 0 -84.15941227 0 2484.96185905 0 351.71018340 0 495.85081512 0 30867
0.16950000 0.16949900 8491.17767390 0 -22.11519725 0 2279.04983440 0 428.57204783 0 526.90979347 0 30852
0.17050000 0.17049200 8511.82755968 0 10.59758782 0 2229.61190408 0 293.43321618 0 895.12216978 0 31257
0.17150000 0.17149500 8366.54758574 0 115.30719066 0 2172.42334639 0 172.80798791 0 723.60742941 0 32608
0.17250000 0.17250900 8297.14625378 0 217.39291826 0 2241.60323186 0 -87.65937414 0 891.24907056 0 32361
0.17350000 0.17350400 8194.28435621 0 199.73920357 0 2330.95689315 0 -34.35343788 0 839.48927373 0 32508
0.17450000 0.17449800 7878.76738818 0 138.54135706 0 2224.95045533 0 -229.06314862 0 723.29297538 0 32791
0.17550000 0.17549800 7999.85433240 0 92.37972766 0 2468.02120208 0 -199.05050496 0 300.71326975 0 33633
0.17650000 0.17650100 7817.27169614 0 -34.95521873 0 2134.61135714 0 227.98470418 0 19.23938233 0 33984
0.17750000 0.17750300 7833.71409849 0 31.68810784 0 2111.02730527 0 101.39957563 0 -10.79065595 0 34069
0.17850000 0.17849800 7899.52799721 0 5.93512042 0 1865.95246774 0 70.07685450 0 -142.83520463 0 34536
