### header ###
fiducial parameters:
Omega_m = 0.31
Omega_nu = 0
Omega_de = 0.69
Omega_k = 0
H_0 = 100
w_de = -1
zeff = 0
beta = 0
fgrowth = 0
b_1 = 2
gamma = 0.55
Lx = 3500 Ly = 3500 Lz = 3500
nx = 700 ny = 700 nz = 700
xoffset = -685.467585 yoffset = -31.7331281 zoffset = 572.489161
bins = 400 dk = 0.001
kx_ny = 0.628318531 ky_ny = 0.628318531 kz_ny = 0.628318531
############################
A(data) = 8.02344434 (not used)
A(ran) = 8.02338159 (used)
Ngal = 477159
weighted Ngal = 0
Nran = 23820508
weighted Nran = 0
SN(data) = 3485.19904
SN(ran) = 69.8865635
SN(data+ran) = 3555.08561
############################
13 columns: k_central k_mean P_0(k) sigma^{lin}_{P_0(k)} P^img_1(k) sigma^{lin}_{P_1(k)} P_2(k) sigma^{lin}_{P_2(k)} P^img_3(k) sigma^{lin}_{P_3(k)} P_4(k) sigma^{lin}_{P_4(k)} N_modes
### header ###
0.00050000 0 0 0 0 0 0 0 0 0 0 0 0
0.00150000 0.00179520 874.99821942 0 -6999.82409942 0 2634.54896735 0 -31031.07609024 0 -811.52058124 0 3
0.00250000 0.00253879 3034.69171397 0 -9413.95629661 0 -8368.59596583 0 -4494.04626972 0 -11568.25424727 0 6
0.00350000 0.00331552 8484.48998971 0 -10135.26289692 0 4107.35639775 0 -18059.29394896 0 -2868.13073172 0 7
0.00450000 0.00420575 20849.29835676 0 -17586.50567920 0 2391.55572688 0 -13500.37492813 0 7878.59023098 0 24
0.00550000 0.00557378 39307.63889218 0 -10977.55679052 0 14626.76253193 0 -20577.02988947 0 -9037.86263949 0 45
0.00650000 0.00659388 53429.72485887 0 3224.31634881 0 7991.29542531 0 -35137.24774924 0 -5871.32168158 0 40
0.00750000 0.00754703 55639.98233917 0 6161.48302578 0 16028.07596098 0 -23799.40858144 0 -10988.08657143 0 57
0.00850000 0.00846663 50161.28529566 0 -4803.69490560 0 8216.53972910 0 -6791.37651239 0 -11524.18639450 0 75
0.00950000 0.00948925 60533.72846252 0 -11948.92077454 0 13626.59943106 0 11017.01855618 0 -26488.65483339 0 112
0.01050000 0.01054430 74538.22633964 0 -17898.52379259 0 -6942.38087827 0 -1915.46790433 0 -39492.65743990 0 105
0.01150000 0.01145670 83210.40330735 0 -17347.78635611 0 -9649.52000713 0 11219.91890848 0 -49543.67101727 0 144
0.01250000 0.01249090 83266.98288717 0 1182.13675926 0 -26086.84016572 0 -13430.73000502 0 -34145.38889198 0 169
0.01350000 0.01339930 87737.54475595 0 6128.18854505 0 -27634.75117537 0 -13188.24609149 0 -33939.77582010 0 180
0.01450000 0.01448870 78321.97189991 0 8783.76385723 0 -24320.02929441 0 -31134.04871106 0 -28147.73198422 0 267
0.01550000 0.01550050 72475.00933293 0 3694.28117574 0 -24734.24496588 0 -24550.22292739 0 -14767.93467337 0 238
0.01650000 0.01653350 74890.43699212 0 -3672.10330913 0 -14102.93084476 0 -14151.87052046 0 -22346.83028848 0 315
0.01750000 0.01747870 76630.78500711 0 -4483.77115229 0 -11399.29057054 0 -17440.46171484 0 -44508.64202924 0 297
0.01850000 0.01844180 79997.87898446 0 2317.90262219 0 5874.74302995 0 -18598.29472113 0 -30345.14556773 0 388
0.01950000 0.01947590 73430.99385777 0 6704.03801422 0 12684.12314250 0 -3616.77490201 0 -18025.96625125 0 399
0.02050000 0.02045430 73316.17384940 0 6574.23715037 0 23540.53762718 0 -4674.86840633 0 -11430.51452653 0 462
0.02150000 0.02154770 68118.49240979 0 7723.73269607 0 30315.58246046 0 8887.76620425 0 -2698.19269041 0 571
0.02250000 0.02255340 67719.77799307 0 1427.30017540 0 35372.97754463 0 -2124.49125225 0 4776.13588912 0 510
0.02350000 0.02348930 63365.03264189 0 2983.41577773 0 28774.75773870 0 21908.91984190 0 3938.86883099 0 555
0.02450000 0.02439640 59744.05025645 0 -1542.58522141 0 28382.46527037 0 8732.75365679 0 19591.26081086 0 592
0.02550000 0.02547300 61972.79851920 0 1624.77508854 0 19608.20146784 0 12504.19786419 0 14504.41334268 0 837
0.02650000 0.02652900 60196.90834153 0 1492.09542024 0 23767.52028596 0 7614.49313941 0 19727.22895964 0 723
0.02750000 0.02749970 57863.52660925 0 1870.65820579 0 19158.33291046 0 5153.75752706 0 20691.84989784 0 826
0.02850000 0.02848090 57309.24602883 0 2950.61955162 0 26550.99202212 0 1442.75714084 0 27045.92494151 0 831
0.02950000 0.02946900 56638.37386807 0 -1265.19026773 0 23322.08065851 0 2881.30679826 0 17976.03006632 0 996
0.03050000 0.03053250 57288.87295117 0 -149.20843479 0 24136.33942567 0 3013.52142892 0 11574.23330268 0 1041
0.03150000 0.03150510 54806.56845007 0 1365.26193944 0 20662.39751382 0 3697.35928204 0 17029.56774082 0 1036
0.03250000 0.03246190 57539.77183156 0 -1403.87113608 0 15712.95759664 0 10300.49520019 0 10629.63112775 0 1059
0.03350000 0.03345080 56151.52374579 0 -1072.73997559 0 9632.67900108 0 3975.23034569 0 11096.24104025 0 1302
0.03450000 0.03451200 54820.29813285 0 3827.08263962 0 15691.58800974 0 2081.86280170 0 1226.63643271 0 1339
0.03550000 0.03553350 51143.51123032 0 5838.02720085 0 12064.84801539 0 -3382.76131697 0 6770.75984358 0 1365
0.03650000 0.03647120 47652.51793825 0 2488.75966646 0 11720.27726703 0 -1994.97826885 0 10977.23569310 0 1308
0.03750000 0.03744890 48332.24795887 0 824.39326607 0 10832.44290145 0 598.74814413 0 7088.92309724 0 1579
0.03850000 0.03847530 48469.10189362 0 -1524.52625963 0 15647.52015696 0 2721.30063230 0 7815.01294187 0 1662
0.03950000 0.03950240 49249.59007009 0 -186.90637910 0 14152.31341345 0 -562.37223540 0 3702.24217729 0 1683
0.04050000 0.04050350 48037.83484194 0 770.63712908 0 13639.44332785 0 586.42796830 0 2907.21603833 0 1822
0.04150000 0.04152450 46592.34283686 0 1408.67652505 0 10754.26121591 0 2424.46267624 0 4392.71235298 0 1887
0.04250000 0.04250150 45554.42310836 0 454.15797602 0 9737.55606176 0 350.08255165 0 -3294.11628447 0 1920
0.04350000 0.04349210 46129.74110594 0 -463.97912813 0 6304.19422037 0 3244.57870323 0 -288.41302411 0 2005
0.04450000 0.04448520 45156.48375438 0 93.21336300 0 7489.84090660 0 950.29667158 0 -5628.57203226 0 2151
0.04550000 0.04548030 44857.19881453 0 1786.57497111 0 7027.58241775 0 -3029.17769621 0 -4743.55003718 0 2274
0.04650000 0.04648670 44065.30614350 0 1153.81375238 0 7227.84755674 0 -2663.53631372 0 -4973.75474248 0 2311
0.04750000 0.04749250 42610.18121584 0 1762.40408603 0 9800.87868740 0 -2675.68265405 0 -6878.80358916 0 2568
0.04850000 0.04851840 40363.82795663 0 2832.22318234 0 12425.14146499 0 -2948.83690733 0 -3647.54489268 0 2493
0.04950000 0.04949480 39600.39116038 0 2415.25050199 0 11948.58860479 0 1754.47630146 0 -2504.83668210 0 2644
0.05050000 0.05050630 37618.88791084 0 -617.20792406 0 12141.13633339 0 2922.48477426 0 486.07173784 0 2829
0.05150000 0.05149060 39091.39638847 0 -1095.71947852 0 10524.35546337 0 4047.48833746 0 1368.11859924 0 2784
0.05250000 0.05249300 39421.57311456 0 -1141.45703788 0 12091.75376470 0 2575.62205466 0 -1512.81173997 0 3055
0.05350000 0.05348950 40364.04940313 0 85.36574206 0 12463.89460185 0 -718.33146663 0 -548.33031306 0 3009
0.05450000 0.05448610 39700.70642324 0 1674.96593694 0 12998.24499760 0 -3062.52753856 0 -2381.11452457 0 3336
0.05550000 0.05550870 38298.50720821 0 1406.76101286 0 14526.00437608 0 -948.95913474 0 3061.04384704 0 3349
0.05650000 0.05647670 37375.51821133 0 380.32217796 0 12609.93856621 0 246.49763128 0 -1136.55199798 0 3324
0.05750000 0.05747970 37432.76213064 0 -320.55155413 0 13823.57608958 0 4640.44454847 0 -922.91038338 0 3639
0.05850000 0.05849280 37231.24581894 0 389.29519000 0 9178.45902004 0 2918.86412404 0 -3715.36288220 0 3846
0.05950000 0.05951020 35946.30252374 0 1962.22633204 0 7321.24261659 0 1002.47610952 0 -1993.35063710 0 3787
0.06050000 0.06049470 34450.09927099 0 2191.09128604 0 7747.32782026 0 207.89618526 0 493.45919296 0 3930
0.06150000 0.06148310 32955.55686697 0 1266.03176441 0 9078.99632620 0 -1022.45279796 0 -48.50032585 0 4083
0.06250000 0.06249100 32120.92502214 0 1436.96631496 0 10867.09927813 0 -1313.76455671 0 1622.84850402 0 4303
0.06350000 0.06350600 32505.57758634 0 727.47388523 0 13695.91218442 0 -1631.75065317 0 3893.88197525 0 4470
0.06450000 0.06451750 31900.36431175 0 -278.64501915 0 14293.59627814 0 -495.14661526 0 5644.13972095 0 4479
0.06550000 0.06550280 31989.82869629 0 595.90587834 0 16112.44707609 0 1343.89235254 0 7764.05810306 0 4636
0.06650000 0.06648880 31777.90439926 0 344.23636415 0 14989.27044649 0 2998.92810481 0 5939.74864896 0 4653
0.06750000 0.06749660 30350.90317663 0 668.13508207 0 13594.26824259 0 4193.64302506 0 4952.93877183 0 5220
0.06850000 0.06852730 30385.11666032 0 695.39071684 0 11169.09693756 0 2148.15281039 0 2867.35566899 0 5029
0.06950000 0.06949320 29253.52506386 0 341.85913601 0 8799.59728172 0 1663.40642983 0 2657.60154762 0 5040
0.07050000 0.07048030 29008.71596212 0 -159.16134757 0 6937.69728487 0 984.91540236 0 555.90489047 0 5475
0.07150000 0.07148790 28392.31963946 0 -421.59205426 0 5622.57083221 0 553.56420101 0 -859.00978238 0 5509
0.07250000 0.07249820 29468.43888859 0 -1316.80944603 0 5039.21432681 0 710.77792664 0 -2026.91085363 0 5916
0.07350000 0.07351270 29527.56510312 0 297.47018581 0 5704.92678421 0 -311.84870682 0 -3319.35011273 0 5721
0.07450000 0.07449140 29648.91778313 0 784.55504137 0 5814.99676523 0 -1376.61107238 0 -2486.58949080 0 6028
0.07550000 0.07549160 28354.78445833 0 1415.61887271 0 5843.39727839 0 -1212.56350786 0 -2044.02866780 0 6183
0.07650000 0.07648840 27501.66183105 0 1559.65874628 0 7073.88688014 0 -880.91526980 0 -582.67555742 0 6330
0.07750000 0.07749960 26962.32888913 0 504.72749793 0 8587.18580240 0 -265.62950133 0 -1277.30339108 0 6583
0.07850000 0.07848650 26161.57835825 0 768.07831481 0 8665.42284957 0 998.79677599 0 112.81481034 0 6549
0.07950000 0.07947320 25420.06476514 0 778.04451438 0 7161.53540340 0 962.11416386 0 -1248.41569563 0 6828
0.08050000 0.08048110 25063.20373624 0 112.25233624 0 7777.15666332 0 165.84017390 0 -1131.44765624 0 7147
0.08150000 0.08149960 25188.87462293 0 452.48605497 0 7955.12214013 0 -313.28478735 0 24.03026655 0 7386
0.08250000 0.08250610 24701.02799142 0 457.62804261 0 8538.39006692 0 375.32302331 0 967.35248073 0 7227
0.08350000 0.08350160 24356.23579657 0 404.52295832 0 7801.39398235 0 1095.34744840 0 2213.83384121 0 7798
0.08450000 0.08449610 24161.25215651 0 230.72621180 0 7374.26798014 0 850.99009752 0 1617.11303976 0 7371
0.08550000 0.08548940 23888.54079623 0 388.64303006 0 7851.77306027 0 2212.33907736 0 3021.51564744 0 8256
0.08650000 0.08650700 23300.48962511 0 547.09685608 0 7709.73727750 0 735.49467733 0 2429.92133238 0 8037
0.08750000 0.08749060 22791.93774619 0 656.93099658 0 7015.81253646 0 320.24595796 0 3270.86440235 0 8155
0.08850000 0.08849210 21881.57119960 0 802.16557400 0 7429.89534003 0 421.59426872 0 2950.61955162 0 8718
0.08950000 0.08949900 21432.03481196 0 999.38693090 0 7929.03574286 0 -568.02354999 0 3584.80910026 0 8571
0.09050000 0.09049190 20722.07734459 0 552.56658454 0 7193.67836235 0 305.74010522 0 3193.88960021 0 8932
0.09150000 0.09150830 20207.21424053 0 381.69071731 0 7084.36129942 0 919.29416209 0 3876.66451015 0 9285
0.09250000 0.09250820 20139.67305913 0 -83.74519660 0 6696.35382080 0 621.25042985 0 2810.89788474 0 9204
0.09350000 0.09350330 19958.64054835 0 279.80429156 0 5883.64517911 0 316.55776657 0 888.37248057 0 9349
0.09450000 0.09448040 19382.54748803 0 440.10498136 0 5731.78824422 0 -51.56846706 0 1096.57647646 0 9564
0.09550000 0.09549270 19096.77078446 0 678.19761086 0 6395.38588757 0 -884.02880754 0 855.04478287 0 10155
0.09650000 0.09649430 18908.87343229 0 700.08316810 0 6480.12238941 0 -620.93376136 0 1320.38580695 0 9913
0.09750000 0.09749140 18396.66768618 0 154.38253218 0 6533.94496036 0 347.82047569 0 534.25295929 0 10476
0.09850000 0.09850240 18080.44208936 0 177.99094316 0 7032.25493882 0 -85.65705492 0 202.07878580 0 10575
0.09950000 0.09950330 17864.42103215 0 705.77877199 0 7306.48320760 0 357.37699924 0 759.74749762 0 10882
0.10050000 0.10051200 17425.07118334 0 724.67701599 0 6897.28329928 0 127.70708723 0 1326.95169557 0 10875
0.10150000 0.10150300 16636.38948651 0 544.67644587 0 6698.87831085 0 223.64878178 0 1506.32335763 0 11118
0.10250000 0.10250800 16568.40541213 0 197.01873336 0 6662.87111054 0 1191.79182650 0 1471.27944958 0 11575
0.10350000 0.10349800 16491.00986164 0 -295.92116757 0 6300.76179967 0 794.21564478 0 1154.95420183 0 11364
0.10450000 0.10450100 16692.63689659 0 -250.25225662 0 5674.30073376 0 516.86940932 0 1349.50602122 0 12093
0.10550000 0.10551000 16638.71467472 0 237.29431489 0 6038.96775166 0 382.43034861 0 1471.46767910 0 12067
0.10650000 0.10649700 16881.53075800 0 319.48639648 0 5929.10814481 0 -383.44235910 0 1561.51889685 0 12054
0.10750000 0.10749900 16465.76496106 0 -16.42247217 0 6394.53331856 0 -157.23254859 0 2096.20146234 0 12807
0.10850000 0.10850100 16476.83728588 0 153.86213291 0 6334.33308852 0 175.22618365 0 2295.94620207 0 12736
0.10950000 0.10950300 16417.37890160 0 73.98970337 0 6778.48832630 0 415.92302395 0 1497.01153246 0 12933
0.11050000 0.11050200 16315.51351327 0 286.60823516 0 6494.15102496 0 624.92090553 0 1701.81632463 0 13428
0.11150000 0.11150900 15950.23751750 0 304.05046845 0 5900.07650914 0 112.30548340 0 439.91896630 0 13453
0.11250000 0.11250000 15557.05926319 0 363.88088284 0 5499.51301417 0 -206.20654849 0 974.67903807 0 13668
0.11350000 0.11349100 15186.02565852 0 663.15253590 0 5748.90605839 0 -423.94049435 0 -94.31649872 0 13791
0.11450000 0.11448600 14698.95408975 0 488.43346472 0 5308.57077268 0 -476.21515429 0 173.19219758 0 14205
0.11550000 0.11549300 14423.36392501 0 136.55055306 0 5650.50630773 0 329.64968343 0 -169.67451999 0 14776
0.11650000 0.11649800 14450.38039757 0 -89.64010233 0 5102.72518197 0 15.26386410 0 113.33299515 0 14553
0.11750000 0.11747300 14538.62682637 0 -123.85945435 0 5288.99490240 0 821.30298021 0 -528.76551511 0 14568
0.11850000 0.11849100 14576.27273076 0 -54.85440089 0 5255.66720469 0 537.81049725 0 -422.49887766 0 16015
0.11950000 0.11950300 14609.15753547 0 30.75670388 0 5430.13382686 0 879.33635628 0 251.35838187 0 15270
0.12050000 0.12050700 14454.03426476 0 212.45355416 0 4994.79215964 0 198.43599093 0 628.94015944 0 15999
0.12150000 0.12150000 14320.16985770 0 446.41177757 0 5054.41662879 0 497.44744436 0 1070.81228384 0 15670
0.12250000 0.12250700 14037.49340508 0 470.60148560 0 5379.26756664 0 120.50453993 0 1176.27949943 0 16887
0.12350000 0.12352200 13602.35103971 0 329.97631701 0 5102.74732662 0 416.21311886 0 1565.43849983 0 16407
0.12450000 0.12449800 13371.82523698 0 7.22011907 0 4683.49374736 0 443.72563157 0 1433.16850755 0 16306
0.12550000 0.12549900 13349.45914085 0 -44.81689555 0 4612.88553200 0 275.22367078 0 801.09930912 0 17523
0.12650000 0.12650100 13386.88359874 0 244.03071731 0 4504.56497829 0 270.72166351 0 155.70456776 0 17154
0.12750000 0.12750600 12992.15521895 0 427.36073549 0 4265.51348546 0 -97.07383977 0 461.13464788 0 18007
0.12850000 0.12850300 12666.18597629 0 116.29484204 0 3934.80528778 0 23.42494256 0 382.64515171 0 17496
0.12950000 0.12949900 12968.90333683 0 -174.02151471 0 4056.89981355 0 43.59783259 0 169.90814604 0 18405
0.13050000 0.13049000 12982.30084986 0 -204.02308604 0 4069.32296200 0 131.46724873 0 244.99733126 0 18100
0.13150000 0.13148800 13238.07155317 0 248.86157262 0 3913.44677320 0 -137.58138650 0 537.52815297 0 19059
0.13250000 0.13249300 12926.49633278 0 408.44920470 0 3918.90542934 0 263.93322117 0 910.27132460 0 18957
0.13350000 0.13349100 12697.74210202 0 162.60926952 0 4024.65720368 0 329.41827184 0 836.88395570 0 19468
0.13450000 0.13450700 12455.59035824 0 453.87120280 0 4090.91399539 0 348.29658566 0 622.06313850 0 19953
0.13550000 0.13551000 12221.96430457 0 205.89873786 0 3861.07467681 0 171.99085034 0 1093.18613060 0 19956
0.13650000 0.13649900 11914.37512110 0 65.19805602 0 3920.71021828 0 62.91427830 0 824.56156541 0 19723
0.13750000 0.13749600 11811.84539328 0 46.92429113 0 3487.78231787 0 386.76073485 0 1104.71684967 0 20946
0.13850000 0.13851100 12013.14025849 0 -46.02577198 0 3683.77353949 0 141.24743325 0 -192.64184336 0 20955
0.13950000 0.13949800 11540.79488172 0 78.22885365 0 3290.06381359 0 55.38343657 0 474.48012099 0 20506
0.14050000 0.14048300 11732.89971733 0 272.70360966 0 3206.70028003 0 88.28019940 0 -148.82422512 0 21447
0.14150000 0.14148400 11561.61085238 0 -60.95026932 0 2816.01329880 0 453.18914759 0 363.05267294 0 21771
0.14250000 0.14249400 11677.53809323 0 -48.34852428 0 2510.40606148 0 519.38393429 0 321.86916078 0 22470
0.14350000 0.14350900 11509.46020249 0 57.84259992 0 2338.65215890 0 586.51101074 0 187.66040442 0 22519
0.14450000 0.14449900 11480.78288121 0 296.62647466 0 2213.56810542 0 291.46566406 0 107.88972954 0 22218
0.14550000 0.14550500 10969.26361923 0 383.10354596 0 2206.38216661 0 -86.35992610 0 402.98058347 0 23559
0.14650000 0.14650700 10914.11236931 0 353.49725663 0 2176.77477005 0 -240.79981292 0 382.49678256 0 23044
0.14750000 0.14750500 10492.57789114 0 241.90261648 0 2406.65837793 0 -54.45181116 0 621.24046476 0 23649
0.14850000 0.14849900 10506.19685067 0 132.68299000 0 2326.30651672 0 -217.37077361 0 352.60372001 0 23640
0.14950000 0.14949500 10449.81657269 0 -58.24995075 0 2666.49262445 0 -125.85468728 0 206.17443875 0 24457
0.15050000 0.15050000 10436.14225154 0 124.98440255 0 2647.81361248 0 -133.85444197 0 34.94060326 0 24591
0.15150000 0.15149900 10330.45691115 0 142.52850123 0 2888.30450754 0 -187.62275852 0 -412.63122178 0 25020
0.15250000 0.15250500 10402.60417967 0 73.35979881 0 2971.74554738 0 -326.19622532 0 -285.71359132 0 25297
0.15350000 0.15350100 10271.04281617 0 188.39892849 0 2973.29567285 0 -36.48275666 0 -788.90757226 0 25452
0.15450000 0.15450400 10069.94725281 0 239.51542324 0 3004.71893069 0 -189.21163713 0 -533.49118334 0 26061
0.15550000 0.15549900 9822.34792522 0 176.71651857 0 2740.03500590 0 155.88283219 0 -457.53392785 0 26128
0.15650000 0.15649500 9790.59249764 0 201.28268565 0 2860.49082760 0 295.47938181 0 -663.73715465 0 26331
0.15750000 0.15749700 9494.50745966 0 174.65263722 0 2713.06282264 0 125.68970964 0 -771.08555823 0 27345
0.15850000 0.15849900 9484.84132010 0 225.06382489 0 2755.99022596 0 230.38407697 0 -603.14385708 0 26980
0.15950000 0.15949700 9377.03009334 0 26.59959953 0 2570.22983248 0 47.04010765 0 -165.37292179 0 27777
0.16050000 0.16050000 9412.92657040 0 -222.95565425 0 2581.25786800 0 227.09891819 0 -9.16296884 0 28224
0.16150000 0.16150500 9643.24199895 0 45.33862350 0 2956.38823285 0 73.92116568 0 -487.81895070 0 28075
0.16250000 0.16249700 9458.56669330 0 292.79987920 0 2615.92531700 0 -19.55948324 0 -337.43906394 0 28590
0.16350000 0.16349900 9059.50903451 0 382.89427902 0 3053.14927944 0 -80.41453057 0 13.04818118 0 29163
0.16450000 0.16449100 8907.18706198 0 302.48705619 0 2781.23512655 0 -123.37227206 0 247.23726257 0 28996
0.16550000 0.16550500 8630.13535037 0 149.94363716 0 3047.83456353 0 95.26384683 0 14.54327720 0 30777
0.16650000 0.16650700 8475.70963613 0 200.49987228 0 2737.38872026 0 298.44455039 0 356.44913842 0 29211
0.16750000 0.16749900 8401.41433659 0 1.78273287 0 2640.12941906 0 337.47117368 0 312.26613347 0 30922
0.16850000 0.16850800 8307.96391512 0 1.53152397 0 2283.17981155 0 542.16967153 0 150.89032093 0 30867
0.16950000 0.16949900 8450.36508462 0 -13.43294447 0 2130.50352463 0 361.64316599 0 -167.78668860 0 30852
0.17050000 0.17049200 8287.82335628 0 117.27474278 0 1967.30852913 0 55.78004725 0 -168.75108810 0 31257
0.17150000 0.17149500 8349.07545718 0 -0.00396233 0 1988.41238023 0 -153.21772361 0 97.22597351 0 32608
0.17250000 0.17250900 8320.07703848 0 56.38769643 0 2250.56074264 0 -263.66859260 0 111.71422126 0 32361
0.17350000 0.17350400 8347.55854868 0 179.85662989 0 2573.67332550 0 -234.98130623 0 414.20459914 0 32508
0.17450000 0.17449800 8242.89186216 0 123.97682099 0 2766.97397218 0 -235.33008446 0 219.60295429 0 32791
0.17550000 0.17549800 8080.05118106 0 183.21486601 0 3111.67758843 0 112.51364311 0 732.49739900 0 33633
0.17650000 0.17650100 8060.26493661 0 73.84565242 0 3080.59757267 0 222.62902066 0 449.61721561 0 33984
0.17750000 0.17750300 8073.81746218 0 -31.18963178 0 2896.15478584 0 556.81614280 0 696.29421855 0 34069
0.17850000 0.17849800 8091.83213466 0 -81.37605125 0 2663.34808420 0 203.29009814 0 496.10215689 0 34536
