### header ###
fiducial parameters:
Omega_m = 0.31
Omega_nu = 0
Omega_de = 0.69
Omega_k = 0
H_0 = 100
w_de = -1
zeff = 0
beta = 0
fgrowth = 0
b_1 = 2
gamma = 0.55
Lx = 3500 Ly = 3500 Lz = 3500
nx = 700 ny = 700 nz = 700
xoffset = -685.467585 yoffset = -31.7331281 zoffset = 572.489161
bins = 400 dk = 0.001
kx_ny = 0.628318531 ky_ny = 0.628318531 kz_ny = 0.628318531
############################
A(data) = 8.03939928 (not used)
A(ran) = 8.03691824 (used)
Ngal = 478329
weighted Ngal = 0
Nran = 23820508
weighted Nran = 0
SN(data) = 3489.84868
SN(ran) = 70.0044726
SN(data+ran) = 3559.85315
############################
13 columns: k_central k_mean P_0(k) sigma^{lin}_{P_0(k)} P^img_1(k) sigma^{lin}_{P_1(k)} P_2(k) sigma^{lin}_{P_2(k)} P^img_3(k) sigma^{lin}_{P_3(k)} P_4(k) sigma^{lin}_{P_4(k)} N_modes
### header ###
0.00050000 0 0 0 0 0 0 0 0 0 0 0 0
0.00150000 0.00179520 26174.09008529 0 -42640.29793934 0 -16021.76473583 0 30.82036975 0 -3419.59894164 0 3
0.00250000 0.00253879 46521.92285102 0 -38083.59338348 0 3441.13461341 0 -56017.54861549 0 -13811.72870203 0 6
0.00350000 0.00331552 68694.14257711 0 -25543.29974038 0 -18210.20973623 0 12343.31698458 0 -8712.40272377 0 7
0.00450000 0.00420575 76429.15797217 0 2451.80024622 0 6181.74538020 0 -40936.04570326 0 32775.96375841 0 24
0.00550000 0.00557378 69808.79351660 0 10908.31047111 0 -2357.35331551 0 -21673.74366276 0 23546.07378959 0 45
0.00650000 0.00659388 64256.13334330 0 -22570.15908007 0 -22133.79875897 0 30837.08895942 0 5521.93447193 0 40
0.00750000 0.00754703 91251.67920689 0 -31464.22543715 0 -43692.61169011 0 42782.46659002 0 -28805.20663195 0 57
0.00850000 0.00846663 105847.32850608 0 -18924.26396379 0 -45289.01948246 0 -25765.18912974 0 -38432.03944552 0 75
0.00950000 0.00948925 100246.83588956 0 3185.66286287 0 -50353.39013126 0 -27421.49819936 0 -22206.54393303 0 112
0.01050000 0.01054430 107945.64478246 0 4933.73936059 0 -64324.78175717 0 -37005.14894614 0 -20782.42151485 0 105
0.01150000 0.01145670 90723.41858979 0 -898.87015173 0 -34366.39249536 0 -28296.32258328 0 7611.07179104 0 144
0.01250000 0.01249090 96916.28058411 0 3313.02781526 0 -37100.37093958 0 -7240.55858563 0 -2259.67326596 0 169
0.01350000 0.01339930 88504.96758913 0 1488.61871024 0 -10035.80020307 0 -4738.64499729 0 15569.90315998 0 180
0.01450000 0.01448870 94914.29353365 0 3375.83004163 0 -18346.39933150 0 -3617.30637360 0 9387.64845284 0 267
0.01550000 0.01550050 82128.85861906 0 6676.65615494 0 16187.51743836 0 -8240.40058908 0 21994.84108250 0 238
0.01650000 0.01653350 78308.35294039 0 10426.17715920 0 9806.83559815 0 -6997.76464701 0 9209.84906090 0 315
0.01750000 0.01747870 76713.38455026 0 -468.20211282 0 25781.79761697 0 651.32840022 0 23674.95565048 0 297
0.01850000 0.01844180 74103.41614401 0 514.04707373 0 26990.78476392 0 -4204.90357940 0 12333.90550848 0 388
0.01950000 0.01947590 80288.30606446 0 3110.40427108 0 32977.36934686 0 -2677.06669465 0 17023.03506918 0 399
0.02050000 0.02045430 73040.36223817 0 8569.20434689 0 27252.31307613 0 -1498.56165793 0 12918.30281241 0 462
0.02150000 0.02154770 68447.89407314 0 3090.47408641 0 30730.90536441 0 -1144.81195230 0 12295.81671111 0 571
0.02250000 0.02255340 70842.94865466 0 4922.56738485 0 35646.57469089 0 8346.75026896 0 8880.52490382 0 510
0.02350000 0.02348930 66293.88400292 0 -1724.00526356 0 34994.30403583 0 9306.92013259 0 8683.84719807 0 555
0.02450000 0.02439640 67585.02780002 0 759.33007097 0 34161.99737921 0 14450.26967432 0 4515.86982193 0 592
0.02550000 0.02547300 67838.58403837 0 1254.71584845 0 28127.46962980 0 3385.67333840 0 1576.24508886 0 837
0.02650000 0.02652900 65126.63952054 0 -550.17053345 0 27327.05126866 0 5510.72927921 0 11625.38744334 0 723
0.02750000 0.02749970 66158.80164013 0 -1041.80279281 0 21927.07845461 0 5873.21504913 0 8720.81769064 0 826
0.02850000 0.02848090 66814.06182290 0 -2050.47276084 0 22433.85876156 0 6231.12794889 0 15327.97286269 0 831
0.02950000 0.02946900 67767.05682004 0 1976.93037939 0 19629.57105474 0 3239.04254082 0 1266.59645298 0 996
0.03050000 0.03053250 65327.71293925 0 1805.40899563 0 16755.97059455 0 -4101.87559697 0 2367.49556505 0 1041
0.03150000 0.03150510 62226.02258780 0 5837.20784882 0 20028.50691795 0 -5057.43937346 0 10293.39783998 0 1036
0.03250000 0.03246190 63297.15929076 0 -888.82866035 0 22863.35424127 0 -7133.63314486 0 -229.54922368 0 1059
0.03350000 0.03345080 62569.04321068 0 -1299.33731747 0 28309.05575683 0 4075.50131925 0 4745.64270657 0 1302
0.03450000 0.03451200 61753.56648779 0 703.60306016 0 22193.58931299 0 4714.91700520 0 5937.16879728 0 1339
0.03550000 0.03553350 61872.37253309 0 3321.74173489 0 17140.06954251 0 12901.02998569 0 3557.92549560 0 1365
0.03650000 0.03647120 59684.92404192 0 1128.52456249 0 11902.52773355 0 7200.24425097 0 3891.96646305 0 1308
0.03750000 0.03744890 56637.15591234 0 2000.61408218 0 11292.55335929 0 6689.72149823 0 601.77531773 0 1579
0.03850000 0.03847530 53611.97532539 0 2722.71788988 0 4868.81124785 0 1064.99266991 0 2009.66017156 0 1662
0.03950000 0.03950240 51256.11677373 0 3294.53703281 0 7441.32197924 0 -2727.98831649 0 2458.85331713 0 1683
0.04050000 0.04050350 47430.40710239 0 3003.34596241 0 5799.79446326 0 -361.04526045 0 4820.52483932 0 1822
0.04150000 0.04152450 44230.72667629 0 2176.47581728 0 8525.93370150 0 -3320.90023821 0 -157.79391546 0 1887
0.04250000 0.04250150 43388.12275760 0 1383.89666211 0 10012.92478000 0 -1167.51021818 0 715.37072698 0 1920
0.04350000 0.04349210 41815.18829386 0 1765.39361373 0 15658.81392827 0 -2990.04810030 0 -3518.49694692 0 2005
0.04450000 0.04448520 41506.27043142 0 906.86879918 0 13719.60695954 0 -2360.55321739 0 79.34195446 0 2151
0.04550000 0.04548030 40566.45150081 0 748.09387574 0 15266.74290645 0 1815.55124516 0 -70.01019911 0 2274
0.04650000 0.04648670 41751.74387265 0 526.69166867 0 13830.66237747 0 885.25119220 0 -2881.89363147 0 2311
0.04750000 0.04749250 41243.96705646 0 559.23323131 0 12857.40502591 0 1292.16245099 0 -2468.40873344 0 2568
0.04850000 0.04851840 39680.88696182 0 1986.45257874 0 13459.40732630 0 -464.18175167 0 -4976.40102812 0 2493
0.04950000 0.04949480 39105.01534800 0 885.34530696 0 11635.79542867 0 -83.32621982 0 -2682.87966518 0 2644
0.05050000 0.05050630 38334.27081737 0 286.90386624 0 15229.76134155 0 2563.42035271 0 342.98962037 0 2829
0.05150000 0.05149060 37505.95019769 0 1911.19398695 0 13025.15074691 0 3469.14759520 0 906.99723815 0 2784
0.05250000 0.05249300 36601.89487625 0 1380.72997721 0 14189.62714809 0 2767.74903492 0 3333.40089293 0 3055
0.05350000 0.05348950 34527.27337498 0 2025.94756137 0 14653.00394175 0 1434.34217398 0 8397.43937198 0 3009
0.05450000 0.05448610 33956.93792357 0 1065.32373243 0 14173.01866086 0 3109.15309838 0 7333.48860783 0 3336
0.05550000 0.05550870 33468.98056881 0 -1065.10117870 0 13280.92145022 0 1397.03951167 0 6974.59027116 0 3349
0.05650000 0.05647670 34170.08017633 0 -807.26105788 0 13090.92035633 0 -1273.63845156 0 4028.25570925 0 3324
0.05750000 0.05747970 35578.81206300 0 116.30259266 0 14966.68290386 0 -2009.09548299 0 528.87291666 0 3639
0.05850000 0.05849280 34087.48063318 0 1170.16757613 0 14588.12011831 0 -3138.89336284 0 776.12346602 0 3846
0.05950000 0.05951020 33938.11497138 0 431.05114135 0 14553.02084864 0 40.66278073 0 -532.09939211 0 3787
0.06050000 0.06049470 33789.30292581 0 -526.41707502 0 14566.86125466 0 2140.84507601 0 -2066.73800600 0 3930
0.06150000 0.06148310 32941.71646095 0 968.88489049 0 15180.60021936 0 2626.30008536 0 -3355.29087909 0 4083
0.06250000 0.06249100 32909.05310273 0 640.20292825 0 15164.21317863 0 1720.68356612 0 -477.85607283 0 4303
0.06350000 0.06350600 32925.10797372 0 617.42494163 0 14634.62388255 0 89.61518960 0 1372.90184356 0 4470
0.06450000 0.06451750 32519.19654587 0 157.58464852 0 13450.66018969 0 1506.06869416 0 2868.71756494 0 4479
0.06550000 0.06550280 32644.20309307 0 197.59781595 0 13167.09795109 0 1470.70368869 0 4402.12382907 0 4636
0.06650000 0.06648880 32462.94913579 0 -3.48876775 0 11796.56558503 0 1488.99516929 0 3514.04587234 0 4653
0.06750000 0.06749660 31726.75025860 0 764.76990415 0 11768.99549624 0 3438.56583405 0 2361.92618566 0 5220
0.06850000 0.06852730 30913.82017041 0 1571.22932571 0 10240.64928454 0 -399.75853695 0 -1359.73684935 0 5029
0.06950000 0.06949320 29283.08817112 0 950.20477129 0 10404.19859444 0 -285.78113250 0 253.26503620 0 5040
0.07050000 0.07048030 28698.91231369 0 -24.43961040 0 8142.85340743 0 629.24907730 0 -974.62146198 0 5475
0.07150000 0.07148790 28710.20608501 0 313.71550078 0 9525.83106658 0 -446.84359824 0 -216.35211972 0 5509
0.07250000 0.07249820 29183.65869425 0 -694.83820783 0 7877.23940735 0 3016.57739057 0 -373.08641369 0 5916
0.07350000 0.07351270 28391.98746972 0 555.36898995 0 8259.17925197 0 1353.97924045 0 799.43735316 0 5721
0.07450000 0.07449140 28365.41389015 0 1320.39687927 0 6486.73256733 0 2738.10842138 0 2546.12538135 0 6028
0.07550000 0.07549160 26935.42313982 0 591.28871890 0 7067.45385942 0 1562.89186513 0 4112.82612621 0 6183
0.07650000 0.07648840 26877.62560427 0 435.48450021 0 6050.85942852 0 1254.54976358 0 5232.09422515 0 6330
0.07750000 0.07749960 26601.37110005 0 126.79472766 0 6429.34470779 0 482.97259412 0 4698.85106189 0 6583
0.07850000 0.07848650 25775.37566857 0 1292.62748863 0 7063.39031621 0 -711.34482967 0 5713.80678871 0 6549
0.07950000 0.07947320 25154.99330899 0 732.30806225 0 6836.62910392 0 -1149.38482245 0 3794.34177513 0 6828
0.08050000 0.08048110 24035.35982332 0 894.16330645 0 7920.02287045 0 198.17025514 0 3765.74196012 0 7147
0.08150000 0.08149960 23726.22051439 0 358.24839120 0 6729.33827643 0 293.13537064 0 2162.30324151 0 7386
0.08250000 0.08250610 23681.82049187 0 -271.23652662 0 6388.01171925 0 822.48107557 0 1800.67004061 0 7227
0.08350000 0.08350160 23272.03375033 0 348.29437119 0 5425.36165486 0 -139.74381154 0 188.30038480 0 7798
0.08450000 0.08449610 23189.76637692 0 1045.59063513 0 6725.68440924 0 -1304.65203338 0 335.70845957 0 7371
0.08550000 0.08548940 22119.51545995 0 878.82260041 0 6885.87880472 0 -188.86396613 0 1431.83982857 0 8256
0.08650000 0.08650700 21874.81708146 0 615.57254169 0 6585.02159474 0 -662.91890984 0 86.04026808 0 8037
0.08750000 0.08749060 21752.24644572 0 -81.37560836 0 7531.81608999 0 -944.06184548 0 56.58777334 0 8155
0.08850000 0.08849210 21818.45894814 0 343.63070798 0 7981.24175438 0 -256.74063896 0 -467.08270078 0 8718
0.08950000 0.08949900 21467.02335839 0 364.41789059 0 8425.59629400 0 -78.14979725 0 -571.14040942 0 8571
0.09050000 0.09049190 21211.91699457 0 32.26730116 0 8654.29516313 0 166.14798453 0 -376.25974199 0 8932
0.09150000 0.09150830 20915.73230567 0 443.92936235 0 8446.31261373 0 444.22499342 0 -1553.65754623 0 9285
0.09250000 0.09250820 20532.40842045 0 729.83118319 0 8595.75578181 0 850.06334393 0 -430.00037773 0 9204
0.09350000 0.09350330 20006.80516131 0 621.00351701 0 7199.96744285 0 1259.87555181 0 -132.26002719 0 9349
0.09450000 0.09448040 19395.72355457 0 655.56135000 0 7405.87946750 0 755.31967492 0 -461.82666819 0 9564
0.09550000 0.09549270 18824.50231717 0 442.62282802 0 6838.91000284 0 731.88620667 0 -354.82815007 0 10155
0.09650000 0.09649430 18279.07959661 0 598.83229379 0 6649.77255028 0 420.25451742 0 401.17911622 0 9913
0.09750000 0.09749140 17668.77305260 0 415.15128291 0 5890.17785075 0 797.25721240 0 445.64778716 0 10476
0.09850000 0.09850240 17941.81658263 0 -207.20748666 0 5144.08031517 0 485.35646566 0 533.19665950 0 10575
0.09950000 0.09950330 17682.50273538 0 -87.77541211 0 5517.30624016 0 584.37848098 0 10.06658127 0 10882
0.10050000 0.10051200 17724.13467670 0 245.49780034 0 5128.94444714 0 244.12704653 0 702.27770288 0 10875
0.10150000 0.10150300 17437.91508013 0 427.92874575 0 5415.81731087 0 311.78116564 0 941.98689181 0 11118
0.10250000 0.10250800 17025.47098064 0 565.15913956 0 5359.50346684 0 -178.00533718 0 675.26565925 0 11575
0.10350000 0.10349800 16959.59064797 0 -12.69674559 0 5502.76827767 0 544.66648078 0 1061.62003977 0 11364
0.10450000 0.10450100 16774.90426999 0 -44.80980926 0 5161.10955074 0 142.80973828 0 816.30493279 0 12093
0.10550000 0.10551000 16767.92870536 0 417.68352360 0 5720.97058287 0 -468.71586869 0 285.53975582 0 12067
0.10650000 0.10649700 16321.38184542 0 413.89900298 0 5871.66492365 0 -426.90234124 0 -401.56000420 0 12054
0.10750000 0.10749900 15858.55866800 0 524.17382201 0 5905.86733502 0 -565.35954863 0 849.10448060 0 12807
0.10850000 0.10850100 15728.23740489 0 121.51987212 0 6003.21521482 0 117.01454315 0 -15.90129784 0 12736
0.10950000 0.10950300 15673.65084353 0 158.92439982 0 6633.54052210 0 120.34952738 0 276.07623980 0 12933
0.11050000 0.11050200 15634.56553692 0 286.08229973 0 6715.68609993 0 411.88716156 0 1125.76755361 0 13428
0.11150000 0.11150900 15164.65607162 0 590.45165114 0 6575.49939540 0 702.80696000 0 2023.11304621 0 13453
0.11250000 0.11250000 15016.39764230 0 29.26448667 0 6068.68587148 0 1222.93827622 0 2975.89766918 0 13668
0.11350000 0.11349100 15213.92791706 0 -247.40113298 0 6268.54133445 0 1192.01327300 0 2335.90622234 0 13791
0.11450000 0.11448600 15300.40277389 0 -91.17605523 0 5877.48896651 0 613.07241074 0 2984.53408254 0 14205
0.11550000 0.11549300 15159.34135571 0 208.89269449 0 5881.24248462 0 73.23911047 0 3256.03855942 0 14776
0.11650000 0.11649800 14894.71279254 0 374.47488323 0 5350.53488374 0 40.03830161 0 3314.52257911 0 14553
0.11750000 0.11747300 14820.52821625 0 122.19196223 0 5888.81595480 0 -262.89242263 0 2852.18658398 0 14568
0.11850000 0.11849100 14500.42730575 0 272.58292132 0 5831.30629969 0 125.95323097 0 2953.86374279 0 16015
0.11950000 0.11950300 14440.30458198 0 231.56327956 0 5837.06390859 0 362.95855818 0 2691.18390880 0 15270
0.12050000 0.12050700 14208.11793054 0 200.15330851 0 5558.32920361 0 32.91093540 0 2259.06428810 0 15999
0.12150000 0.12150000 14063.84553815 0 82.88520913 0 5886.34682636 0 502.76548197 0 2198.52081599 0 15670
0.12250000 0.12250700 13914.47987634 0 169.72434545 0 5157.75463632 0 452.71968102 0 1666.91635680 0 16887
0.12350000 0.12352200 13948.25046704 0 201.01916432 0 5157.85428724 0 650.90765188 0 1940.55779237 0 16407
0.12450000 0.12449800 13734.55459804 0 -26.21904372 0 4609.56383455 0 435.12243519 0 2070.84583851 0 16306
0.12550000 0.12549900 13658.93061953 0 70.67542438 0 4268.91268918 0 246.39908758 0 1965.33765531 0 17523
0.12650000 0.12650100 13631.02836099 0 109.33787891 0 4286.83878306 0 68.18747299 0 911.48485140 0 17154
0.12750000 0.12750600 13471.80833010 0 172.02296008 0 4278.94421547 0 -152.62646146 0 413.28227448 0 18007
0.12850000 0.12850300 13308.27009252 0 150.50832572 0 3908.75210748 0 -454.45139262 0 481.91297264 0 17496
0.12950000 0.12949900 13270.51346489 0 176.40095731 0 3982.63773099 0 34.20329715 0 660.10986104 0 18405
0.13050000 0.13049000 13002.56320428 0 245.93072824 0 3751.31472088 0 370.08470644 0 764.24950489 0 18100
0.13150000 0.13148800 12928.71079774 0 66.95611975 0 3223.23126098 0 965.13801577 0 217.31209029 0 19059
0.13250000 0.13249300 12707.59647111 0 80.08656831 0 3150.81825667 0 712.51960333 0 676.97633343 0 18957
0.13350000 0.13349100 12753.43589586 0 189.09648495 0 2744.57465907 0 718.90058413 0 616.93997380 0 19468
0.13450000 0.13450700 12529.11059504 0 68.96164994 0 2680.84235742 0 155.32700149 0 1155.48567342 0 19953
0.13550000 0.13551000 12411.63322871 0 118.63996043 0 2562.87780880 0 -7.02741633 0 734.80044257 0 19956
0.13650000 0.13649900 12419.60530258 0 152.60210235 0 2964.65925949 0 -695.68966961 0 1021.14847810 0 19723
0.13750000 0.13749600 12102.38319652 0 415.84773214 0 3181.48859642 0 -544.22026609 0 765.92917656 0 20946
0.13850000 0.13851100 11817.60300219 0 473.20237470 0 3403.92052970 0 -504.90576236 0 690.14132764 0 20955
0.13950000 0.13949800 11535.81233555 0 237.98301349 0 3586.32600876 0 100.14275604 0 368.81913971 0 20506
0.14050000 0.14048300 11377.69953714 0 312.61159000 0 3711.26612201 0 -48.85530458 0 -166.71820926 0 21447
0.14150000 0.14148400 11234.31293074 0 174.84529568 0 3430.54947089 0 -266.69687344 0 -150.79509894 0 21771
0.14250000 0.14249400 10942.63467805 0 248.02893380 0 3635.22139516 0 -18.52012411 0 -345.41778120 0 22470
0.14350000 0.14350900 10842.68480191 0 193.48998344 0 3272.51417875 0 345.48310792 0 26.25059985 0 22519
0.14450000 0.14449900 10635.73197872 0 -207.90615035 0 3215.82387568 0 688.24796010 0 -245.44133149 0 22218
0.14550000 0.14550500 10830.28379811 0 -100.63890691 0 2965.41217758 0 662.35422128 0 -480.37724119 0 23559
0.14650000 0.14650700 10849.07353333 0 186.57753105 0 3123.62462691 0 382.24986971 0 -5.77170398 0 23044
0.14750000 0.14750500 10567.50431319 0 309.53348370 0 2627.72841526 0 -217.09507272 0 240.61822680 0 23649
0.14850000 0.14849900 10420.50812890 0 227.74332750 0 2770.04100615 0 191.51800239 0 1052.20745645 0 23640
0.14950000 0.14949500 10298.39145847 0 67.36834240 0 2877.19896575 0 179.03617062 0 939.87761393 0 24457
0.15050000 0.15050000 10184.87798443 0 207.71349190 0 2851.86548656 0 -28.22656694 0 668.63887285 0 24591
0.15150000 0.15149900 9944.54210192 0 279.86076042 0 3053.33750896 0 -43.83345166 0 239.61839587 0 25020
0.15250000 0.15250500 9757.91806710 0 302.28332541 0 3107.35938175 0 -211.18909466 0 871.12290573 0 25297
0.15350000 0.15350100 9718.06877008 0 56.22260807 0 3074.87318074 0 55.00121992 0 668.46171565 0 25452
0.15450000 0.15450400 9584.04935047 0 24.82847045 0 3118.11060915 0 160.50774227 0 910.69760910 0 26061
0.15550000 0.15549900 9649.07711413 0 -38.89430901 0 2961.71402109 0 306.82297858 0 985.71150252 0 26128
0.15650000 0.15649500 9675.63962137 0 52.70913796 0 3029.19984086 0 394.29766635 0 1008.51495548 0 26331
0.15750000 0.15749700 9707.38397663 0 141.59842594 0 2906.87279626 0 170.46065505 0 1004.05170134 0 27345
0.15850000 0.15849900 9365.30450136 0 270.66962359 0 2925.95041193 0 220.12003186 0 891.44062178 0 26980
0.15950000 0.15949700 9209.73833765 0 207.51861898 0 2781.66694721 0 -75.64667678 0 1154.76597231 0 27777
0.16050000 0.16050000 9120.46218264 0 147.57083795 0 2728.11011207 0 117.52608456 0 792.21930461 0 28224
0.16150000 0.16150500 8988.77902357 0 14.78199653 0 2624.59494734 0 -48.01580092 0 971.47913619 0 28075
0.16250000 0.16249700 9061.75671645 0 -30.93596482 0 2535.66203439 0 124.85707082 0 555.78198767 0 28590
0.16350000 0.16349900 8932.60911977 0 -4.62731277 0 2269.82658782 0 127.50446368 0 547.81102103 0 29163
0.16450000 0.16449100 9051.24908020 0 114.09366386 0 2263.94718334 0 174.99145036 0 685.99142030 0 28996
0.16550000 0.16550500 8839.35800015 0 179.59753749 0 2413.83324441 0 -228.13750226 0 340.19385836 0 30777
0.16650000 0.16650700 8678.02315521 0 267.37449972 0 2468.40873344 0 -15.02968443 0 423.05913730 0 29211
0.16750000 0.16749900 8539.94019240 0 170.01997652 0 2659.95995281 0 -55.07285786 0 411.81076251 0 30922
0.16850000 0.16850800 8452.08129496 0 144.51598353 0 2741.58513137 0 -29.88686204 0 640.71668412 0 30867
0.16950000 0.16949900 8289.93817032 0 83.72748088 0 2617.02147716 0 170.90022634 0 432.17830402 0 30852
0.17050000 0.17049200 8338.16921723 0 99.02356544 0 2662.51765984 0 223.00769417 0 414.91322793 0 31257
0.17150000 0.17149500 8174.22130364 0 123.94803295 0 2447.61490744 0 29.60263547 0 299.98360354 0 32608
0.17250000 0.17250900 8173.14728813 0 133.21003266 0 2502.58900016 0 195.95025401 0 461.61297232 0 32361
0.17350000 0.17350400 7995.04894342 0 24.00424659 0 2177.92629183 0 245.57530662 0 647.78193458 0 32508
0.17450000 0.17449800 8099.53847274 0 -104.14219048 0 2027.99594146 0 269.26011664 0 469.57286663 0 32791
0.17550000 0.17549800 8081.95562093 0 32.57765842 0 2104.32854876 0 289.37299467 0 516.87383825 0 33633
0.17650000 0.17650100 8022.33115178 0 219.63838573 0 1874.43386855 0 93.97447460 0 282.61887653 0 33984
0.17750000 0.17750300 7878.22484426 0 139.86892881 0 1883.50210258 0 -85.11916138 0 340.70650699 0 34069
0.17850000 0.17849800 7714.08870115 0 103.38484347 0 1916.55299216 0 -45.80521127 0 596.80384389 0 34536
