### header ###
fiducial parameters:
Omega_m = 0.31
Omega_nu = 0
Omega_de = 0.69
Omega_k = 0
H_0 = 100
w_de = -1
zeff = 0
beta = 0
fgrowth = 0
b_1 = 2
gamma = 0.55
Lx = 3500 Ly = 3500 Lz = 3500
nx = 700 ny = 700 nz = 700
xoffset = -685.467585 yoffset = -31.7331281 zoffset = 572.489161
bins = 400 dk = 0.001
kx_ny = 0.628318531 ky_ny = 0.628318531 kz_ny = 0.628318531
############################
A(data) = 7.99693873 (not used)
A(ran) = 7.98755987 (used)
Ngal = 474975
weighted Ngal = 0
Nran = 23820508
weighted Nran = 0
SN(data) = 3497.32212
SN(ran) = 69.5745433
SN(data+ran) = 3566.89666
############################
13 columns: k_central k_mean P_0(k) sigma^{lin}_{P_0(k)} P^img_1(k) sigma^{lin}_{P_1(k)} P_2(k) sigma^{lin}_{P_2(k)} P^img_3(k) sigma^{lin}_{P_3(k)} P_4(k) sigma^{lin}_{P_4(k)} N_modes
### header ###
0.00050000 0 0 0 0 0 0 0 0 0 0 0 0
0.00150000 0.00179520 8768.09651761 0 -984.13701793 0 10742.04844163 0 -36421.30525846 0 -36445.77509630 0 3
0.00250000 0.00253879 22442.71662141 0 -6693.29785915 0 3599.25848415 0 18218.40325660 0 9389.89613478 0 6
0.00350000 0.00331552 26913.94282968 0 -10583.52596720 0 31420.26830762 0 -33866.14486006 0 43951.26119787 0 7
0.00450000 0.00420575 37234.45679314 0 -6159.19105454 0 40890.09555526 0 6050.85942852 0 27056.99726633 0 24
0.00550000 0.00557378 63370.12591131 0 -14329.69205704 0 51591.94038548 0 48177.56758115 0 23168.39679002 0 45
0.00650000 0.00659388 70824.56859546 0 -2472.95945895 0 92306.09669937 0 55386.86899382 0 38206.05329597 0 40
0.00750000 0.00754703 79589.97453815 0 2728.66372831 0 63943.11872068 0 31858.40020069 0 8068.24808280 0 57
0.00850000 0.00846663 82906.80016082 0 9063.21826333 0 71157.95629575 0 62855.70570024 0 35817.75283259 0 75
0.00950000 0.00948925 73785.97259146 0 5858.85424384 0 46009.16348867 0 23577.96208507 0 25732.52577153 0 112
0.01050000 0.01054430 80950.87398161 0 3357.56070568 0 59068.52771927 0 38343.90373996 0 15899.41554658 0 105
0.01150000 0.01145670 68254.90345155 0 5783.80602622 0 24777.64847917 0 27161.52001262 0 25887.75976548 0 144
0.01250000 0.01249090 64055.94571058 0 8358.53122257 0 23746.26142231 0 23437.67572961 0 14911.43200302 0 169
0.01350000 0.01339930 57875.26327356 0 525.68630158 0 9266.79402744 0 8247.12149025 0 25490.70619749 0 180
0.01450000 0.01448870 52487.35929356 0 861.06037694 0 -6717.22515308 0 14314.85514179 0 313.59259798 0 267
0.01550000 0.01550050 58012.56010131 0 -6643.28416794 0 -7944.28233413 0 -354.68420985 0 -5358.80591038 0 238
0.01650000 0.01653350 57490.83215586 0 -4024.39146788 0 -4659.34500693 0 -16129.16628657 0 -12590.00838154 0 315
0.01750000 0.01747870 71878.98608794 0 1620.49009883 0 1942.39579829 0 -21723.01550820 0 -12037.49937309 0 297
0.01850000 0.01844180 65103.49836167 0 -929.20500004 0 9777.85932410 0 -25402.12759894 0 -8966.88903741 0 388
0.01950000 0.01947590 64674.88866794 0 3681.42620663 0 22283.82876026 0 -9884.72940325 0 -19679.95013266 0 399
0.02050000 0.02045430 68978.70132495 0 -2169.62204821 0 14575.16549827 0 167.17992520 0 -20059.62015069 0 462
0.02150000 0.02154770 66510.90156937 0 -1443.48791428 0 12812.78355689 0 6194.56713234 0 -30996.30899031 0 571
0.02250000 0.02255340 66449.33944338 0 -558.71061758 0 9920.80303751 0 124.71423783 0 -29221.08315214 0 510
0.02350000 0.02348930 69142.35028577 0 2854.99895449 0 5245.90141420 0 -768.55774647 0 -32598.91728456 0 555
0.02450000 0.02439640 66467.49805608 0 5612.67217382 0 6782.15326582 0 -4713.33366275 0 -12884.97511471 0 592
0.02550000 0.02547300 62082.30381165 0 1787.15073200 0 8227.97744063 0 -6298.60269634 0 -5566.91025534 0 837
0.02650000 0.02652900 62806.43385479 0 309.78150378 0 21491.38247299 0 4023.46139260 0 7338.34935843 0 723
0.02750000 0.02749970 64565.93699172 0 1644.45060974 0 27608.50976555 0 3390.32371482 0 5499.34692930 0 826
0.02850000 0.02848090 60818.50865685 0 2873.91048528 0 28699.90882292 0 11668.45878688 0 18529.09269101 0 831
0.02950000 0.02946900 61674.73153508 0 2171.82544085 0 30024.26959448 0 2479.27068409 0 13011.64251063 0 996
0.03050000 0.03053250 59628.34446210 0 642.88575255 0 33522.68134418 0 7211.87019203 0 20441.39391044 0 1041
0.03150000 0.03150510 58873.21190947 0 1479.06329392 0 26218.93300081 0 5875.80597314 0 13045.41310133 0 1036
0.03250000 0.03246190 57595.24417890 0 1306.12465258 0 27811.46547948 0 -1806.04011814 0 11643.98894903 0 1059
0.03350000 0.03345080 54449.15380493 0 3109.31918325 0 20866.90335322 0 4011.62507737 0 7308.34335817 0 1302
0.03450000 0.03451200 52579.59175930 0 675.02649703 0 18141.45059911 0 2145.13006571 0 -2904.01613646 0 1339
0.03550000 0.03553350 51838.52105919 0 -151.02208160 0 15645.63786174 0 590.91668878 0 -7926.97629044 0 1365
0.03650000 0.03647120 52906.33606470 0 -416.95385739 0 19980.67447474 0 -1942.38472596 0 -12017.01557217 0 1308
0.03750000 0.03744890 50512.38871566 0 2496.20026874 0 16258.26959396 0 -1277.67985012 0 -9419.86891806 0 1579
0.03850000 0.03847530 49967.74105783 0 1187.56219842 0 17897.63800660 0 -2251.94478324 0 -4056.32405266 0 1662
0.03950000 0.03950240 47982.91611084 0 3504.42402208 0 20261.57935539 0 4412.05570443 0 -3858.05193213 0 1683
0.04050000 0.04050350 46580.71689580 0 2046.47565158 0 17723.58106046 0 1530.52745968 0 -526.07936911 0 1822
0.04150000 0.04152450 43645.99720262 0 1957.60917259 0 20528.20093702 0 3776.09458383 0 -1532.59798442 0 1887
0.04250000 0.04250150 41889.26214690 0 1496.09252950 0 18650.33464778 0 1917.63807999 0 -280.81076589 0 1920
0.04350000 0.04349210 41678.00218936 0 1901.68285993 0 20021.08846032 0 2701.92406387 0 -3506.23988335 0 2005
0.04450000 0.04448520 40081.26222726 0 647.99120152 0 17906.49586646 0 -105.95849465 0 -756.67603471 0 2151
0.04550000 0.04548030 39549.56918947 0 804.28481697 0 15893.76866093 0 3419.74288186 0 -2160.96349021 0 2274
0.04650000 0.04648670 38933.94792955 0 657.14579968 0 12854.74766795 0 750.28176713 0 -5191.60273329 0 2311
0.04750000 0.04749250 38775.83513114 0 545.38950359 0 12909.00205956 0 1850.27405579 0 -4065.96804758 0 2568
0.04850000 0.04851840 38215.90766506 0 -670.40712312 0 11912.27137939 0 687.01671758 0 -7023.99498450 0 2493
0.04950000 0.04949480 37568.73027941 0 497.98888104 0 10529.71446858 0 -494.38151762 0 -8025.65284922 0 2644
0.05050000 0.05050630 38160.87821071 0 1402.74175895 0 13850.03894590 0 -3468.84864243 0 -8897.62057334 0 2829
0.05150000 0.05149060 37649.55825059 0 1859.24263890 0 16747.77707419 0 -3991.70596502 0 -2764.83701349 0 2784
0.05250000 0.05249300 35831.48251537 0 1519.23368837 0 20679.00600105 0 -2931.70802083 0 -1701.60595045 0 3055
0.05350000 0.05348950 35928.80825052 0 1371.45136901 0 22336.53302640 0 1582.74454353 0 799.85588704 0 3009
0.05450000 0.05448610 36045.62127736 0 526.10594269 0 24447.80392282 0 4498.27589780 0 2724.53375115 0 3336
0.05550000 0.05550870 35582.35520695 0 214.19855255 0 22622.53117647 0 3918.80577841 0 5664.94461929 0 3349
0.05650000 0.05647670 35141.01233968 0 0.87087156 0 19320.98536204 0 5651.23708116 0 5722.83073344 0 3324
0.05750000 0.05747970 35403.75860762 0 -1046.04570768 0 18572.05331131 0 4050.16784006 0 5163.54546220 0 3639
0.05850000 0.05849280 35032.06066346 0 -15.50391210 0 14457.02379246 0 1851.39236060 0 4235.11995383 0 3846
0.05950000 0.05951020 34893.65660323 0 929.13081546 0 13125.90890276 0 347.34879465 0 -199.61519353 0 3787
0.06050000 0.06049470 34367.94262084 0 982.74633393 0 12969.12478333 0 -2569.11152767 0 1541.83230332 0 3930
0.06150000 0.06148310 33277.31862620 0 1137.95818324 0 13194.66803988 0 -1899.60126286 0 -2020.69927940 0 4083
0.06250000 0.06249100 32172.41133255 0 642.93114908 0 14827.83595063 0 64.69924778 0 72.98400410 0 4303
0.06350000 0.06350600 32102.76640944 0 1152.14183133 0 13512.55448543 0 3616.25450274 0 -1524.91379100 0 4470
0.06450000 0.06451750 30796.01063434 0 274.59033380 0 11796.01196879 0 3010.05579125 0 -1469.55216691 0 4479
0.06550000 0.06550280 31187.19587018 0 107.48935428 0 11631.25577549 0 2345.77166375 0 -3047.80134656 0 4636
0.06650000 0.06648880 30427.08077138 0 275.58019964 0 9607.29016027 0 129.87061950 0 -1056.08166290 0 4653
0.06750000 0.06749660 30104.54394942 0 511.42625444 0 9765.83477935 0 -800.10058542 0 -3163.19711581 0 5220
0.06850000 0.06852730 29394.47575880 0 608.26037838 0 9586.82850400 0 -272.73571940 0 -1957.79740211 0 5029
0.06950000 0.06949320 29455.92716154 0 192.45139937 0 10513.69281457 0 -697.78455347 0 -2905.21194754 0 5040
0.07050000 0.07048030 29424.26031256 0 -129.75546732 0 11364.30202411 0 258.26751256 0 -4795.21350478 0 5475
0.07150000 0.07148790 28849.16376148 0 483.85505841 0 9888.43863206 0 746.15511167 0 -4249.39218052 0 5509
0.07250000 0.07249820 28889.79919356 0 885.99968136 0 10828.73367264 0 443.20412507 0 -4334.12868236 0 5916
0.07350000 0.07351270 27677.49034917 0 486.20682020 0 10989.57026295 0 1494.94100771 0 -1887.47706719 0 5721
0.07450000 0.07449140 27213.22776952 0 1231.88471467 0 8972.04874077 0 1027.60032177 0 -1813.90146877 0 6028
0.07550000 0.07549160 25988.73936783 0 805.65335631 0 9042.21406315 0 1957.24378587 0 -1765.19431189 0 6183
0.07650000 0.07648840 25093.32045975 0 541.38907264 0 7739.03464897 0 1146.91569401 0 -1973.89656239 0 6330
0.07750000 0.07749960 25185.44220224 0 -346.54937280 0 7022.78810110 0 766.01664793 0 -2644.04902204 0 6583
0.07850000 0.07848650 25115.68655588 0 33.08355294 0 6973.68234053 0 322.78373481 0 -2525.74123136 0 6549
0.07950000 0.07947320 24999.53786853 0 209.35551767 0 6881.84847848 0 -1194.42703981 0 -4517.71890018 0 6828
0.08050000 0.08048110 24757.71829449 0 467.60642174 0 7174.92184411 0 -589.54814943 0 -2839.06587907 0 7147
0.08150000 0.08149960 24052.74337329 0 792.17944424 0 7442.40706708 0 -317.09920325 0 -1598.93228241 0 7386
0.08250000 0.08250610 24074.55585318 0 665.57958950 0 8019.57414290 0 537.79610323 0 -1712.66720295 0 7227
0.08350000 0.08350160 24036.46705581 0 -205.19675247 0 7413.48615465 0 2170.78464232 0 -896.45306322 0 7798
0.08450000 0.08449610 23642.40301551 0 182.89376859 0 6863.42412998 0 1434.09858284 0 -1095.29873018 0 7371
0.08550000 0.08548940 23573.86532488 0 568.41440305 0 5825.70370333 0 863.46971482 0 1284.95436753 0 8256
0.08650000 0.08650700 22835.78415247 0 873.06056258 0 6506.16449739 0 1054.32116325 0 954.80089332 0 8037
0.08750000 0.08749060 22254.04420650 0 419.09856671 0 5008.07894942 0 993.06241896 0 3036.10897155 0 8155
0.08850000 0.08849210 21685.03743407 0 340.92131010 0 5517.09586599 0 1097.88079632 0 2478.22988556 0 8718
0.08950000 0.08949900 21448.64329919 0 531.63214000 0 5273.57115392 0 491.08417929 0 2833.08682367 0 8571
0.09050000 0.09049190 20977.73732466 0 406.20927339 0 4714.50732918 0 909.39439647 0 3192.89309098 0 8932
0.09150000 0.09150830 19972.37023112 0 722.33300482 0 5202.67505811 0 332.78315135 0 4012.28941686 0 9285
0.09250000 0.09250820 20103.02366398 0 636.66864216 0 4779.46865889 0 -412.25254828 0 3224.28313184 0 9204
0.09350000 0.09350330 19446.98841848 0 -8.48443463 0 5377.03095703 0 463.80861433 0 3467.69712065 0 9349
0.09450000 0.09448040 19089.02015709 0 593.17322858 0 5152.84959643 0 -409.91296604 0 3891.36855751 0 9564
0.09550000 0.09549270 19006.19916745 0 526.72931458 0 5535.71951633 0 -42.74803166 0 3630.85889918 0 10155
0.09650000 0.09649430 18425.89862370 0 256.72845941 0 5563.64391952 0 -274.52057816 0 1781.02773638 0 9913
0.09750000 0.09749140 18414.71557564 0 337.63504409 0 5748.92820304 0 -551.70405044 0 1797.78016383 0 10476
0.09850000 0.09850240 17894.42703241 0 359.95685092 0 6620.53054044 0 -943.40193492 0 1736.89344965 0 10575
0.09950000 0.09950330 17730.11373210 0 420.89781949 0 6469.05006459 0 -490.45637847 0 1239.14815975 0 10882
0.10050000 0.10051200 17956.65349789 0 149.34905332 0 6731.33129490 0 180.05150281 0 1964.57366490 0 10875
0.10150000 0.10150300 17633.89522942 0 213.02931505 0 6937.67514022 0 248.80731823 0 1944.87599904 0 11118
0.10250000 0.10250800 17499.80937587 0 217.51471383 0 6341.48581036 0 928.75546365 0 1094.50152279 0 11575
0.10350000 0.10349800 17221.34040668 0 619.95164615 0 7221.09343860 0 326.28923285 0 1620.56760511 0 11364
0.10450000 0.10450100 16663.18451257 0 591.88662444 0 6529.19493301 0 262.51485636 0 747.72516733 0 12093
0.10550000 0.10551000 16160.16879606 0 262.84259717 0 6585.12124567 0 -48.68988405 0 727.58017955 0 12067
0.10650000 0.10649700 15984.00810820 0 182.06002253 0 6093.94184439 0 -144.29785873 0 284.24318658 0 12054
0.10750000 0.10749900 15839.95716231 0 64.81273911 0 6268.41953888 0 18.30321726 0 69.48282427 0 12807
0.10850000 0.10850100 15939.27591593 0 236.57350654 0 6267.53375289 0 -137.14402967 0 16.09672437 0 12736
0.10950000 0.10950300 15661.24983973 0 94.14388117 0 5981.22557773 0 221.44649637 0 -185.46144071 0 12933
0.11050000 0.11050200 15570.23532973 0 174.36586401 0 6200.69012796 0 531.00544642 0 251.82341951 0 13428
0.11150000 0.11150900 15644.75207575 0 -92.29369570 0 5467.39219987 0 997.33744357 0 119.69293852 0 13453
0.11250000 0.11250000 15765.88330927 0 -200.21088460 0 5701.72688234 0 902.15973943 0 243.92553022 0 13668
0.11350000 0.11349100 15546.54055461 0 283.55670244 0 5042.95677260 0 423.91170631 0 -174.63049257 0 13791
0.11450000 0.11448600 15449.98988219 0 470.87718649 0 5187.94886610 0 -249.65656555 0 496.91597277 0 14205
0.11550000 0.11549300 14801.81598731 0 439.66208836 0 4581.11903209 0 -198.98849994 0 319.16419183 0 14776
0.11650000 0.11649800 14653.22538824 0 379.16733448 0 4931.02664101 0 548.49196901 0 177.01214964 0 14553
0.11750000 0.11747300 14245.09949543 0 287.17845989 0 4063.03388150 0 319.97025707 0 -640.18299806 0 14568
0.11850000 0.11849100 13816.71124820 0 382.50674765 0 4241.84085500 0 245.99051880 0 -654.57259140 0 16015
0.11950000 0.11950300 13550.97545255 0 138.78051928 0 4107.58891657 0 -31.99126810 0 -220.44666544 0 15270
0.12050000 0.12050700 13552.63630127 0 -75.83280256 0 4329.43401664 0 415.38269450 0 -104.51023456 0 15999
0.12150000 0.12150000 13714.51369012 0 -200.56077007 0 4098.16636815 0 434.21782625 0 -90.32370766 0 15670
0.12250000 0.12250700 13668.34209563 0 29.39923686 0 3836.92593638 0 411.68896694 0 53.31324400 0 16887
0.12350000 0.12352200 13720.71419202 0 287.34233030 0 4195.44781401 0 -21.32064722 0 220.69025659 0 16407
0.12450000 0.12449800 13407.81029264 0 380.09962423 0 4026.61700517 0 -40.94800381 0 572.72264464 0 16306
0.12550000 0.12549900 13215.70545704 0 291.05266635 0 4047.82050720 0 5.43057672 0 609.98544658 0 17523
0.12650000 0.12650100 13044.19514560 0 151.19813156 0 3877.00775222 0 237.06843946 0 156.74979523 0 17154
0.12750000 0.12750600 12902.13721818 0 -11.00190483 0 3729.30293914 0 527.06591325 0 351.27946996 0 18007
0.12850000 0.12850300 12753.43589586 0 70.11737921 0 3353.56359642 0 563.94782722 0 172.38281064 0 17496
0.12950000 0.12949900 13086.93431940 0 48.53874682 0 3030.80532796 0 961.71888187 0 656.86566987 0 18405
0.13050000 0.13049000 12561.22033701 0 289.87124929 0 2885.11567799 0 307.10421563 0 492.54461893 0 18100
0.13150000 0.13148800 12531.87867624 0 269.89566808 0 2711.53484181 0 -26.40993060 0 887.24199621 0 19059
0.13250000 0.13249300 12347.41374476 0 54.48358874 0 2883.88664994 0 -158.99526270 0 1171.83949718 0 18957
0.13350000 0.13349100 12293.27007640 0 287.94134307 0 3429.58617863 0 -649.25898272 0 1115.64744873 0 19468
0.13450000 0.13450700 12044.80710747 0 235.46184513 0 3414.80462499 0 -632.61506405 0 1196.91831290 0 19953
0.13550000 0.13551000 11899.09531285 0 173.54651197 0 3961.00240830 0 -406.93008173 0 476.78980795 0 19956
0.13650000 0.13649900 11890.01600650 0 201.82080063 0 3521.96258459 0 87.60379107 0 467.51119975 0 19723
0.13750000 0.13749600 11718.50569506 0 6.10374085 0 3554.69237675 0 640.68014545 0 -135.36470707 0 20946
0.13850000 0.13851100 11674.21639579 0 -24.42399842 0 3395.27304401 0 45.86754845 0 -703.01290525 0 20955
0.13950000 0.13949800 11607.11810739 0 239.09578213 0 3427.38278599 0 168.56839474 0 -846.03744663 0 20506
0.14050000 0.14048300 11503.37042384 0 301.77953463 0 3299.82960408 0 -293.43432341 0 -712.93924445 0 21447
0.14150000 0.14148400 11133.11188190 0 232.07260650 0 3116.82621947 0 15.80375066 0 -81.11850898 0 21771
0.14250000 0.14249400 11237.74535144 0 -71.63473060 0 3292.76546084 0 397.97035649 0 -49.83808413 0 22470
0.14350000 0.14350900 11295.54288699 0 -162.17412715 0 2986.71533053 0 609.92454880 0 -163.79511551 0 22519
0.14450000 0.14449900 11348.35787638 0 57.06344042 0 3228.98886989 0 763.17659661 0 180.49882473 0 22218
0.14550000 0.14550500 11253.24660618 0 190.54806673 0 2496.86460823 0 295.42623465 0 591.59763676 0 23559
0.14650000 0.14650700 11087.16173390 0 223.35315071 0 2834.34906870 0 118.48162619 0 451.60469791 0 23044
0.14750000 0.14750500 10963.78281845 0 218.47136269 0 2850.09391459 0 -435.48339298 0 352.22615374 0 23649
0.14850000 0.14849900 10616.98653280 0 487.46463630 0 3218.90198198 0 -446.67972783 0 216.00334149 0 23640
0.14950000 0.14949500 10339.21512008 0 268.85708401 0 3212.02606827 0 -477.69441688 0 496.62144893 0 24457
0.15050000 0.15050000 10241.94474655 0 -11.31779826 0 3342.31411441 0 443.50750677 0 345.00035456 0 24591
0.15150000 0.15149900 10241.05896056 0 -49.20308631 0 2900.12975045 0 676.90879225 0 315.36638441 0 25020
0.15250000 0.15250500 10297.59425109 0 61.55858285 0 2729.50522499 0 417.06568787 0 48.43023803 0 25297
0.15350000 0.15350100 10114.20333511 0 67.90324642 0 2547.23261383 0 512.65638973 0 246.28172094 0 25452
0.15450000 0.15450400 9939.53741110 0 208.06005567 0 2504.13912563 0 99.14990067 0 494.15785666 0 26061
0.15550000 0.15549900 9872.77129244 0 254.26708160 0 2321.00287313 0 -106.19566384 0 668.36760089 0 26128
0.15650000 0.15649500 9644.86963070 0 209.24811612 0 2633.22028837 0 -104.33695268 0 616.68420310 0 26331
0.15750000 0.15749700 9417.64338077 0 195.29587962 0 2571.51422216 0 225.86989014 0 1139.78511683 0 27345
0.15850000 0.15849900 9496.62227370 0 190.63443087 0 2537.26752149 0 -24.33564127 0 606.01380367 0 26980
0.15950000 0.15949700 9062.22175409 0 280.24275562 0 2801.66356584 0 245.22985008 0 626.33151971 0 27777
0.16050000 0.16050000 8982.75567887 0 278.54979716 0 2710.68227280 0 -266.52525241 0 130.40873448 0 28224
0.16150000 0.16150500 8692.95972139 0 177.62002028 0 2521.10192726 0 -158.12054904 0 428.13469100 0 28075
0.16250000 0.16249700 8723.09858955 0 19.17250549 0 2699.37742916 0 30.03058082 0 348.76494500 0 28590
0.16350000 0.16349900 8699.51453769 0 -132.52797745 0 2450.36084399 0 436.48433114 0 412.85156105 0 29163
0.16450000 0.16449100 8822.21804133 0 -92.76205504 0 2545.19530606 0 173.73141980 0 219.12795156 0 28996
0.16550000 0.16550500 8912.73429672 0 50.27034770 0 2471.97402204 0 325.31597550 0 349.96186331 0 30777
0.16650000 0.16650700 8809.85025450 0 108.89775399 0 2391.88789662 0 -23.70075417 0 630.17693812 0 29211
0.16750000 0.16749900 8767.25502093 0 253.43001384 0 2442.58807197 0 -60.10124346 0 775.62410417 0 30922
0.16850000 0.16850800 8484.13567531 0 99.00917142 0 2512.83090062 0 -50.03738598 0 1058.37806307 0 30867
0.16950000 0.16949900 8546.14069430 0 128.88850428 0 2519.19748739 0 117.24374027 0 669.80368142 0 30852
0.17050000 0.17049200 8364.85352004 0 64.86012866 0 2629.52213188 0 43.60591539 0 1021.64673271 0 31257
0.17150000 0.17149500 8418.78681423 0 164.58567950 0 2688.00615157 0 -1.88303706 0 578.31195421 0 32608
0.17250000 0.17250900 8280.37168168 0 168.11775112 0 2657.66798157 0 -224.75379980 0 537.78170921 0 32361
0.17350000 0.17350400 8022.26471783 0 148.16763626 0 2473.41342426 0 -136.07997925 0 727.99982066 0 32508
0.17450000 0.17449800 8115.19474003 0 14.03826847 0 2475.87148037 0 124.30566904 0 438.24483079 0 32791
0.17550000 0.17549800 8081.51272793 0 5.05639857 0 2413.26855585 0 233.84085677 0 541.59833957 0 33633
0.17650000 0.17650100 8135.00312913 0 17.19222019 0 2425.25988363 0 80.84723702 0 75.42279437 0 33984
0.17750000 0.17750300 8005.41263945 0 49.54378174 0 2161.53925110 0 235.96895761 0 275.48940658 0 34069
0.17850000 0.17849800 8012.01174505 0 259.47439596 0 2381.35811572 0 -55.29430436 0 62.51556388 0 34536
