### header ###
fiducial parameters:
Omega_m = 0.31
Omega_nu = 0
Omega_de = 0.69
Omega_k = 0
H_0 = 100
w_de = -1
zeff = 0
beta = 0
fgrowth = 0
b_1 = 2
gamma = 0.55
Lx = 3500 Ly = 3500 Lz = 3500
nx = 700 ny = 700 nz = 700
xoffset = -685.467585 yoffset = -31.7331281 zoffset = 572.489161
bins = 400 dk = 0.001
kx_ny = 0.628318531 ky_ny = 0.628318531 kz_ny = 0.628318531
############################
A(data) = 8.06155284 (not used)
A(ran) = 8.0546671 (used)
Ngal = 478950
weighted Ngal = 0
Nran = 23820508
weighted Nran = 0
SN(data) = 3494.07603
SN(ran) = 70.1590716
SN(data+ran) = 3564.2351
############################
13 columns: k_central k_mean P_0(k) sigma^{lin}_{P_0(k)} P^img_1(k) sigma^{lin}_{P_1(k)} P_2(k) sigma^{lin}_{P_2(k)} P^img_3(k) sigma^{lin}_{P_3(k)} P_4(k) sigma^{lin}_{P_4(k)} N_modes
### header ###
0.00050000 0 0 0 0 0 0 0 0 0 0 0 0
0.00150000 0.00179520 3428.23535500 0 -5295.54971869 0 7887.64739268 0 -14766.38454789 0 -27056.66509659 0 3
0.00250000 0.00253879 11778.18552584 0 -12974.10732950 0 -4918.50384164 0 -5323.30803701 0 -5076.49484448 0 6
0.00350000 0.00331552 17046.39767455 0 -10261.83064192 0 7226.70710728 0 4673.60616130 0 4732.78773746 0 7
0.00450000 0.00420575 32251.68917825 0 -11127.35427299 0 7392.37123122 0 -10094.18457184 0 -2219.83504127 0 24
0.00550000 0.00557378 38587.71633247 0 593.59729862 0 11836.31523113 0 -10811.98124519 0 13514.99039689 0 45
0.00650000 0.00659388 42763.53291458 0 11350.57234134 0 21403.91110693 0 -23116.13541688 0 -188.46979137 0 40
0.00750000 0.00754703 49712.74541725 0 -10280.90825758 0 14546.37745374 0 -4826.98000469 0 -7748.54577599 0 57
0.00850000 0.00846663 54176.66389114 0 -2535.08627350 0 47739.54641132 0 -36839.83913660 0 -20474.05726866 0 75
0.00950000 0.00948925 65929.16162340 0 -3357.69357358 0 36541.99359898 0 -13134.10242313 0 -32938.72693325 0 112
0.01050000 0.01054430 68690.71015641 0 -10541.20754175 0 40903.05017530 0 -14714.56606774 0 -30747.73529813 0 105
0.01150000 0.01145670 81772.88337614 0 -13576.55252288 0 35999.33895962 0 1669.24154501 0 -44982.20536174 0 144
0.01250000 0.01249090 87378.69070857 0 -5149.57218828 0 28259.23029514 0 6410.33352608 0 -49377.36469850 0 169
0.01350000 0.01339930 78386.52355361 0 12735.94162265 0 28053.61722326 0 -6533.96710501 0 -43812.52496789 0 180
0.01450000 0.01448870 73530.31261140 0 5058.67947384 0 6251.15778449 0 11100.00563069 0 -25267.48812914 0 267
0.01550000 0.01550050 71791.29327538 0 1409.19692432 0 4733.82853599 0 6196.30548734 0 -26826.25001711 0 238
0.01650000 0.01653350 73205.56132447 0 -1767.36448755 0 2818.67065676 0 -143.26038190 0 -11740.31817496 0 315
0.01750000 0.01747870 75318.71451610 0 -1256.11096138 0 12847.21848708 0 -5719.46474670 0 6465.76158412 0 297
0.01850000 0.01844180 75911.74823339 0 -4078.49084695 0 17648.95359118 0 12131.83558054 0 25568.98753396 0 388
0.01950000 0.01947590 94074.23624966 0 -12854.30477496 0 22227.69207343 0 20569.27926210 0 30539.13269855 0 399
0.02050000 0.02045430 97077.05074047 0 -9178.82440676 0 17263.74741074 0 22358.67767604 0 16525.11262209 0 462
0.02150000 0.02154770 101062.42333570 0 11196.22413337 0 33519.69181648 0 6336.20431142 0 29665.85844010 0 571
0.02250000 0.02255340 88243.21783041 0 9776.78530859 0 19899.51433382 0 2821.01798962 0 29342.32510890 0 510
0.02350000 0.02348930 83047.64013251 0 5483.71280666 0 25500.33912008 0 780.22244067 0 32820.36378094 0 555
0.02450000 0.02439640 78002.53532890 0 4498.18731920 0 28487.54163290 0 -5482.79380370 0 15723.03341222 0 592
0.02550000 0.02547300 76753.79853585 0 3219.01270523 0 28248.26869357 0 -11152.70989683 0 -4294.64477206 0 837
0.02650000 0.02652900 68708.86876912 0 4674.53623659 0 29152.65618476 0 -11118.93930613 0 -2776.71761802 0 723
0.02750000 0.02749970 72327.30451985 0 5911.48100370 0 30000.13192638 0 -2662.68374471 0 -16235.68205133 0 826
0.02850000 0.02848090 65005.06539403 0 2778.69956416 0 30888.02165358 0 390.35038255 0 -9750.97571944 0 831
0.02950000 0.02946900 63653.35598017 0 1240.89758708 0 27138.71102349 0 11167.76825858 0 -18086.53186801 0 996
0.03050000 0.03053250 61599.99334255 0 2724.40088325 0 29307.11511598 0 3835.86299320 0 -9718.48951842 0 1041
0.03150000 0.03150510 58395.55181679 0 4423.90309199 0 20086.63662325 0 6590.56882948 0 -11965.75070826 0 1036
0.03250000 0.03246190 55130.65539751 0 1398.01387625 0 22047.87751838 0 -983.09843386 0 -10991.12038843 0 1059
0.03350000 0.03345080 56271.54774683 0 177.72188566 0 20768.58110883 0 -9164.61861402 0 -10217.39740242 0 1302
0.03450000 0.03451200 52659.86611423 0 2482.31557342 0 28701.45894840 0 -6305.14644030 0 -12805.03292952 0 1339
0.03550000 0.03553350 52769.14996019 0 5154.69867467 0 27238.36194686 0 -1934.91090671 0 -10975.67449530 0 1365
0.03650000 0.03647120 47626.05508193 0 577.73840778 0 25455.38548132 0 4250.66549788 0 -7976.05990636 0 1308
0.03750000 0.03744890 47084.28622856 0 985.43469439 0 26087.17233547 0 6484.24129424 0 -10653.12660101 0 1579
0.03850000 0.03847530 48043.81389734 0 921.56288145 0 20289.03872094 0 9867.27941933 0 -8426.58173091 0 1662
0.03950000 0.03950240 46405.22054743 0 -1821.30885407 0 16321.71401517 0 10773.30561459 0 281.90914051 0 1683
0.04050000 0.04050350 46270.47035439 0 15.61297450 0 9396.90491639 0 5952.71434133 0 3034.82458187 0 1822
0.04150000 0.04152450 46739.05114071 0 -98.77964213 0 7921.21868153 0 7159.91884398 0 -4298.08826508 0 1887
0.04250000 0.04250150 43599.60416163 0 2836.43066577 0 4524.20728252 0 2965.17965876 0 2119.92945443 0 1920
0.04350000 0.04349210 42387.73821023 0 2164.03052418 0 7072.87929858 0 -3554.61487048 0 -352.58268260 0 2005
0.04450000 0.04448520 40800.29900098 0 929.55045657 0 3384.49967197 0 -2718.55469575 0 1247.31953547 0 2151
0.04550000 0.04548030 40819.01122993 0 347.29454026 0 9008.18880898 0 -3201.04232205 0 -1091.94270852 0 2274
0.04650000 0.04648670 39950.16590141 0 1576.77656045 0 9515.35664730 0 916.32567181 0 -1702.28136227 0 2311
0.04750000 0.04749250 39308.74612466 0 1671.10169558 0 11430.07163354 0 -1000.64806870 0 1787.15073200 0 2568
0.04850000 0.04851840 38553.72429528 0 1159.51599966 0 12393.80678575 0 -350.02940449 0 800.06183228 0 2493
0.04950000 0.04949480 37794.27353597 0 643.64531403 0 15192.33688366 0 -1925.74302176 0 2023.99883220 0 2644
0.05050000 0.05050630 37529.42352631 0 701.87467025 0 17122.90743904 0 1105.13316908 0 4172.64989721 0 2829
0.05150000 0.05149060 38768.19522702 0 -1014.73760203 0 15134.98224110 0 -368.00532383 0 4475.96516329 0 2784
0.05250000 0.05249300 39311.62492911 0 -1094.35204640 0 16281.18930633 0 3326.18173715 0 2596.61518252 0 3055
0.05350000 0.05348950 39404.85390409 0 -260.91490542 0 14943.65246824 0 1609.03024265 0 1144.44656558 0 3009
0.05450000 0.05448610 39314.17156382 0 920.71474136 0 12973.44299001 0 -413.19369588 0 -1550.44657203 0 3336
0.05550000 0.05550870 38448.20503976 0 2129.98312536 0 13146.39270368 0 -549.60363042 0 776.22200971 0 3349
0.05650000 0.05647670 37064.05371418 0 1366.55740144 0 12242.66955198 0 -853.78253784 0 1125.01463552 0 3324
0.05750000 0.05747970 36888.88953555 0 -806.77166112 0 12599.75202738 0 2687.39717371 0 2418.77150128 0 3639
0.05850000 0.05849280 38019.59534603 0 -2376.13197841 0 12628.31862541 0 4075.36845135 0 2932.51630054 0 3846
0.05950000 0.05951020 39992.35145897 0 -592.25311839 0 12337.11648268 0 3926.99929878 0 1216.05129018 0 3787
0.06050000 0.06049470 39831.47057935 0 2009.77089481 0 14726.85634829 0 742.00188263 0 6883.25466373 0 3930
0.06150000 0.06148310 37931.45964047 0 3017.99464814 0 13201.86505102 0 -2255.47685486 0 7193.58978375 0 4083
0.06250000 0.06249100 36245.69818683 0 1619.40501100 0 14817.98158155 0 631.33731776 0 10395.65075968 0 4303
0.06350000 0.06350600 34780.94033657 0 249.78500451 0 13621.72760814 0 410.28610339 0 8409.08745769 0 4470
0.06450000 0.06451750 34031.89756259 0 476.58164824 0 14457.79885520 0 525.47260571 0 4820.53591164 0 4479
0.06550000 0.06550280 33840.67851297 0 1420.01458567 0 14239.89550276 0 1123.98490932 0 3472.64644985 0 4636
0.06650000 0.06648880 32031.23919111 0 1344.26881158 0 12768.27281112 0 -1620.87763020 0 1923.00815753 0 4653
0.06750000 0.06749660 30944.37978691 0 957.35749312 0 12756.53614681 0 617.90437329 0 906.12806065 0 5220
0.06850000 0.06852730 30751.72133507 0 424.62587126 0 12781.33815440 0 253.48648270 0 -420.93546540 0 5029
0.06950000 0.06949320 30036.33842853 0 852.52140004 0 12584.25077263 0 927.59729847 0 -798.52167190 0 5040
0.07050000 0.07048030 29828.62161494 0 618.97838880 0 11956.11778567 0 1111.65033947 0 -1866.52822863 0 5475
0.07150000 0.07148790 29061.08805851 0 187.89845940 0 12978.75770592 0 578.76370506 0 1067.24478078 0 5509
0.07250000 0.07249820 29346.97548533 0 235.83166078 0 12063.74078291 0 716.33512647 0 -2774.23741726 0 5916
0.07350000 0.07351270 28332.30763894 0 582.95125831 0 12446.17888214 0 72.26972843 0 -749.45466446 0 5721
0.07450000 0.07449140 27766.95473370 0 1791.03711801 0 12972.44648077 0 -75.65885633 0 -1019.72679159 0 6028
0.07550000 0.07549160 27056.33292684 0 645.43017279 0 11440.47961887 0 456.24289478 0 -72.88568186 0 6183
0.07650000 0.07648840 25711.26690787 0 230.99416206 0 10831.50175384 0 1103.32727290 0 -257.99402613 0 6330
0.07750000 0.07749960 26432.62886981 0 774.71285184 0 10901.72243784 0 722.45480039 0 -534.50540830 0 6583
0.07850000 0.07848650 25343.22283090 0 -28.22324524 0 9304.41778718 0 2085.56095819 0 -372.45529118 0 6549
0.07950000 0.07947320 25185.44220224 0 170.45401165 0 8626.00537321 0 1635.30486944 0 829.25733836 0 6828
0.08050000 0.08048110 24634.15114952 0 468.20322005 0 9132.81889714 0 1163.38024102 0 1310.45393159 0 7147
0.08150000 0.08149960 24385.79890383 0 944.86237456 0 8463.07611351 0 1281.47765754 0 599.45123675 0 7386
0.08250000 0.08250610 23520.82888900 0 662.17927855 0 7900.71273597 0 865.85469359 0 2119.87409280 0 7227
0.08350000 0.08350160 22742.77662400 0 531.46162620 0 8719.65509653 0 -222.52936974 0 2142.22911661 0 7798
0.08450000 0.08449610 22772.78262425 0 637.86445324 0 9493.46666113 0 -513.38384147 0 1499.93462621 0 7371
0.08550000 0.08548940 21708.17859294 0 1248.64821445 0 9168.16175796 0 -1353.44776886 0 1404.59083719 0 8256
0.08650000 0.08650700 21048.71092674 0 571.01418492 0 9481.57498428 0 -58.63748211 0 2515.45504160 0 8037
0.08750000 0.08749060 21164.63816759 0 -363.58414453 0 9499.13569144 0 406.82600188 0 1442.26995855 0 8155
0.08850000 0.08849210 21395.60686331 0 -624.03511955 0 9938.93950556 0 904.76062853 0 256.60887830 0 8718
0.08950000 0.08949900 21779.26291828 0 40.08281235 0 9648.18025582 0 849.43886481 0 1004.50788113 0 8571
0.09050000 0.09049190 21243.03022731 0 388.50351877 0 8381.26270542 0 881.60064671 0 -904.68533672 0 8932
0.09150000 0.09150830 21111.60173171 0 290.78028715 0 8370.32324850 0 763.15998813 0 592.31955234 0 9285
0.09250000 0.09250820 20813.53474759 0 450.67130093 0 7743.87325491 0 1067.75853665 0 -399.80836241 0 9204
0.09350000 0.09350330 19869.95122655 0 561.35911768 0 6533.84530943 0 945.70276402 0 -80.35141832 0 9349
0.09450000 0.09448040 19622.37404361 0 684.27078102 0 6254.85594098 0 888.74893961 0 316.99069447 0 9564
0.09550000 0.09549270 18676.02244136 0 922.82512648 0 6060.93524410 0 874.74909211 0 -438.51831721 0 10155
0.09650000 0.09649430 17651.72167238 0 918.49806194 0 5914.49267605 0 -41.12250365 0 1112.35896826 0 9913
0.09750000 0.09749140 17269.61574289 0 709.43153194 0 6114.01596928 0 220.01705924 0 1194.28309959 0 10476
0.09850000 0.09850240 16864.36865453 0 61.10406391 0 6483.14513409 0 -93.89364663 0 2770.24030800 0 10575
0.09950000 0.09950330 16952.72580658 0 -294.20384999 0 7012.69014086 0 178.72393106 0 1251.01769196 0 10882
0.10050000 0.10051200 17175.50098193 0 -123.06446143 0 6550.16591621 0 -798.69107847 0 1326.45344095 0 10875
0.10150000 0.10150300 17593.59196708 0 -19.84758513 0 7625.51010260 0 -1265.31206330 0 760.24243054 0 11118
0.10250000 0.10250800 17466.81384791 0 418.95794819 0 6893.81766161 0 -137.64339152 0 -346.29913826 0 11575
0.10350000 0.10349800 17152.69199281 0 51.54953338 0 6683.37705611 0 298.15666995 0 -829.68805180 0 11364
0.10450000 0.10450100 16778.22596744 0 384.05355143 0 6182.18827319 0 861.20653163 0 -2244.41560236 0 12093
0.10550000 0.10551000 16498.87121226 0 372.11869251 0 5691.10852284 0 918.32644090 0 -2014.63164540 0 12067
0.10650000 0.10649700 16278.64267162 0 248.22269948 0 4895.32946579 0 567.29941994 0 -2169.73277146 0 12054
0.10750000 0.10749900 16104.25355573 0 39.31173565 0 5094.37664906 0 470.45975985 0 -1694.74110907 0 12807
0.10850000 0.10850100 16351.27712243 0 84.88686401 0 5076.88237585 0 156.52391980 0 -1295.89382445 0 12736
0.10950000 0.10950300 15949.13028502 0 421.88547087 0 4628.74110114 0 489.10444761 0 -803.69576929 0 12933
0.11050000 0.11050200 15750.04988478 0 433.86572632 0 5001.39126523 0 278.97940336 0 -380.81157472 0 13428
0.11150000 0.11150900 15256.66709086 0 282.07079645 0 4868.02511279 0 347.68982226 0 102.54545052 0 13453
0.11250000 0.11250000 15142.40069873 0 452.51595025 0 5218.60813352 0 979.20983338 0 476.56282529 0 13668
0.11350000 0.11349100 14747.00797946 0 37.97331303 0 4593.50896356 0 578.03846778 0 1782.94324857 0 13791
0.11450000 0.11448600 14807.35214972 0 -176.13632875 0 4419.14199232 0 1362.78173868 0 1386.62045401 0 14205
0.11550000 0.11549300 15165.54185760 0 -399.65445710 0 4759.27273842 0 223.28118060 0 1806.66016833 0 14776
0.11650000 0.11649800 15111.28746599 0 423.91392077 0 4195.34816308 0 -77.38946070 0 2191.02485209 0 14553
0.11750000 0.11747300 14959.04299974 0 536.21940418 0 4567.69937441 0 -25.11524366 0 2987.75612906 0 14568
0.11850000 0.11849100 14360.47312004 0 211.93979828 0 4350.40499984 0 -19.39339837 0 2364.25137388 0 16015
0.11950000 0.11950300 14427.79285494 0 122.28607699 0 4738.84429913 0 118.62224471 0 2249.66388433 0 15270
0.12050000 0.12050700 14289.38879470 0 414.26106800 0 4586.19015686 0 -58.68586817 0 827.64631510 0 15999
0.12150000 0.12150000 13962.64448931 0 259.19426614 0 4557.77857137 0 -811.36003253 0 614.29147371 0 15670
0.12250000 0.12250700 13500.04275838 0 221.78973844 0 4428.59775771 0 -599.09138619 0 237.71727769 0 16887
0.12350000 0.12352200 13761.57107060 0 50.15829577 0 4722.20259493 0 -370.87084150 0 261.98781370 0 16407
0.12450000 0.12449800 13884.91676908 0 -191.86899508 0 4930.45088012 0 -48.00384280 0 -511.00993503 0 16306
0.12550000 0.12549900 13897.42849612 0 15.89908338 0 4872.38760877 0 120.79352761 0 -812.71085615 0 17523
0.12650000 0.12650100 13733.33664231 0 302.42726563 0 4807.89131670 0 466.05961796 0 -717.75792021 0 17154
0.12750000 0.12750600 13467.37940017 0 420.82474215 0 4553.00639938 0 372.22720129 0 -265.78894281 0 18007
0.12850000 0.12850300 13255.89799613 0 25.42925479 0 4824.47765928 0 470.77753557 0 -503.74095379 0 17496
0.12950000 0.12949900 12986.17616355 0 149.14421531 0 4248.81641963 0 85.91692239 0 -691.72688456 0 18405
0.13050000 0.13049000 13003.11682052 0 276.61103308 0 4372.27284136 0 288.01774211 0 -597.00757466 0 18100
0.13150000 0.13148800 12558.56297905 0 98.78938577 0 3629.89560692 0 265.00170051 0 -476.10775274 0 19059
0.13250000 0.13249300 12529.22131828 0 209.09642527 0 4089.95070314 0 697.11357058 0 -61.41032442 0 18957
0.13350000 0.13349100 12326.70849735 0 188.57608568 0 3238.54428621 0 160.97277991 0 -488.78888635 0 19468
0.13450000 0.13450700 12198.04808296 0 200.60395213 0 3535.21615740 0 401.25662250 0 -24.98990495 0 19953
0.13550000 0.13551000 11952.24247198 0 218.66845008 0 3222.43405359 0 430.51302637 0 168.07346182 0 19956
0.13650000 0.13649900 11857.79554128 0 13.58009567 0 3180.95712482 0 272.87523069 0 451.68774035 0 19723
0.13750000 0.13749600 11783.83241149 0 194.67582943 0 3175.91921703 0 291.12574369 0 456.92494999 0 20946
0.13850000 0.13851100 11455.64870387 0 363.16228896 0 3052.94997760 0 380.28453206 0 294.18613427 0 20955
0.13950000 0.13949800 11333.18879137 0 217.94099834 0 2677.09991163 0 198.22008060 0 549.23602923 0 20506
0.14050000 0.14048300 11160.57124745 0 150.81835082 0 2448.22388530 0 365.51405075 0 256.20916737 0 21447
0.14150000 0.14148400 11065.18316914 0 -25.45516403 0 2478.76135715 0 -66.40737533 0 461.24980006 0 21771
0.14250000 0.14249400 11154.59219205 0 -31.57063048 0 2652.97331585 0 -130.27254489 0 -179.44584664 0 22470
0.14350000 0.14350900 11013.45326759 0 89.08216788 0 2378.05856292 0 -244.25880720 0 208.82847501 0 22519
0.14450000 0.14449900 11060.35563552 0 201.66689532 0 2845.46568282 0 -242.32447205 0 -321.69643251 0 22218
0.14550000 0.14550500 10891.81270713 0 169.69998633 0 2679.95657143 0 -261.33565376 0 -456.94598741 0 23559
0.14650000 0.14650700 10970.48157496 0 103.57772336 0 2886.44435697 0 37.97032350 0 -678.41573566 0 23044
0.14750000 0.14750500 10706.88273801 0 191.71508977 0 2786.70485501 0 -413.84807028 0 -679.18969117 0 23649
0.14850000 0.14849900 10614.20737927 0 188.96915321 0 3024.75983861 0 -43.83954144 0 -714.41186365 0 23640
0.14950000 0.14949500 10493.43046015 0 159.62970691 0 3155.78973051 0 250.04188245 0 -804.02793903 0 24457
0.15050000 0.15050000 10422.42364109 0 78.37556195 0 2970.84868907 0 183.97332026 0 -345.53404062 0 24591
0.15150000 0.15149900 10405.68228597 0 -17.15180621 0 3036.35256269 0 387.91779279 0 -333.52167542 0 25020
0.15250000 0.15250500 10376.87209679 0 68.98434821 0 3131.84029193 0 154.03707564 0 116.62811901 0 25297
0.15350000 0.15350100 10159.76595174 0 227.76879384 0 2990.46884864 0 366.50613105 0 153.51446191 0 25452
0.15450000 0.15450400 10137.99776115 0 138.53582090 0 2750.28797868 0 329.30754859 0 678.19096747 0 26061
0.15550000 0.15549900 9926.16204272 0 186.81780050 0 2874.97342846 0 241.14637669 0 629.42402004 0 26128
0.15650000 0.15649500 9843.49606562 0 173.69820282 0 2708.64496504 0 160.43355769 0 877.76851509 0 26331
0.15750000 0.15749700 9710.41779363 0 186.19110692 0 2608.92760772 0 -75.43386669 0 673.71553378 0 27345
0.15850000 0.15849900 9517.64861854 0 152.99406265 0 2559.15750766 0 282.84585919 0 703.70935448 0 26980
0.15950000 0.15949700 9422.79201181 0 60.46408354 0 2430.86247998 0 287.80626071 0 681.15613605 0 27777
0.16050000 0.16050000 9309.16781453 0 169.86496397 0 2307.01852689 0 88.21764076 0 483.46531258 0 28224
0.16150000 0.16150500 9160.53292616 0 185.64745577 0 2219.92361986 0 69.61679940 0 402.43803956 0 28075
0.16250000 0.16249700 8979.33433050 0 104.43084599 0 2105.10361150 0 -89.47246733 0 374.80151681 0 28590
0.16350000 0.16349900 9031.45176342 0 170.82825623 0 2229.83335058 0 -304.22319672 0 38.55073477 0 29163
0.16450000 0.16449100 8896.72371503 0 102.45742554 0 2294.14141312 0 -217.73394586 0 289.85796250 0 28996
0.16550000 0.16550500 8838.14004442 0 81.48223485 0 2406.96840303 0 -203.48497105 0 98.22702240 0 30777
0.16650000 0.16650700 8849.96528732 0 193.70367931 0 2481.11976234 0 11.49606269 0 145.50474214 0 29211
0.16750000 0.16749900 8685.88450583 0 212.67610788 0 2653.53800441 0 187.40131202 0 -46.38916568 0 30922
0.16850000 0.16850800 8456.84239464 0 373.23256838 0 2554.24139544 0 374.15932197 0 139.95861464 0 30867
0.16950000 0.16949900 8234.37724438 0 197.49262886 0 2336.19410279 0 178.90773165 0 509.37898158 0 30852
0.17050000 0.17049200 8106.50296505 0 40.71559572 0 2205.38565738 0 334.44732177 0 595.69550417 0 31257
0.17150000 0.17149500 8004.16146675 0 -74.32220528 0 2051.23675125 0 219.77568256 0 573.53203158 0 32608
0.17250000 0.17250900 8157.44673154 0 -166.15905686 0 1794.02664572 0 352.70337094 0 219.31618108 0 32361
0.17350000 0.17350400 8173.26908370 0 20.96157173 0 1736.31768876 0 -132.52797745 0 5.10936858 0 32508
0.17450000 0.17449800 8234.80906505 0 200.85750837 0 1656.78517959 0 -188.16862413 0 -91.12467964 0 32791
0.17550000 0.17549800 7949.40882052 0 241.51619234 0 1801.07971663 0 -494.04270448 0 25.31144526 0 33633
0.17650000 0.17650100 7837.55619520 0 204.72839313 0 2029.62357321 0 -78.26140628 0 39.71975082 0 33984
0.17750000 0.17750300 7827.90112796 0 -3.87265633 0 2157.84109461 0 67.15198918 0 178.82358198 0 34069
