### header ###
fiducial parameters:
Omega_m = 0.31
Omega_nu = 0
Omega_de = 0.69
Omega_k = 0
H_0 = 100
w_de = -1
zeff = 0
beta = 0
fgrowth = 0
b_1 = 2
gamma = 0.55
Lx = 3500 Ly = 3500 Lz = 3500
nx = 700 ny = 700 nz = 700
xoffset = -685.467585 yoffset = -31.7331281 zoffset = 572.489161
bins = 400 dk = 0.001
kx_ny = 0.628318531 ky_ny = 0.628318531 kz_ny = 0.628318531
############################
A(data) = 8.06311239 (not used)
A(ran) = 8.06399155 (used)
Ngal = 479490
weighted Ngal = 0
Nran = 23820508
weighted Nran = 0
SN(data) = 3486.47256
SN(ran) = 70.2402909
SN(data+ran) = 3556.71285
############################
13 columns: k_central k_mean P_0(k) sigma^{lin}_{P_0(k)} P^img_1(k) sigma^{lin}_{P_1(k)} P_2(k) sigma^{lin}_{P_2(k)} P^img_3(k) sigma^{lin}_{P_3(k)} P_4(k) sigma^{lin}_{P_4(k)} N_modes
### header ###
0.00050000 0 0 0 0 0 0 0 0 0 0 0 0
0.00150000 0.00179520 45478.57768336 0 -39506.16567618 0 -17100.76278941 0 54438.08148011 0 -126720.54308444 0 3
0.00250000 0.00253879 70048.28790243 0 -22466.85428952 0 24556.75559903 0 -21484.29618511 0 58580.79181100 0 6
0.00350000 0.00331552 69665.07474046 0 10520.14797994 0 22028.72239644 0 -82272.46667196 0 56554.11347620 0 7
0.00450000 0.00420575 60359.67151637 0 28490.97405360 0 21587.82242216 0 -31525.01250040 0 55318.44202644 0 24
0.00550000 0.00557378 46261.16960154 0 -10969.09753436 0 37635.82856781 0 11605.01436567 0 2277.55507055 0 45
0.00650000 0.00659388 44328.27385795 0 -5206.21820205 0 35192.94154307 0 44373.44894321 0 12479.50657985 0 40
0.00750000 0.00754703 78376.00484503 0 -18764.71176315 0 21542.53661365 0 33250.63432339 0 -69093.07844032 0 57
0.00850000 0.00846663 70529.93403204 0 -8962.58190305 0 16586.01040859 0 -12006.16469385 0 -35956.48906257 0 75
0.00950000 0.00948925 91028.57186179 0 10049.25307773 0 17021.70639020 0 -35529.20804782 0 -36586.61506800 0 112
0.01050000 0.01054430 74965.39663114 0 2464.64414301 0 14197.37777546 0 -29670.28737003 0 -26069.56733901 0 105
0.01150000 0.01145670 71371.43071826 0 5948.79473834 0 27567.43144047 0 -11512.56045344 0 -41377.49929378 0 144
0.01250000 0.01249090 78527.25280205 0 -1673.52653471 0 22184.73145314 0 8253.76488514 0 -34347.56954317 0 169
0.01350000 0.01339930 78925.96721877 0 -9942.11726278 0 17504.57047554 0 23965.27200722 0 -17617.06529570 0 180
0.01450000 0.01448870 93185.23928997 0 -11470.70706562 0 -12145.23309357 0 25135.17384756 0 -42984.20434821 0 267
0.01550000 0.01550050 87349.23832456 0 -8465.68918217 0 -7424.71349202 0 9051.42623740 0 -4260.92954299 0 238
0.01650000 0.01653350 93655.81309476 0 10276.28002581 0 -13641.10417657 0 -20126.93988559 0 -32549.09182288 0 315
0.01750000 0.01747870 84891.51438456 0 13346.69105964 0 -4102.28527298 0 -17102.53436138 0 15126.67799749 0 297
0.01850000 0.01844180 76995.17521690 0 6701.35851161 0 9266.30684515 0 -13277.71047602 0 -5784.64752290 0 388
0.01950000 0.01947590 72828.43794114 0 -1499.97891551 0 6494.63820725 0 8673.93746735 0 3243.63755562 0 399
0.02050000 0.02045430 76243.69653145 0 1014.69774166 0 4670.47269338 0 6683.76458748 0 -8196.78670162 0 462
0.02150000 0.02154770 74216.02168742 0 3062.76005739 0 10665.73797898 0 6398.22040273 0 -15408.91155712 0 571
0.02250000 0.02255340 74137.07601146 0 2251.80084302 0 9793.21663862 0 -8296.02794897 0 -8197.18530531 0 510
0.02350000 0.02348930 66633.02931212 0 10075.69378940 0 16471.96546296 0 -9432.07062001 0 1106.82280585 0 555
0.02450000 0.02439640 64621.85223206 0 1841.93659521 0 13122.25503557 0 -7128.49558614 0 12786.09925408 0 592
0.02550000 0.02547300 65039.27887772 0 -1998.34425559 0 26669.24445118 0 7253.93395401 0 6990.11367056 0 837
0.02650000 0.02652900 69102.93280941 0 838.34882427 0 23690.01401223 0 13620.95254540 0 -2297.97243751 0 723
0.02750000 0.02749970 62711.54403110 0 3138.62762704 0 16900.24298694 0 5950.48880404 0 -11918.80405103 0 826
0.02850000 0.02848090 62152.17018126 0 4948.60949282 0 16488.02033394 0 -5864.87758854 0 1235.06247190 0 831
0.02950000 0.02946900 58657.52302200 0 4111.74103838 0 22041.56629323 0 -3415.90078515 0 -2180.43970956 0 996
0.03050000 0.03053250 53763.33400566 0 3173.20649745 0 20088.74036497 0 3701.40068060 0 -7636.25025768 0 1041
0.03150000 0.03150510 52458.23907929 0 -3222.14617315 0 10566.61852720 0 4631.64205024 0 -5141.20151072 0 1036
0.03250000 0.03246190 54157.50876920 0 -2142.76058820 0 14139.46951666 0 5134.48060955 0 -11665.24781268 0 1059
0.03350000 0.03345080 58013.22444080 0 -3558.56769044 0 8572.75856316 0 3135.25056797 0 -5835.43627685 0 1302
0.03450000 0.03451200 57638.86913868 0 1259.16692303 0 13988.11083639 0 1787.57148035 0 -883.58480732 0 1339
0.03550000 0.03553350 59064.76312883 0 2223.52212543 0 14907.00307309 0 -4118.92697719 0 2062.89590929 0 1365
0.03650000 0.03647120 56138.90129550 0 2573.68439782 0 19144.38178118 0 -3608.10527168 0 2416.85598909 0 1308
0.03750000 0.03744890 53346.12880649 0 4076.88535985 0 22810.53925189 0 -2442.23375757 0 6034.07378409 0 1579
0.03850000 0.03847530 51883.91759094 0 2995.67284131 0 24226.13597995 0 -105.03661288 0 10517.71206848 0 1662
0.03950000 0.03950240 50917.19291103 0 1911.89154341 0 27554.69826693 0 1493.46838851 0 9350.11327170 0 1683
0.04050000 0.04050350 48721.10800650 0 1377.35291814 0 26075.21422466 0 5667.17015658 0 7520.44481240 0 1822
0.04150000 0.04152450 46465.56471769 0 3426.18697491 0 27399.57499622 0 5459.71907878 0 13042.20212713 0 1887
0.04250000 0.04250150 45648.98076232 0 239.29951291 0 23157.43518845 0 6062.36357400 0 11747.73663258 0 1920
0.04350000 0.04349210 44278.22694977 0 112.09732370 0 17378.01380287 0 7758.40014508 0 11973.61205888 0 2005
0.04450000 0.04448520 44835.49705789 0 -463.58716783 0 20359.34798353 0 4058.60495157 0 10600.48876882 0 2151
0.04550000 0.04548030 44870.37488107 0 983.31766589 0 18769.02996983 0 2583.68270713 0 11372.27409798 0 2274
0.04650000 0.04648670 43501.17119399 0 2213.45738217 0 18875.10284159 0 -808.31957213 0 10124.67775439 0 2311
0.04750000 0.04749250 41249.61394212 0 2075.10868356 0 16884.52028570 0 1614.48889878 0 14537.29814739 0 2568
0.04850000 0.04851840 40566.34077756 0 648.16835872 0 15985.66895692 0 3424.81400663 0 10782.90532021 0 2493
0.04950000 0.04949480 39091.83928146 0 -7.14634417 0 15270.72894338 0 4940.54884035 0 12754.32168185 0 2644
0.05050000 0.05050630 39995.89460291 0 455.01940289 0 13457.08213809 0 4036.53780821 0 7873.20908112 0 2829
0.05150000 0.05149060 38166.08220338 0 810.26165790 0 13021.82904947 0 149.79083908 0 4994.58178547 0 2784
0.05250000 0.05249300 38309.91170277 0 2908.45613871 0 11847.49827920 0 -5340.72480395 0 848.79556274 0 3055
0.05350000 0.05348950 35049.22276693 0 2419.02616475 0 15248.58429374 0 -5444.68286167 0 3280.30909542 0 3009
0.05450000 0.05448610 34047.28809409 0 1046.66797234 0 13651.40143865 0 -3198.22995154 0 -1165.59470598 0 3336
0.05550000 0.05550870 34671.76721386 0 -1017.15690500 0 15294.86661149 0 1014.60251966 0 -2803.05867876 0 3349
0.05650000 0.05647670 35699.83257327 0 -1676.98110006 0 14395.01877347 0 4151.65676935 0 -7272.98942503 0 3324
0.05750000 0.05747970 35053.09808062 0 498.87023810 0 13653.28373387 0 1541.45584428 0 -8328.59165626 0 3639
0.05850000 0.05849280 35007.59082561 0 1079.10988406 0 12681.35506129 0 893.78574017 0 -6755.34716743 0 3846
0.05950000 0.05951020 33154.08365097 0 1733.16207619 0 13429.17987954 0 -939.83443186 0 -6834.14890316 0 3787
0.06050000 0.06049470 32281.91662500 0 976.53033078 0 13632.35703997 0 112.74505470 0 -3155.94474306 0 3930
0.06150000 0.06148310 32243.93855088 0 506.31748377 0 13428.29409356 0 1755.30672582 0 -3565.41038718 0 4083
0.06250000 0.06249100 31986.28555235 0 -92.33942440 0 11949.91728377 0 3596.57898154 0 -1451.08352911 0 4303
0.06350000 0.06350600 31908.77927862 0 -329.45038158 0 10604.35301019 0 2255.63186740 0 -1708.91368483 0 4470
0.06450000 0.06451750 32608.21803741 0 216.07752607 0 11165.88596336 0 2942.03849989 0 -1583.92928228 0 4479
0.06550000 0.06550280 31000.29502725 0 1266.87326110 0 10083.12331935 0 95.49625493 0 -1071.12120170 0 4636
0.06650000 0.06648880 30349.46377441 0 2027.79663961 0 11080.29689252 0 -953.43567567 0 1651.75834412 0 4653
0.06750000 0.06749660 28927.88799094 0 1542.66272768 0 11352.56535981 0 -1035.35537807 0 3304.51319748 0 5220
0.06850000 0.06852730 28561.28331619 0 -50.30090731 0 12732.95209495 0 474.87318852 0 4203.71884065 0 5029
0.06950000 0.06949320 29080.35390369 0 -488.03596826 0 11290.11744783 0 765.81291715 0 3423.28602580 0 5040
0.07050000 0.07048030 29424.26031256 0 -798.29358201 0 11904.63147526 0 2310.79418965 0 -1307.36475296 0 5475
0.07150000 0.07148790 29949.53140196 0 -340.56035231 0 11542.01283745 0 -986.83534348 0 -783.60946483 0 5509
0.07250000 0.07249820 29161.07115162 0 589.11965046 0 10794.77485242 0 -964.16032949 0 -1534.53564127 0 5916
0.07350000 0.07351270 29729.63503106 0 1103.61515335 0 11494.95545697 0 -2488.02889302 0 -1978.09297350 0 5721
0.07450000 0.07449140 28010.32443322 0 1027.45638155 0 12309.21422414 0 442.06256838 0 -2250.11784965 0 6028
0.07550000 0.07549160 27922.52089741 0 934.06796510 0 12243.99823096 0 150.04107362 0 -487.79237712 0 6183
0.07650000 0.07648840 27034.52044695 0 620.16755649 0 12227.38974373 0 2611.29708523 0 1578.70314497 0 6330
0.07750000 0.07749960 26850.60913171 0 -24.16147360 0 11438.92949339 0 3274.88365626 0 214.09557993 0 6583
0.07850000 0.07848650 25898.61064381 0 -207.16430459 0 9590.92526419 0 3779.50485987 0 1248.65928677 0 6549
0.07950000 0.07947320 26148.29156847 0 588.56049806 0 8642.90174089 0 1558.85046657 0 111.40973233 0 6828
0.08050000 0.08048110 25327.05723667 0 517.30898062 0 7891.57806799 0 -134.65054212 0 2255.17790209 0 7147
0.08150000 0.08149960 24628.50426386 0 733.53598307 0 7697.41377997 0 -683.84781822 0 2672.27237801 0 7386
0.08250000 0.08250610 24393.99242420 0 687.14294208 0 6624.71587922 0 455.03158244 0 1769.40179532 0 7227
0.08350000 0.08350160 23849.01259663 0 110.17317509 0 7514.90864999 0 378.98907006 0 1903.21084075 0 7798
0.08450000 0.08449610 23726.10979114 0 408.96406780 0 8018.04616207 0 803.22519548 0 1235.50536489 0 7371
0.08550000 0.08548940 23669.08731832 0 254.24493695 0 7686.75113117 0 671.71476468 0 1915.82221872 0 8256
0.08650000 0.08650700 22966.65903183 0 988.14077058 0 8405.97613442 0 -81.94151488 0 3097.35000012 0 8037
0.08750000 0.08749060 22724.61801129 0 758.71998587 0 9102.25928064 0 -94.86812194 0 3606.89838827 0 8155
0.08850000 0.08849210 21821.00558284 0 457.19068578 0 8601.72376489 0 386.06760731 0 3254.32234907 0 8718
0.08950000 0.08949900 22050.97776933 0 149.11099833 0 8526.63125797 0 119.16368140 0 2931.94053965 0 8571
0.09050000 0.09049190 21521.05630351 0 -179.16903852 0 8928.40163634 0 331.64048743 0 2557.49665894 0 8932
0.09150000 0.09150830 21759.22201036 0 194.98253282 0 8231.31021040 0 792.32006277 0 2019.12700928 0 9285
0.09250000 0.09250820 21463.92310744 0 358.45765814 0 7722.60331894 0 914.69250390 0 2212.69339176 0 9204
0.09350000 0.09350330 21074.84161332 0 499.48696659 0 7000.62130681 0 1008.65778847 0 927.88517892 0 9349
0.09450000 0.09448040 20158.16384158 0 989.95441739 0 6595.15277195 0 810.59714935 0 1850.62837019 0 9564
0.09550000 0.09549270 19536.34207976 0 677.02726613 0 5564.90616455 0 1375.93566056 0 1807.71203919 0 10155
0.09650000 0.09649430 18530.31064674 0 299.00481003 0 5024.74279827 0 315.00542663 0 1985.36749091 0 9913
0.09750000 0.09749140 18503.29417418 0 520.98167076 0 4040.55706212 0 1154.35629629 0 919.85995789 0 10476
0.09850000 0.09850240 17713.72669137 0 348.71401230 0 4462.34620376 0 -359.69443683 0 1031.06706667 0 10575
0.09950000 0.09950330 17621.93711862 0 489.89390437 0 4165.19822260 0 -76.90139263 0 -416.96160802 0 10882
0.10050000 0.10051200 17000.00463356 0 249.73960798 0 4110.48986567 0 -801.49459111 0 739.64458468 0 10875
0.10150000 0.10150300 16936.56021235 0 271.72703061 0 4708.90473282 0 -100.92102975 0 9.71657401 0 11118
0.10250000 0.10250800 17114.60319543 0 137.60131668 0 4975.37130191 0 -308.64437602 0 -640.76540235 0 11575
0.10350000 0.10349800 16994.24702465 0 -22.95957274 0 5350.12520772 0 -549.81843352 0 351.24736022 0 11364
0.10450000 0.10450100 17115.26753492 0 344.97488821 0 5866.46093099 0 -215.01236842 0 445.37872967 0 12093
0.10550000 0.10551000 16930.58115694 0 94.62165199 0 5693.92089334 0 44.48096122 0 1301.60714406 0 12067
0.10650000 0.10649700 17013.40214659 0 207.88622017 0 6335.09707894 0 1021.41864282 0 703.86768872 0 12054
0.10750000 0.10749900 16443.84175792 0 430.14099625 0 5812.83766189 0 893.25094688 0 2106.96376207 0 12807
0.10850000 0.10850100 16341.53347659 0 477.61469614 0 5563.34496675 0 1039.18750969 0 1740.43659359 0 12736
0.10950000 0.10950300 15832.98159767 0 388.46033670 0 5228.50679191 0 -127.56646870 0 1449.26766784 0 12933
0.11050000 0.11050200 15480.21732895 0 432.93011487 0 5264.82401732 0 206.90078326 0 1562.03929612 0 13428
0.11150000 0.11150900 15003.99663850 0 342.35628339 0 5061.38112110 0 -527.91626780 0 1397.09487329 0 13453
0.11250000 0.11250000 15020.05150949 0 54.60682371 0 5040.23298070 0 -216.10188518 0 1127.49483628 0 13668
0.11350000 0.11349100 14957.27142776 0 -156.10206422 0 5114.40648466 0 663.56774808 0 461.68383520 0 13791
0.11450000 0.11448600 14939.22353831 0 113.89104032 0 4883.71459706 0 422.90080305 0 358.08452080 0 14205
0.11550000 0.11549300 14842.78358914 0 198.12707307 0 4454.10839410 0 555.70669586 0 181.63484526 0 14776
0.11650000 0.11649800 14651.34309303 0 181.32703463 0 4650.15497734 0 81.95967350 0 1326.75239372 0 14553
0.11750000 0.11747300 14626.43036218 0 320.55819752 0 4744.77906524 0 105.77414044 0 872.36854228 0 14568
0.11850000 0.11849100 14298.02520806 0 333.33787483 0 4872.28795785 0 -10.29790428 0 1213.49358315 0 16015
0.11950000 0.11950300 14016.67743442 0 399.01004779 0 5027.36693926 0 -38.82023515 0 1465.64363624 0 15270
0.12050000 0.12050700 13728.13264965 0 386.56032577 0 5057.02969745 0 -74.06233782 0 1096.95182827 0 15999
0.12150000 0.12150000 13604.78695117 0 -25.81556821 0 5310.67451439 0 -45.95302680 0 630.73498329 0 15670
0.12250000 0.12250700 13622.83484062 0 -49.21880901 0 5035.71547217 0 -22.61057307 0 -36.51796665 0 16887
0.12350000 0.12352200 13480.55546670 0 62.68131658 0 4830.08025564 0 -321.94113089 0 -228.70883422 0 16407
0.12450000 0.12449800 13743.96607414 0 119.69736745 0 5188.51355467 0 -32.69723953 0 -564.30767778 0 16306
0.12550000 0.12549900 13525.39838222 0 108.61385959 0 5062.14511151 0 -90.89747554 0 32.20706771 0 17523
0.12650000 0.12650100 13509.12206473 0 126.93534619 0 4996.22048954 0 568.63695678 0 -106.64088203 0 17154
0.12750000 0.12750600 13576.77396938 0 -126.38726611 0 4729.33317211 0 693.15964339 0 -128.83535712 0 18007
0.12850000 0.12850300 13452.09959192 0 130.59585677 0 5092.35041362 0 510.45299709 0 426.62885482 0 17496
0.12950000 0.12949900 13276.27107380 0 425.80618109 0 4653.08914341 0 527.61952949 0 892.08946001 0 18405
0.13050000 0.13049000 12792.74264897 0 295.92227480 0 4826.63676262 0 113.69616740 0 1548.48677054 0 18100
0.13150000 0.13148800 12760.74363024 0 212.11474102 0 4619.65072246 0 228.28919311 0 1199.71961107 0 19059
0.13250000 0.13249300 12558.89514880 0 112.17704444 0 4266.48785004 0 262.91124559 0 1150.90173095 0 18957
0.13350000 0.13349100 12430.67762740 0 46.50132833 0 4380.17848128 0 -142.40559842 0 752.18731423 0 19468
0.13450000 0.13450700 12474.19186394 0 33.70448892 0 4118.77196464 0 132.54790764 0 653.72666578 0 19953
0.13550000 0.13551000 12413.95841692 0 -24.23056491 0 4001.16173041 0 217.56232483 0 575.22831175 0 19956
0.13650000 0.13649900 12344.53494031 0 113.66405766 0 3667.30899248 0 143.95793836 0 160.56088943 0 19723
0.13750000 0.13749600 12407.86863827 0 172.58654141 0 3803.11105638 0 328.44944342 0 172.26212230 0 20946
0.13850000 0.13851100 12304.78529421 0 357.09244049 0 4221.48992198 0 -216.01441382 0 -111.76958288 0 20955
0.13950000 0.13949800 11704.00094955 0 480.25876731 0 4065.59158853 0 49.21593020 0 916.77188650 0 20506
0.14050000 0.14048300 11565.48616607 0 227.82969163 0 4202.03584727 0 280.75318980 0 1112.04894316 0 21447
0.14150000 0.14148400 11478.56841624 0 35.54448786 0 3780.56780305 0 712.64250614 0 1243.49958341 0 21771
0.14250000 0.14249400 11575.89415140 0 -77.67069775 0 3808.28183207 0 521.60614988 0 912.74266750 0 22470
0.14350000 0.14350900 11173.41514424 0 218.14251465 0 3612.16881489 0 298.98487985 0 925.55888347 0 22519
0.14450000 0.14449900 11227.55881260 0 319.30259589 0 3271.10799350 0 -114.95951966 0 1016.32758787 0 22218
0.14550000 0.14550500 10791.04347895 0 158.96536742 0 2966.49726541 0 -43.37970779 0 1086.32903984 0 23559
0.14650000 0.14650700 10893.29639865 0 6.13875154 0 2992.88261545 0 348.40509444 0 1459.22168785 0 23044
0.14750000 0.14750500 10787.54462431 0 -108.87261982 0 2734.15560142 0 640.33911784 0 462.52643911 0 23649
0.14850000 0.14849900 10802.07151447 0 58.13435567 0 2378.93327659 0 326.46860451 0 573.12678450 0 23640
0.14950000 0.14949500 10635.69876175 0 289.51361320 0 2290.17752084 0 47.39973676 0 349.90871615 0 24457
0.15050000 0.15050000 10435.68828622 0 226.49326203 0 2217.21090028 0 -218.46582653 0 162.17966332 0 24591
0.15150000 0.15149900 10233.61835828 0 285.94168121 0 2549.15919835 0 -813.35083653 0 194.43334551 0 25020
0.15250000 0.15250500 10014.47490547 0 388.56220209 0 2853.88064968 0 -438.17618237 0 203.84149991 0 25297
0.15350000 0.15350100 9910.69400495 0 185.57991459 0 3302.61982993 0 -415.93077458 0 285.57518726 0 25452
0.15450000 0.15450400 9916.24123968 0 56.67269808 0 3661.62888985 0 -171.70407713 0 -33.68433729 0 26061
0.15550000 0.15549900 9752.95766558 0 105.27621799 0 3820.76034214 0 188.00475372 0 96.19591513 0 26128
0.15650000 0.15649500 9754.62958663 0 216.63114231 0 3570.89118796 0 360.24251690 0 175.93038351 0 26331
0.15750000 0.15749700 9531.47795223 0 31.97477033 0 3389.81438788 0 513.44363203 0 142.67465592 0 27345
0.15850000 0.15849900 9513.09789303 0 68.22312588 0 2983.83652608 0 599.35601476 0 -84.34653456 0 26980
0.15950000 0.15949700 9325.88702500 0 161.29498456 0 2753.69825472 0 425.08426551 0 -480.99950584 0 27777
0.16050000 0.16050000 9230.83111643 0 187.82095313 0 2305.77842651 0 -86.86748147 0 -439.41849722 0 28224
0.16150000 0.16150500 9029.95699957 0 162.15308974 0 2334.78791753 0 -27.66331777 0 -268.03330305 0 28075
0.16250000 0.16249700 8958.50728752 0 101.33347385 0 2605.01907706 0 -81.16401623 0 -98.37948831 0 28590
0.16350000 0.16349900 8911.30596682 0 51.30250981 0 2673.87786510 0 90.37929073 0 -106.81682127 0 29163
0.16450000 0.16449100 8863.48459592 0 81.15969803 0 2767.90404746 0 162.36900007 0 305.88958160 0 28996
0.16550000 0.16550500 8846.67680685 0 33.22627521 0 2872.98040999 0 163.72425263 0 348.64314942 0 30777
0.16650000 0.16650700 8840.50952193 0 38.60720362 0 2852.83985115 0 224.32862252 0 776.64054359 0 29211
0.16750000 0.16749900 8864.68040701 0 220.24404190 0 2915.60886055 0 179.07713822 0 840.32744872 0 30922
0.16850000 0.16850800 8603.00815457 0 155.99134098 0 2713.40606471 0 49.48531987 0 1233.10267040 0 30867
0.16950000 0.16949900 8510.54317001 0 224.14371470 0 2686.44495377 0 203.91679172 0 1049.74718587 0 30852
0.17050000 0.17049200 8313.06825687 0 28.48377704 0 2463.82479097 0 199.38156747 0 992.50880272 0 31257
0.17150000 0.17149500 8324.15165401 0 -53.11770675 0 2213.20271870 0 489.83300658 0 951.17138524 0 32608
0.17250000 0.17250900 8364.01202336 0 -41.50184150 0 2100.89612806 0 437.52955860 0 648.75629917 0 32361
0.17350000 0.17350400 8250.14423492 0 83.26454698 0 1760.97575613 0 144.87472686 0 979.70365907 0 32508
0.17450000 0.17449800 8285.43173412 0 140.75028586 0 1789.85237926 0 183.66218793 0 543.78623096 0 32791
0.17550000 0.17549800 8112.37129720 0 167.72689805 0 1654.65929322 0 -271.68606301 0 973.44668831 0 33633
0.17650000 0.17650100 7999.99827262 0 123.99896564 0 1874.40065157 0 -195.62583490 0 569.28800948 0 33984
0.17750000 0.17750300 7998.31527925 0 131.59458047 0 2048.19186193 0 -130.29247507 0 604.81909982 0 34069
