### header ###
fiducial parameters:
Omega_m = 0.31
Omega_nu = 0
Omega_de = 0.69
Omega_k = 0
H_0 = 100
w_de = -1
zeff = 0
beta = 0
fgrowth = 0
b_1 = 2
gamma = 0.55
Lx = 3500 Ly = 3500 Lz = 3500
nx = 700 ny = 700 nz = 700
xoffset = -685.467585 yoffset = -31.7331281 zoffset = 572.489161
bins = 400 dk = 0.001
kx_ny = 0.628318531 ky_ny = 0.628318531 kz_ny = 0.628318531
############################
A(data) = 8.01756846 (not used)
A(ran) = 8.01866537 (used)
Ngal = 476637
weighted Ngal = 0
Nran = 23820508
weighted Nran = 0
SN(data) = 3484.68027
SN(ran) = 69.8454835
SN(data+ran) = 3554.52575
############################
13 columns: k_central k_mean P_0(k) sigma^{lin}_{P_0(k)} P^img_1(k) sigma^{lin}_{P_1(k)} P_2(k) sigma^{lin}_{P_2(k)} P^img_3(k) sigma^{lin}_{P_3(k)} P_4(k) sigma^{lin}_{P_4(k)} N_modes
### header ###
0.00050000 0 0 0 0 0 0 0 0 0 0 0 0
0.00150000 0.00179520 120486.82421155 0 -36653.82407965 0 85838.86249604 0 79264.22674198 0 -134925.13577506 0 3
0.00250000 0.00253879 180216.48044573 0 29796.84404271 0 117679.98987002 0 -23468.89968560 0 93549.40805325 0 6
0.00350000 0.00331552 144772.86146876 0 57675.73998033 0 82918.64754837 0 -81223.14244890 0 149194.04076885 0 7
0.00450000 0.00420575 84651.46638249 0 60434.96332514 0 96052.19635526 0 9150.66748475 0 121200.98916235 0 24
0.00550000 0.00557378 78567.77751089 0 -1379.08020081 0 142940.39171128 0 85604.57210288 0 -9598.62052993 0 45
0.00650000 0.00659388 92699.93929317 0 -8453.23281674 0 150505.00402738 0 169673.41275342 0 19637.65385185 0 40
0.00750000 0.00754703 79725.38907068 0 13300.85163490 0 60520.33094949 0 87395.18847255 0 -14296.14291284 0 57
0.00850000 0.00846663 80980.76925862 0 -4598.98976435 0 39577.91434100 0 51081.72765783 0 8169.73701209 0 75
0.00950000 0.00948925 75137.34983557 0 932.88101188 0 12520.03128868 0 35550.35618822 0 -6080.02393209 0 112
0.01050000 0.01054430 70565.47619471 0 -4660.72904754 0 515.15541344 0 -23892.52683316 0 -17984.99864942 0 105
0.01150000 0.01145670 78481.96699354 0 -2528.08856422 0 6521.76540305 0 -36135.41783164 0 -15116.60218191 0 144
0.01250000 0.01249090 76243.69653145 0 -1953.70064193 0 14826.17510191 0 -31595.76465599 0 -13223.12391467 0 169
0.01350000 0.01339930 81475.70217801 0 686.99568016 0 23929.17622831 0 -20101.14136876 0 10305.33380613 0 180
0.01450000 0.01448870 95177.59341784 0 1567.69725410 0 34767.21065380 0 -3051.89810674 0 -10407.16597749 0 267
0.01550000 0.01550050 89248.58492395 0 -3131.55241148 0 46674.16731727 0 23108.05261976 0 3776.51533217 0 238
0.01650000 0.01653350 94055.74546721 0 3239.68473566 0 31810.67848072 0 1339.52985656 0 -2918.49873732 0 315
0.01750000 0.01747870 85237.52453514 0 7076.04598348 0 32375.47776972 0 22426.55102718 0 -9569.87677470 0 297
0.01850000 0.01844180 90241.44029043 0 -2862.09631470 0 35964.68258293 0 9302.12581594 0 -1140.34980540 0 388
0.01950000 0.01947590 79804.44546988 0 8442.29335982 0 40389.18358047 0 3047.67955098 0 5598.23386226 0 399
0.02050000 0.02045430 75508.27271700 0 9104.24122678 0 21571.76755118 0 16145.66405055 0 1559.66981860 0 462
0.02150000 0.02154770 66913.15913003 0 4159.80600042 0 18275.53645266 0 13587.07123146 0 4971.19703545 0 571
0.02250000 0.02255340 64231.66350545 0 -1692.65951200 0 5868.13285204 0 8974.32963968 0 562.01459931 0 510
0.02350000 0.02348930 62047.75815822 0 2319.87349600 0 9384.27139377 0 3837.43526332 0 -9691.63913074 0 555
0.02450000 0.02439640 61355.95930355 0 5238.44973960 0 -624.95744420 0 -11639.00640286 0 -8642.03809955 0 592
0.02550000 0.02547300 56434.42164491 0 4866.44177034 0 4418.46658050 0 -8246.96647770 0 -4192.34756306 0 837
0.02650000 0.02652900 54942.97949184 0 1078.91501114 0 2383.42864046 0 -9631.88179369 0 -8263.15421658 0 723
0.02750000 0.02749970 54630.18631571 0 -1498.05233099 0 9627.65216561 0 -3614.64901565 0 -14767.60250362 0 826
0.02850000 0.02848090 55193.76764898 0 238.98284442 0 11052.62715279 0 -1547.47918898 0 -18334.10905096 0 831
0.02950000 0.02946900 56863.14206189 0 305.49540684 0 9769.22291074 0 2945.51520988 0 -16019.88244061 0 996
0.03050000 0.03053250 54038.37055416 0 1513.21034367 0 10448.24430257 0 231.60646163 0 -13419.87912670 0 1041
0.03150000 0.03150510 55238.83201099 0 1268.79984562 0 10390.94502163 0 4103.82432613 0 -7523.96581169 0 1036
0.03250000 0.03246190 49791.24820022 0 2885.63607726 0 14810.89529366 0 -149.08553199 0 -6362.50108286 0 1059
0.03350000 0.03345080 51414.11884889 0 2543.35730014 0 13366.17835133 0 1808.55353588 0 473.01968134 0 1302
0.03450000 0.03451200 47517.87846845 0 1788.63442353 0 20245.52448440 0 -1378.68159712 0 -1454.16163541 0 1339
0.03550000 0.03553350 49371.71781284 0 1619.02855196 0 20793.27239318 0 -1100.17276756 0 3940.69576458 0 1365
0.03650000 0.03647120 47264.76512310 0 92.28937749 0 23045.93687753 0 -4984.46168058 0 4075.95528456 0 1308
0.03750000 0.03744890 48082.78848070 0 1487.73292426 0 22976.29195442 0 2177.61626673 0 4868.33513789 0 1579
0.03850000 0.03847530 47894.55895878 0 476.66469068 0 25523.48027895 0 3448.89631311 0 1718.35837790 0 1662
0.03950000 0.03950240 47770.65964406 0 623.02532352 0 18436.08516254 0 6762.44452764 0 2581.14714475 0 1683
0.04050000 0.04050350 46352.40555804 0 1640.97389975 0 18353.26417289 0 4537.56050625 0 539.32076236 0 1822
0.04150000 0.04152450 43076.10464421 0 1668.85401364 0 13525.39838222 0 3890.52706083 0 -253.52412861 0 1887
0.04250000 0.04250150 43182.28823922 0 909.05004717 0 12371.10851987 0 4078.30261743 0 1321.91378777 0 1920
0.04350000 0.04349210 42104.95103436 0 88.68256768 0 9184.69273891 0 566.14346923 0 -2248.06946955 0 2005
0.04450000 0.04448520 41441.82950097 0 1738.07818841 0 13486.86669185 0 66.84550723 0 -3617.68283265 0 2151
0.04550000 0.04548030 40519.94773657 0 208.59263449 0 8692.26216493 0 -1672.23107271 0 -2025.60431930 0 2274
0.04650000 0.04648670 41153.94905569 0 -894.06033383 0 14880.65094002 0 -1007.35346861 0 881.39137977 0 2311
0.04750000 0.04749250 42116.57697542 0 279.95708964 0 14378.18883975 0 -554.41123385 0 -3392.99214510 0 2568
0.04850000 0.04851840 41657.07549545 0 369.71046186 0 18519.90266141 0 38.19254506 0 -1830.48781134 0 2493
0.04950000 0.04949480 40458.38561058 0 2997.44441328 0 13729.35060538 0 23.99483511 0 3714.12278182 0 2644
0.05050000 0.05050630 38835.29351542 0 1646.83115958 0 16104.03210923 0 2060.11675576 0 4151.35781658 0 2829
0.05150000 0.05149060 36648.06647074 0 478.24471143 0 14857.95267414 0 3539.80009987 0 1668.62149482 0 2784
0.05250000 0.05249300 36661.46398377 0 527.15670631 0 14399.55842665 0 4187.05499180 0 1144.42442093 0 3055
0.05350000 0.05348950 35700.93980575 0 1749.67091249 0 12321.06161169 0 1767.41984918 0 396.71807655 0 3009
0.05450000 0.05448610 34960.97633812 0 666.09113091 0 8820.19180588 0 2170.29746003 0 1487.03536779 0 3336
0.05550000 0.05550870 34604.66892546 0 -2256.50658107 0 8226.67090631 0 1607.25867067 0 2891.88086846 0 3349
0.05650000 0.05647670 35815.87053737 0 -1293.69043181 0 7124.14416249 0 1064.60624578 0 -1841.15046014 0 3324
0.05750000 0.05747970 37140.56347867 0 884.58242378 0 8680.21547553 0 38.43668982 0 -2727.97724417 0 3639
0.05850000 0.05849280 35861.48851562 0 2170.66284675 0 9497.75165084 0 -3531.01974629 0 171.53467056 0 3846
0.05950000 0.05951020 34139.63128308 0 1674.93271997 0 10106.65200959 0 -399.43079614 0 4956.92480876 0 3787
0.06050000 0.06049470 34168.41932761 0 -80.33835297 0 10333.11426910 0 1282.59596234 0 3421.39265826 0 3930
0.06150000 0.06148310 33817.09446111 0 228.87713356 0 12557.89863956 0 2713.78252375 0 2570.66165315 0 4083
0.06250000 0.06249100 33938.55786437 0 823.55509108 0 12743.69225002 0 187.03149637 0 3288.62441136 0 4303
0.06350000 0.06350600 32579.98360912 0 1317.37413460 0 12958.27390501 0 -693.50731439 0 4659.21213904 0 4470
0.06450000 0.06451750 32037.88258600 0 746.78401972 0 14573.61537280 0 -1569.39131979 0 3117.56806524 0 4479
0.06550000 0.06550280 31281.08918465 0 -191.33088010 0 14320.16985770 0 52.35216621 0 2951.81536270 0 4636
0.06650000 0.06648880 32104.20581167 0 69.81488330 0 14915.19659345 0 101.69133139 0 2605.69448887 0 4653
0.06750000 0.06749660 32292.98894982 0 277.71715833 0 14297.47159182 0 408.35287547 0 2911.89963173 0 5220
0.06850000 0.06852730 32359.75506848 0 298.55084471 0 14620.00841379 0 2224.95045533 0 604.71612720 0 5029
0.06950000 0.06949320 30982.69003078 0 1008.05323953 0 12265.58926435 0 1048.82486121 0 2523.75928521 0 5040
0.07050000 0.07048030 29571.41150940 0 1602.36470310 0 11187.91988975 0 2989.42805011 0 573.62393188 0 5475
0.07150000 0.07148790 29065.95988143 0 80.21467510 0 9807.07918929 0 2698.13732878 0 2988.07722648 0 5509
0.07250000 0.07249820 28634.36066000 0 -148.46769626 0 8726.08811725 0 2031.29549425 0 -70.29320773 0 5916
0.07350000 0.07351270 28260.55897412 0 515.28053071 0 7901.08919501 0 -604.98961363 0 1447.60681911 0 5721
0.07450000 0.07449140 27732.74125002 0 1177.24279169 0 9331.16852394 0 -1145.73095526 0 709.22226500 0 6028
0.07550000 0.07549160 27336.13057501 0 929.80069111 0 9456.29686672 0 -542.09880866 0 1447.08641985 0 6183
0.07650000 0.07648840 26636.69181622 0 426.41294449 0 10327.33451555 0 -807.71170150 0 1469.77361340 0 6330
0.07750000 0.07749960 25968.47701341 0 507.45682600 0 10444.74544793 0 922.68229348 0 1934.63409859 0 6583
0.07850000 0.07848650 25865.39366935 0 756.53430895 0 10637.89108206 0 1747.82183425 0 1390.90544372 0 6549
0.07950000 0.07947320 24961.00617816 0 740.93893945 0 9712.08971468 0 1417.35722771 0 2057.10508341 0 6828
0.08050000 0.08048110 24168.67061414 0 571.73499327 0 8518.80312432 0 1711.12814980 0 1433.26815847 0 7147
0.08150000 0.08149960 23814.02405020 0 156.74758076 0 8064.70493886 0 240.68355351 0 2272.21820998 0 7386
0.08250000 0.08250610 23649.60002664 0 709.21229991 0 7336.47813554 0 -34.45419603 0 74.71040099 0 7227
0.08350000 0.08350160 22843.09188685 0 -37.94950753 0 6659.06223081 0 -98.78362816 0 976.63108893 0 7798
0.08450000 0.08449610 22734.36165713 0 602.64892416 0 6284.16438477 0 -228.62136286 0 417.97361851 0 7371
0.08550000 0.08548940 22954.92236752 0 108.52517026 0 6841.58950544 0 42.22353563 0 -275.23585034 0 8256
0.08650000 0.08650700 22821.83302320 0 50.55158475 0 7218.18141717 0 140.24870955 0 -2255.03396186 0 8037
0.08750000 0.08749060 22100.13889152 0 703.87101042 0 6665.32916665 0 392.60581512 0 -870.12639650 0 8155
0.08850000 0.08849210 21525.92812643 0 729.37832510 0 6422.20305829 0 422.73139648 0 -917.47387189 0 8718
0.08950000 0.08949900 20703.91873189 0 444.11537741 0 6065.76277772 0 809.56853037 0 -785.58144588 0 8571
0.09050000 0.09049190 20986.37373801 0 532.94531773 0 6156.54476891 0 692.80865069 0 -1518.58042120 0 8932
0.09150000 0.09150830 20053.19820230 0 166.83336144 0 6394.77690971 0 -179.00073918 0 -171.84691012 0 9285
0.09250000 0.09250820 20038.47201029 0 645.32498571 0 6433.06500893 0 246.00602005 0 46.35462002 0 9204
0.09350000 0.09350330 19785.91228118 0 536.51171355 0 7060.87689847 0 -194.44441784 0 839.23461026 0 9349
0.09450000 0.09448040 19480.09466969 0 103.84556290 0 6783.23835365 0 260.25499486 0 588.99785489 0 9564
0.09550000 0.09549270 19228.08855681 0 456.45880511 0 6768.11355795 0 105.11843736 0 711.15992185 0 10155
0.09650000 0.09649430 18843.32526937 0 631.25648979 0 6846.61634091 0 -87.73876271 0 451.94351105 0 9913
0.09750000 0.09749140 18594.30868419 0 271.19998795 0 6736.83424033 0 682.07181732 0 -41.66150443 0 10476
0.09850000 0.09850240 17994.63157202 0 75.17056681 0 5518.54634054 0 674.33226227 0 180.54532849 0 10575
0.09950000 0.09950330 18183.08254043 0 5.97787066 0 5581.75824293 0 1021.92243360 0 -938.84456602 0 10882
0.10050000 0.10051200 17778.05689856 0 261.70879111 0 4682.43080418 0 636.70518084 0 -525.10500452 0 10875
0.10150000 0.10150300 17467.03529441 0 327.65998666 0 4380.84282077 0 101.45438363 0 -1011.54655801 0 11118
0.10250000 0.10250800 16830.70878708 0 511.46611481 0 4065.97911990 0 300.67340938 0 -51.27992227 0 11575
0.10350000 0.10349800 16982.95325334 0 216.95445419 0 3851.37532027 0 198.65411573 0 -960.13775388 0 11364
0.10450000 0.10450100 16415.05371339 0 163.65781868 0 4323.16708079 0 -458.09418749 0 -559.21440836 0 12093
0.10550000 0.10551000 16554.12211311 0 468.02717008 0 4250.17831559 0 -331.35149976 0 -963.38415952 0 12067
0.10650000 0.10649700 16170.46605814 0 196.14955586 0 4372.38356461 0 -259.73127390 0 -331.61280662 0 12054
0.10750000 0.10749900 16032.61561415 0 -37.19913608 0 4879.67319850 0 235.44634387 0 -918.14264031 0 12807
0.10850000 0.10850100 16169.58027216 0 0.17115932 0 4556.18415660 0 -53.07939650 0 -928.35243102 0 12736
0.10950000 0.10950300 16161.49747504 0 87.26652806 0 4999.97400766 0 733.63341953 0 -703.37829196 0 12933
0.11050000 0.11050200 16055.75677302 0 279.90283525 0 5118.54753414 0 274.47518163 0 -261.35779841 0 13428
0.11150000 0.11150900 15468.25921815 0 382.70604950 0 4661.11657891 0 42.58947597 0 351.38908598 0 13453
0.11250000 0.11250000 15648.07377320 0 406.43293435 0 5008.85401216 0 603.02206151 0 259.98150844 0 13668
0.11350000 0.11349100 15045.51785657 0 321.31222284 0 5155.08620604 0 246.39244419 0 711.88294466 0 13791
0.11450000 0.11448600 15013.85100759 0 329.98517487 0 4764.96391338 0 460.21010876 0 627.54504651 0 14205
0.11550000 0.11549300 14729.62442949 0 -15.67752616 0 4792.74437635 0 358.31703962 0 1261.15994149 0 14776
0.11650000 0.11649800 14656.43636244 0 358.58498988 0 4799.26597567 0 35.21110016 0 851.72529988 0 14553
0.11750000 0.11747300 14426.46417596 0 96.41669729 0 4777.80781017 0 120.25541262 0 1067.99548440 0 14568
0.11850000 0.11849100 14398.45119417 0 125.27892639 0 4764.06705507 0 164.68975935 0 1310.53143786 0 16015
0.11950000 0.11950300 14390.14695055 0 152.55449135 0 4750.92420551 0 -9.50490437 0 1055.03532820 0 15270
0.12050000 0.12050700 14306.66162142 0 212.14352906 0 4898.21934257 0 -121.10576717 0 1527.09503899 0 15999
0.12150000 0.12150000 14148.65954626 0 54.95449471 0 4855.23657763 0 215.17291713 0 1092.01800033 0 15670
0.12250000 0.12250700 13860.55765448 0 166.99280291 0 4834.66419811 0 -105.64813738 0 860.48461605 0 16887
0.12350000 0.12352200 13920.23748525 0 126.66961039 0 4936.29706762 0 334.54807993 0 508.49873176 0 16407
0.12450000 0.12449800 13900.86091682 0 141.91730890 0 4759.57169119 0 238.80125829 0 422.71146630 0 16306
0.12550000 0.12549900 13508.23627875 0 123.44756387 0 4358.24420582 0 416.26848049 0 216.24582541 0 17523
0.12650000 0.12650100 13467.04723042 0 187.46996043 0 3707.86691829 0 395.10040990 0 293.97243840 0 17154
0.12750000 0.12750600 13417.33249199 0 163.06434207 0 3727.57565647 0 127.23319172 0 -157.14286276 0 18007
0.12850000 0.12850300 13064.01460702 0 220.28058057 0 3730.94164322 0 131.49492955 0 357.19762758 0 17496
0.12950000 0.12949900 12887.52174942 0 390.15661687 0 3702.66292563 0 328.61331383 0 304.66055355 0 18405
0.13050000 0.13049000 12542.28666157 0 311.36263176 0 3495.58830687 0 176.56150602 0 393.30669328 0 18100
0.13150000 0.13148800 12430.78835065 0 25.14458532 0 3171.76709522 0 502.57614522 0 382.18343577 0 19059
0.13250000 0.13249300 12280.75834935 0 -64.66481285 0 2989.07373572 0 876.23721257 0 588.58928610 0 18957
0.13350000 0.13349100 12303.56733848 0 -44.23382693 0 2371.39302338 0 704.72136496 0 329.28761841 0 19468
0.13450000 0.13450700 12515.49163551 0 7.73064183 0 1884.55397343 0 305.76003540 0 -87.91758076 0 19953
0.13550000 0.13551000 12140.91488689 0 252.85536019 0 1787.36110617 0 -237.35078374 0 -200.83536372 0 19956
0.13650000 0.13649900 12162.28447379 0 277.61640018 0 1515.59089350 0 -561.24950166 0 -251.67062143 0 19723
0.13750000 0.13749600 11680.30617444 0 376.63398657 0 2159.95590865 0 -567.38356961 0 -362.45033847 0 20946
0.13850000 0.13851100 11678.86677221 0 288.06756757 0 2368.20419384 0 -606.06252190 0 -745.14531565 0 20955
0.13950000 0.13949800 11385.11799477 0 251.68612269 0 2754.09685842 0 -90.49211772 0 -546.25535939 0 20506
0.14050000 0.14048300 11380.35689510 0 249.26571248 0 2894.62680501 0 -199.50779198 0 -854.30182987 0 21447
0.14150000 0.14148400 11178.28696716 0 38.33194563 0 3030.60602611 0 368.36295993 0 40.75545609 0 21771
0.14250000 0.14249400 11137.98370482 0 -56.54514489 0 3128.47430518 0 279.75889503 0 135.09786404 0 22470
0.14350000 0.14350900 11228.66604509 0 71.93955170 0 3309.38502040 0 172.46363861 0 453.08396051 0 22519
0.14450000 0.14449900 11039.97148553 0 310.80790829 0 3443.26049978 0 311.51321538 0 669.84132732 0 22218
0.14550000 0.14550500 10775.91868325 0 439.92228800 0 3178.70944289 0 22.11995835 0 1067.74303540 0 23559
0.14650000 0.14650700 10336.82349792 0 408.34733931 0 3269.70180825 0 242.69428770 0 1390.88329907 0 23044
0.14750000 0.14750500 10381.05743557 0 -30.47956359 0 2926.28258167 0 426.31882972 0 981.47190934 0 23649
0.14850000 0.14849900 10055.87432797 0 -130.70658002 0 2648.30079477 0 458.94897097 0 649.28777076 0 23640
0.14950000 0.14949500 10327.74419157 0 129.90051477 0 2330.37005993 0 8.39240146 0 8.15650558 0 24457
0.15050000 0.15050000 9982.56446535 0 181.39014688 0 2320.46032922 0 -143.60583843 0 220.94713452 0 24591
0.15150000 0.15149900 9961.95886886 0 111.53042067 0 2353.00189186 0 -247.67019047 0 356.47792647 0 25020
0.15250000 0.15250500 9911.92303300 0 61.15067840 0 2385.86455192 0 113.76703028 0 -3.21934487 0 25297
0.15350000 0.15350100 9891.45030441 0 48.43533130 0 2556.22334158 0 141.75454572 0 -271.28856654 0 25452
0.15450000 0.15450400 9689.76790784 0 327.71977721 0 2586.80510273 0 -170.64556287 0 90.46443691 0 26061
0.15550000 0.15549900 9527.13760090 0 253.97145053 0 2782.96240922 0 43.41093175 0 230.77160834 0 26128
0.15650000 0.15649500 9316.77450168 0 102.19445783 0 2592.52949466 0 166.88872306 0 197.97981115 0 26331
0.15750000 0.15749700 9286.17059588 0 18.47229166 0 2504.92526070 0 71.29990350 0 157.06757095 0 27345
0.15850000 0.15849900 9266.40649608 0 -17.60876105 0 2466.40464265 0 72.30704217 0 -97.67119169 0 26980
0.15950000 0.15949700 9409.99240432 0 -14.55933207 0 2496.18919641 0 -194.17203865 0 -324.31614457 0 27777
0.16050000 0.16050000 9299.78955540 0 120.21112332 0 2546.44647877 0 -347.41522860 0 -431.61250822 0 28224
0.16150000 0.16150500 9313.25350238 0 219.77900426 0 2770.78285192 0 -386.11743277 0 -151.18816647 0 28075
0.16250000 0.16249700 9099.23653596 0 212.77908050 0 3122.63919000 0 -78.79498162 0 86.59089480 0 28590
0.16350000 0.16349900 9150.22459175 0 119.14153675 0 3381.45478264 0 120.81456503 0 24.57424987 0 29163
0.16450000 0.16449100 9024.54263274 0 -29.69796818 0 3197.78705855 0 325.94156185 0 258.44466975 0 28996
0.16550000 0.16550500 8959.44843513 0 103.45493128 0 3239.78438659 0 496.23613202 0 437.95030695 0 30777
0.16650000 0.16650700 8834.81834697 0 256.35975099 0 3000.19034983 0 360.13843705 0 381.67078713 0 29211
0.16750000 0.16749900 8710.94117690 0 213.43013320 0 2857.93312056 0 198.04845957 0 381.17585421 0 30922
0.16850000 0.16850800 8537.92502928 0 178.42940722 0 2749.93366428 0 -81.05395733 0 171.76054598 0 30867
0.16950000 0.16949900 8291.89797181 0 156.16185478 0 2585.09996471 0 185.75264286 0 286.95479893 0 30852
0.17050000 0.17049200 8310.72092400 0 10.04585387 0 2590.37039132 0 -22.07478327 0 366.81504892 0 31257
0.17150000 0.17149500 8323.22157872 0 -33.04756789 0 2294.10819615 0 377.34372259 0 271.06490558 0 32608
0.17250000 0.17250900 8300.50116820 0 42.50853727 0 2344.55370802 0 141.23193199 0 386.19051012 0 32361
0.17350000 0.17350400 8271.45846020 0 148.59724246 0 2129.29664122 0 270.13483030 0 382.28862285 0 32508
0.17450000 0.17449800 8101.77508235 0 198.99514334 0 2231.26168048 0 112.55461071 0 638.28630882 0 32791
0.17550000 0.17549800 8011.51349043 0 202.94574883 0 2258.54388883 0 -11.69713611 0 672.07129354 0 33633
0.17650000 0.17650100 7855.33834886 0 45.72194738 0 2224.58506861 0 31.17147317 0 661.42414599 0 33984
0.17750000 0.17750300 7823.62721058 0 7.58423248 0 2220.48830843 0 268.66442556 0 618.71597470 0 34069
0.17850000 0.17849800 7855.84767580 0 68.33440274 0 1958.00777628 0 195.96354080 0 698.45885805 0 34536
