### header ###
fiducial parameters:
Omega_m = 0.31
Omega_nu = 0
Omega_de = 0.69
Omega_k = 0
H_0 = 100
w_de = -1
zeff = 0
beta = 0
fgrowth = 0
b_1 = 2
gamma = 0.55
Lx = 3500 Ly = 3500 Lz = 3500
nx = 700 ny = 700 nz = 700
xoffset = -685.467585 yoffset = -31.7331281 zoffset = 572.489161
bins = 400 dk = 0.001
kx_ny = 0.628318531 ky_ny = 0.628318531 kz_ny = 0.628318531
############################
A(data) = 8.10623498 (not used)
A(ran) = 8.11280989 (used)
Ngal = 482756
weighted Ngal = 0
Nran = 23820508
weighted Nran = 0
SN(data) = 3477.76184
SN(ran) = 70.6655164
SN(data+ran) = 3548.42736
############################
13 columns: k_central k_mean P_0(k) sigma^{lin}_{P_0(k)} P^img_1(k) sigma^{lin}_{P_1(k)} P_2(k) sigma^{lin}_{P_2(k)} P^img_3(k) sigma^{lin}_{P_3(k)} P_4(k) sigma^{lin}_{P_4(k)} N_modes
### header ###
0.00050000 0 0 0 0 0 0 0 0 0 0 0 0
0.00150000 0.00179520 32568.91128430 0 -14263.03666164 0 17326.97038545 0 6803.17961065 0 -75711.56060067 0 3
0.00250000 0.00253879 44968.69712546 0 4913.17805340 0 18442.72855743 0 11324.44165477 0 52157.95763020 0 6
0.00350000 0.00331552 39460.65842117 0 12349.07459348 0 22046.10594641 0 -29936.24461217 0 16617.01291808 0 7
0.00450000 0.00420575 36336.71269684 0 -2321.10252406 0 8171.22070361 0 14871.12874068 0 40323.63541754 0 24
0.00550000 0.00557378 46492.69191350 0 -14078.46100691 0 12368.67260841 0 26647.87486428 0 -13284.02170117 0 45
0.00650000 0.00659388 53324.42704985 0 -6080.79899483 0 21838.38913281 0 52355.26645847 0 39905.21226264 0 40
0.00750000 0.00754703 59651.37489772 0 -16582.13509490 0 -5238.90370492 0 -95.13640437 0 -20099.70196654 0 57
0.00850000 0.00846663 73516.02931238 0 -11324.33093152 0 -28202.76143857 0 21134.96433708 0 18130.04610455 0 75
0.00950000 0.00948925 78453.28967226 0 -433.55902292 0 -14530.98692225 0 -25149.45714658 0 2564.46115125 0 112
0.01050000 0.01054430 83353.45774400 0 -224.62425360 0 -26154.71351686 0 -9946.21402297 0 21601.21993519 0 105
0.01150000 0.01145670 75700.48827585 0 3118.95210584 0 -9955.86909021 0 -9180.99458242 0 -4492.39649332 0 144
0.01250000 0.01249090 69797.94263828 0 6917.73388322 0 -11647.86426272 0 10676.02416874 0 14968.78664558 0 169
0.01350000 0.01339930 67185.75976706 0 526.63962874 0 -5396.80612916 0 7482.17885782 0 -4263.48725002 0 180
0.01450000 0.01448870 67661.20539478 0 -3879.27757881 0 -6509.90694317 0 7387.16723856 0 2636.97380648 0 267
0.01550000 0.01550050 73215.19424706 0 -6806.11377672 0 -3379.76071694 0 -2353.24548301 0 18126.39223736 0 238
0.01650000 0.01653350 73436.75146668 0 -1673.71476424 0 7021.33762655 0 -2942.32638033 0 11052.98146719 0 315
0.01750000 0.01747870 80702.85390567 0 930.03542440 0 7822.42032718 0 -11559.83928041 0 22812.42154711 0 297
0.01850000 0.01844180 78244.46562618 0 5643.17642870 0 18755.85390330 0 -10234.28269777 0 16057.63906824 0 388
0.01950000 0.01947590 71262.36831879 0 6338.16411291 0 19040.41265114 0 -9815.40557756 0 127.95621453 0 399
0.02050000 0.02045430 72440.46367950 0 1356.37086261 0 20995.34232112 0 -6001.02289451 0 4247.87527202 0 462
0.02150000 0.02154770 71171.35380878 0 -3514.87629670 0 19716.59952781 0 4548.25637203 0 -4945.76390534 0 571
0.02250000 0.02255340 74786.80003182 0 -4554.09148721 0 8268.96718711 0 5499.66802672 0 -10504.59136357 0 510
0.02350000 0.02348930 78056.12538102 0 294.84272313 0 5522.14484610 0 8549.10807735 0 -23032.53936450 0 555
0.02450000 0.02439640 70607.77247551 0 9072.44150990 0 8668.62275144 0 -5235.41592260 0 -15902.84796728 0 592
0.02550000 0.02547300 62203.54576842 0 10319.62817747 0 4413.22937087 0 -7384.33272340 0 -6486.28967434 0 837
0.02650000 0.02652900 54228.70381779 0 3053.48144919 0 8185.19397753 0 1060.09538065 0 3052.41850600 0 723
0.02750000 0.02749970 57749.70311012 0 1393.71781422 0 15057.69741387 0 1866.29570981 0 819.07412123 0 826
0.02850000 0.02848090 55220.89484479 0 -482.89730232 0 14691.09273912 0 1798.90954096 0 7148.20432432 0 831
0.02950000 0.02946900 57779.37694063 0 -348.02531370 0 26490.75857511 0 129.58938244 0 7812.13413742 0 996
0.03050000 0.03053250 56938.10170091 0 715.11495627 0 22837.33427795 0 -1767.44199383 0 4731.93516845 0 1041
0.03150000 0.03150510 60753.95700316 0 695.15709079 0 29283.75251061 0 1747.58931543 0 7191.34210181 0 1036
0.03250000 0.03246190 62323.45904620 0 -1512.15847281 0 27125.20278722 0 1868.64304267 0 9669.46126412 0 1059
0.03350000 0.03345080 60306.52435724 0 -472.88017005 0 24944.72986068 0 4364.92081768 0 6246.95030106 0 1302
0.03450000 0.03451200 59846.80143077 0 3442.75117284 0 22758.05643225 0 6607.90809014 0 2864.80903428 0 1339
0.03550000 0.03553350 57409.56129169 0 1373.00149449 0 20023.08147879 0 8640.51011873 0 4811.32373740 0 1365
0.03650000 0.03647120 52720.43173099 0 2551.92727955 0 16359.35991955 0 4408.53470514 0 1771.73805586 0 1308
0.03750000 0.03744890 53836.85424246 0 1359.91400655 0 12323.60824640 0 3522.21724806 0 18.55289819 0 1579
0.03850000 0.03847530 50926.82583362 0 2048.97799699 0 10764.79099681 0 -4848.34959159 0 -4241.76334872 0 1662
0.03950000 0.03950240 46909.23277317 0 4340.60599238 0 10997.37625195 0 -2924.96497502 0 -1283.16065091 0 1683
0.04050000 0.04050350 44811.35938978 0 2414.19863113 0 13831.76960995 0 240.56950857 0 -915.35905785 0 1822
0.04150000 0.04152450 43094.37398016 0 803.64705106 0 13283.68953143 0 2295.61403233 0 -5019.84883070 0 1887
0.04250000 0.04250150 41906.86714336 0 994.80741735 0 13259.44114007 0 4830.85531838 0 -1447.82826561 0 1920
0.04350000 0.04349210 42461.36917027 0 -300.57154399 0 13491.95996127 0 2501.71428650 0 -1633.74367164 0 2005
0.04450000 0.04448520 42719.57578505 0 334.52039912 0 15683.83738236 0 483.20068402 0 7950.43854673 0 2151
0.04550000 0.04548030 42229.84685832 0 839.95209690 0 15214.81370305 0 111.40973233 0 5791.97740193 0 2274
0.04650000 0.04648670 41274.08377997 0 2087.38789179 0 16668.72067498 0 1900.01093888 0 8724.84801687 0 2311
0.04750000 0.04749250 40383.09380182 0 591.49244967 0 14421.37090654 0 1264.82488101 0 9897.71724026 0 2568
0.04850000 0.04851840 39434.85990435 0 978.06052607 0 15942.92978312 0 3027.00752055 0 10782.82781394 0 2493
0.04950000 0.04949480 39151.96200523 0 -603.77165790 0 12638.39444100 0 4901.55211234 0 8307.80890258 0 2644
0.05050000 0.05050630 38653.81811164 0 279.51641112 0 14134.26552399 0 3102.25504001 0 8299.40500804 0 2829
0.05150000 0.05149060 38193.76301542 0 915.36570124 0 10069.57079377 0 970.00319529 0 5708.99032742 0 2784
0.05250000 0.05249300 36989.86913789 0 1608.76450685 0 12536.08615967 0 1048.89350963 0 9072.40829293 0 3055
0.05350000 0.05348950 35615.90435115 0 1979.13377203 0 8536.69600123 0 931.18473171 0 8617.31359823 0 3009
0.05450000 0.05448610 34470.58307191 0 180.21205152 0 9101.08561421 0 4105.26372836 0 9574.40535556 0 3336
0.05550000 0.05550870 35589.88438782 0 -1151.44427487 0 7406.69881954 0 2802.26147138 0 7905.52919727 0 3349
0.05650000 0.05647670 35263.58297542 0 -152.02191253 0 5108.31670601 0 1577.26374274 0 3832.02089649 0 3324
0.05750000 0.05747970 35469.30677055 0 137.95784554 0 4526.58783236 0 -914.64267843 0 2825.76801697 0 3639
0.05850000 0.05849280 34740.52635098 0 1143.21753753 0 3312.82851341 0 -2490.23228566 0 1086.40543888 0 3846
0.05950000 0.05951020 34039.64818996 0 1438.08461977 0 4588.16103068 0 -3214.10766533 0 -1709.65553060 0 3787
0.06050000 0.06049470 32728.13131520 0 344.92506275 0 4970.38875574 0 -2305.88914976 0 -1920.62760769 0 3930
0.06150000 0.06148310 32760.90539666 0 821.60414745 0 6065.13165521 0 -702.40614185 0 -3020.84023562 0 4083
0.06250000 0.06249100 32159.01381952 0 282.60448251 0 7402.11487706 0 -1347.84517250 0 -3477.10859675 0 4303
0.06350000 0.06350600 32448.00149728 0 141.80547842 0 8282.05467505 0 1185.90134970 0 -814.81127617 0 4470
0.06450000 0.06451750 31605.95119483 0 569.51609937 0 8931.62368286 0 1624.03324277 0 -1178.62683230 0 4479
0.06550000 0.06550280 32189.13054302 0 -174.75560985 0 9066.84998587 0 1084.55857510 0 394.22569624 0 4636
0.06650000 0.06648880 31568.96962993 0 335.64091839 0 9833.54204561 0 -33.34353113 0 -324.79557623 0 4653
0.06750000 0.06749660 31573.84145285 0 1203.20739339 0 10589.79290305 0 -48.52656726 0 -241.93361898 0 5220
0.06850000 0.06852730 30383.12364185 0 888.98478013 0 11060.22276762 0 -2183.45138191 0 134.32944470 0 5029
0.06950000 0.06949320 29940.89498860 0 1013.39231456 0 12356.49305111 0 -1171.56268906 0 -660.35234495 0 5040
0.07050000 0.07048030 28862.11838152 0 1382.31331966 0 12567.64228540 0 -1494.23237893 0 -897.13844013 0 5475
0.07150000 0.07148790 28481.45185425 0 881.87081144 0 12723.20844911 0 -52.79505920 0 -2224.75115349 0 5509
0.07250000 0.07249820 27630.76513844 0 122.49977286 0 12899.70130672 0 139.85342755 0 -813.98749521 0 5916
0.07350000 0.07351270 28715.96369391 0 -220.89398736 0 13441.91305308 0 2101.53832290 0 -1451.00602283 0 5721
0.07450000 0.07449140 28474.14411987 0 -631.17898352 0 12127.84954361 0 1993.26205850 0 -1707.03138962 0 6028
0.07550000 0.07549160 28800.00263928 0 69.28584762 0 11382.90352981 0 2512.33264600 0 -1958.36209067 0 6183
0.07650000 0.07648840 28214.94099587 0 651.63842532 0 9759.27996305 0 1885.06330037 0 764.13767441 0 6330
0.07750000 0.07749960 27857.63707397 0 1104.56958775 0 9942.80374692 0 1352.17445150 0 267.27595603 0 6583
0.07850000 0.07848650 26951.81018056 0 982.05984979 0 10909.34019732 0 -523.96344784 0 1789.89666856 0 6549
0.07950000 0.07947320 25418.95753266 0 1781.03880870 0 10705.00044279 0 -396.91959287 0 2093.01263279 0 6828
0.08050000 0.08048110 24743.54571873 0 841.03164857 0 11026.02035625 0 -763.71581883 0 3419.80931581 0 7147
0.08150000 0.08149960 24950.70891608 0 -453.56560664 0 11724.37402722 0 320.77632232 0 2245.99894481 0 7386
0.08250000 0.08250610 24480.24583454 0 -544.58122388 0 10793.57904134 0 1549.85973881 0 2178.41347412 0 7227
0.08350000 0.08350160 24506.93013735 0 623.52689984 0 10173.49563452 0 887.49112351 0 919.25873065 0 7798
0.08450000 0.08449610 23789.11131936 0 880.68053652 0 8668.11342450 0 851.98660675 0 -673.73435673 0 7371
0.08550000 0.08548940 22888.15624886 0 1149.83878777 0 8935.22218842 0 929.84830211 0 778.39993601 0 8256
0.08650000 0.08650700 21777.26989981 0 756.05709175 0 7760.64782701 0 123.66458143 0 -758.14311775 0 8037
0.08750000 0.08749060 20997.55678608 0 497.52937956 0 7845.48397977 0 627.96800932 0 156.69886253 0 8155
0.08850000 0.08849210 20664.72270203 0 188.23837978 0 7645.47350425 0 -162.61702015 0 -878.45167753 0 8718
0.08950000 0.08949900 20811.32028263 0 272.77447253 0 7786.39098222 0 470.37228848 0 -201.85733930 0 8571
0.09050000 0.09049190 20451.35900278 0 367.52810664 0 6998.07467210 0 -114.86872660 0 -1576.10114864 0 8932
0.09150000 0.09150830 20201.67807812 0 499.94203914 0 6525.71822302 0 -18.75607535 0 -992.91294258 0 9285
0.09250000 0.09250820 19737.08332873 0 110.34800710 0 6423.00026567 0 1187.73935562 0 -1288.50858380 0 9204
0.09350000 0.09350330 19116.70096914 0 545.88665098 0 5800.93491271 0 932.52005409 0 -819.76503430 0 9349
0.09450000 0.09448040 19446.43480224 0 183.60239738 0 5494.51939568 0 1315.94580470 0 -1381.38324437 0 9564
0.09550000 0.09549270 18385.26319162 0 44.71370148 0 4726.11112559 0 996.46383715 0 -1046.36569787 0 10155
0.09650000 0.09649430 18731.60551194 0 393.59125203 0 5400.37141775 0 -2.87280325 0 -1093.72978175 0 9913
0.09750000 0.09749140 18312.96091055 0 197.95655927 0 5183.39814060 0 -253.25507111 0 140.83775723 0 10476
0.09850000 0.09850240 18231.57932313 0 614.54945887 0 6368.74587406 0 -821.76801786 0 911.77162461 0 10575
0.09950000 0.09950330 17988.54179337 0 338.88843126 0 6198.45351835 0 -453.41834472 0 1161.84118787 0 10882
0.10050000 0.10051200 17500.69516186 0 445.44294915 0 6342.59304284 0 589.11411430 0 621.52723798 0 10875
0.10150000 0.10150300 17093.34433178 0 450.54175473 0 6087.22094322 0 534.30832091 0 833.60654755 0 11118
0.10250000 0.10250800 17002.66199151 0 45.97605724 0 5765.38167772 0 1113.53263469 0 -255.51493261 0 11575
0.10350000 0.10349800 16696.73365677 0 27.59920901 0 4891.31021189 0 506.94528459 0 454.74480923 0 11364
0.10450000 0.10450100 16557.44381056 0 307.00567194 0 4248.59497314 0 418.38329453 0 -362.74707678 0 12093
0.10550000 0.10551000 16134.37027924 0 570.29780550 0 4211.04871968 0 152.11713452 0 -56.48203264 0 12067
0.10650000 0.10649700 16199.58627242 0 196.58912716 0 4859.16725294 0 -286.30263900 0 50.26414719 0 12054
0.10750000 0.10749900 15886.12875680 0 34.76588197 0 4666.38700552 0 -50.44850140 0 887.76571717 0 12807
0.10850000 0.10850100 16060.96076569 0 93.82510894 0 5846.95149466 0 -384.18863379 0 1027.36115955 0 12736
0.10950000 0.10950300 16068.48994656 0 231.37062111 0 5882.46044035 0 37.74444807 0 1839.52282840 0 12933
0.11050000 0.11050200 15804.08282989 0 189.39322326 0 6205.42908299 0 58.37119270 0 1231.19823053 0 13428
0.11150000 0.11150900 15714.83989186 0 499.25001884 0 5942.14027112 0 197.10952642 0 2071.93092634 0 13453
0.11250000 0.11250000 15289.10900258 0 190.98985249 0 6546.98815899 0 184.12279664 0 1222.06356256 0 13668
0.11350000 0.11349100 15030.45949482 0 336.67064460 0 6135.40770083 0 451.89036389 0 1693.36814079 0 13791
0.11450000 0.11448600 14800.15513859 0 284.01398946 0 5696.02463505 0 575.00022185 0 1285.00972915 0 14205
0.11550000 0.11549300 14445.61929790 0 215.39325639 0 5618.45192738 0 662.99863058 0 1524.88057402 0 14776
0.11650000 0.11649800 14538.51610312 0 78.10805458 0 5422.06210207 0 756.70592999 0 1254.00721966 0 14553
0.11750000 0.11747300 14314.63369529 0 88.80093083 0 5235.13911448 0 82.03374735 0 1700.02260801 0 14568
0.11850000 0.11849100 14421.70307629 0 309.46926422 0 5255.62291539 0 187.04810486 0 1739.47330133 0 16015
0.11950000 0.11950300 13884.14170634 0 274.09207919 0 5398.42268858 0 -591.70836001 0 2220.68761028 0 15270
0.12050000 0.12050700 13945.15021609 0 184.46603871 0 5285.99430237 0 -67.45415292 0 1704.20794679 0 15999
0.12150000 0.12150000 13746.73415534 0 7.22916516 0 5859.78431912 0 183.21265154 0 1398.63392644 0 15670
0.12250000 0.12250700 13724.92167545 0 168.58943215 0 5658.41194765 0 -238.07269932 0 715.50470211 0 16887
0.12350000 0.12352200 13527.05923094 0 584.33751337 0 5860.76975603 0 -1.00346487 0 1184.80518954 0 16407
0.12450000 0.12449800 13215.04111755 0 305.23077828 0 5414.97581418 0 7.57465491 0 816.92498298 0 16306
0.12550000 0.12549900 13185.14584054 0 -113.06283042 0 5171.05249843 0 839.76608185 0 1298.38509753 0 17523
0.12650000 0.12650100 13363.63171662 0 -309.74275064 0 4883.76995868 0 1029.37521544 0 837.20283865 0 17154
0.12750000 0.12750600 13540.12457423 0 -284.72372548 0 4249.94579677 0 846.16699283 0 305.30828455 0 18007
0.12850000 0.12850300 13517.42630835 0 116.73109163 0 4311.08717441 0 48.28220105 0 102.14485381 0 17496
0.12950000 0.12949900 13371.38234399 0 419.90352472 0 3981.54157084 0 88.91818675 0 358.65806722 0 18405
0.13050000 0.13049000 12912.54520351 0 463.63145713 0 3896.94900922 0 -285.56854386 0 149.28483383 0 18100
0.13150000 0.13148800 12646.69868461 0 235.87041391 0 3831.72194372 0 -178.65528265 0 741.62210189 0 19059
0.13250000 0.13249300 12486.92503748 0 -42.29993467 0 3764.49078742 0 61.78578695 0 -275.29121197 0 18957
0.13350000 0.13349100 12535.08965044 0 6.58936195 0 4200.07604578 0 323.24655799 0 338.60830144 0 19468
0.13450000 0.13450700 12355.71798838 0 162.90490059 0 3696.52885768 0 418.44751401 0 44.36204445 0 19953
0.13550000 0.13551000 12388.93496283 0 118.62667364 0 3732.24817754 0 399.16727480 0 557.99866710 0 19956
0.13650000 0.13649900 12316.74340501 0 -34.25267972 0 3883.21932645 0 182.99563398 0 727.02102715 0 19723
0.13750000 0.13749600 12459.68711842 0 68.39961874 0 3839.47257109 0 123.25711988 0 1144.34691466 0 20946
0.13850000 0.13851100 12304.45312447 0 221.82406265 0 3933.91950179 0 8.38241423 0 994.39331241 0 20955
0.13950000 0.13949800 12036.28141736 0 360.88028281 0 3990.32192442 0 136.32467763 0 1394.99113158 0 20506
0.14050000 0.14048300 11792.35810160 0 314.20379031 0 3693.28466651 0 240.61711956 0 1330.37304393 0 21447
0.14150000 0.14148400 11607.56100038 0 185.72496204 0 3833.75925148 0 125.83918603 0 1072.42884326 0 21771
0.14250000 0.14249400 11256.34685713 0 166.94297745 0 3539.64508732 0 179.84223587 0 1373.77655722 0 22470
0.14350000 0.14350900 11378.91749287 0 270.02410705 0 3693.67219788 0 24.42754157 0 989.56245709 0 22519
0.14450000 0.14449900 11057.01179342 0 325.24732708 0 3733.87580929 0 -268.79397176 0 1155.12028671 0 22218
0.14550000 0.14550500 10809.98822672 0 327.73970740 0 3957.79143410 0 -148.30604032 0 942.99779506 0 23559
0.14650000 0.14650700 10637.33746582 0 226.90183081 0 3934.50633501 0 -23.91810390 0 1265.07954448 0 23044
0.14750000 0.14750500 10436.74015708 0 148.90062416 0 4140.44050431 0 366.55042035 0 1025.33492411 0 23649
0.14850000 0.14849900 10362.31198965 0 -53.00410469 0 3980.04680699 0 439.28562932 0 1264.68094079 0 23640
0.14950000 0.14949500 10359.66570402 0 -35.70304355 0 3673.23268626 0 798.12306821 0 1008.39094544 0 24457
0.15050000 0.15050000 10279.65708488 0 143.35006773 0 3297.26082472 0 195.72770028 0 896.85277415 0 24591
0.15150000 0.15149900 10243.32878715 0 265.64168089 0 3190.15822675 0 105.32283248 0 695.18809330 0 25020
0.15250000 0.15250500 9931.50997561 0 186.64950117 0 3037.23834868 0 -144.69646243 0 939.18891532 0 25297
0.15350000 0.15350100 9785.28885405 0 171.39848096 0 3011.22945768 0 -303.71276254 0 511.17823437 0 25452
0.15450000 0.15450400 9754.47457408 0 90.73659466 0 3058.65222488 0 -175.53510151 0 211.64416721 0 26061
0.15550000 0.15549900 9650.66045658 0 99.42028684 0 3242.82927591 0 -37.81841120 0 168.45877872 0 26128
0.15650000 0.15649500 9577.09593049 0 162.90490059 0 2937.27740022 0 120.01182148 0 -57.20018363 0 26331
0.15750000 0.15749700 9429.67899785 0 92.39345734 0 3078.51597560 0 83.17386464 0 66.35101720 0 27345
0.15850000 0.15849900 9499.92182650 0 26.51223889 0 3060.91097914 0 -6.24654063 0 -128.37142671 0 26980
0.15950000 0.15949700 9243.35391580 0 58.08320153 0 3103.04117508 0 184.35531546 0 -13.65981641 0 27777
0.16050000 0.16050000 9395.02262117 0 191.45489014 0 3197.01199581 0 9.07564141 0 152.26439644 0 28224
0.16150000 0.16150500 9253.54045464 0 129.00144200 0 3295.93214574 0 102.90906567 0 360.21483609 0 28075
0.16250000 0.16249700 9114.89280326 0 218.91204122 0 3310.21544476 0 48.24699106 0 317.29629063 0 28590
0.16350000 0.16349900 9062.95252753 0 137.35551107 0 3171.05846644 0 326.55164695 0 641.66115343 0 29163
0.16450000 0.16449100 8776.97652212 0 63.87148078 0 3086.74271294 0 474.87540298 0 885.47817486 0 28996
0.16550000 0.16550500 8825.86083619 0 48.30312774 0 2853.18309322 0 704.58738983 0 634.34677565 0 30777
0.16650000 0.16650700 8747.60164437 0 25.94943261 0 2513.35129988 0 302.99416866 0 745.90819883 0 29211
0.16750000 0.16749900 8582.83437875 0 100.57092284 0 2204.72131789 0 225.89092756 0 459.84361481 0 30922
0.16850000 0.16850800 8590.02031755 0 55.65581576 0 2214.76391650 0 -199.07264961 0 527.58631252 0 30867
0.16950000 0.16949900 8542.45361013 0 123.30030195 0 2151.80667758 0 -230.84357845 0 252.24638232 0 30852
0.17050000 0.17049200 8526.35444985 0 -51.43017372 0 2245.97680016 0 -115.27508092 0 294.59359582 0 31257
0.17150000 0.17149500 8480.75861624 0 101.83892548 0 2299.41183974 0 -103.11755755 0 2.94192778 0 32608
0.17250000 0.17250900 8406.90620970 0 312.31928062 0 2319.02092699 0 -230.06187231 0 -163.82168909 0 32361
0.17350000 0.17350400 8101.79722700 0 248.65673461 0 2259.73969991 0 280.47305998 0 128.92282849 0 32508
0.17450000 0.17449800 8070.55112636 0 86.85928795 0 2222.89100292 0 184.02425295 0 120.57761728 0 32791
0.17550000 0.17549800 8010.68306607 0 -144.88469195 0 1976.18853363 0 495.51310921 0 130.29801123 0 33633
0.17650000 0.17650100 8130.98387522 0 18.56087026 0 1969.17975202 0 330.31955908 0 -62.40805161 0 33984
0.17750000 0.17750300 8029.06312527 0 122.11777766 0 1969.58942804 0 82.76474223 0 -55.29474725 0 34069
0.17850000 0.17849800 8035.54043529 0 111.93123882 0 1661.03695232 0 -140.03722814 0 71.17522912 0 34536
