### header ###
fiducial parameters:
Omega_m = 0.31
Omega_nu = 0
Omega_de = 0.69
Omega_k = 0
H_0 = 100
w_de = -1
zeff = 0
beta = 0
fgrowth = 0
b_1 = 2
gamma = 0.55
Lx = 3500 Ly = 3500 Lz = 3500
nx = 700 ny = 700 nz = 700
xoffset = -685.467585 yoffset = -31.7331281 zoffset = 572.489161
bins = 400 dk = 0.001
kx_ny = 0.628318531 ky_ny = 0.628318531 kz_ny = 0.628318531
############################
A(data) = 8.00135335 (not used)
A(ran) = 7.99585827 (used)
Ngal = 474964
weighted Ngal = 0
Nran = 23820508
weighted Nran = 0
SN(data) = 3490.39055
SN(ran) = 69.6468254
SN(data+ran) = 3560.03738
############################
13 columns: k_central k_mean P_0(k) sigma^{lin}_{P_0(k)} P^img_1(k) sigma^{lin}_{P_1(k)} P_2(k) sigma^{lin}_{P_2(k)} P^img_3(k) sigma^{lin}_{P_3(k)} P_4(k) sigma^{lin}_{P_4(k)} N_modes
### header ###
0.00050000 0 0 0 0 0 0 0 0 0 0 0 0
0.00150000 0.00179520 8787.15198863 0 -10105.68871733 0 2767.87083049 0 -9452.02294934 0 -13460.07166579 0 3
0.00250000 0.00253879 16280.63569009 0 -9192.54301721 0 1131.39229462 0 12026.20560177 0 5280.50242926 0 6
0.00350000 0.00331552 20406.29464077 0 -576.26025242 0 21435.79940240 0 -17353.32251852 0 22248.61876734 0 7
0.00450000 0.00420575 30102.55093095 0 -1681.79756135 0 11293.88203827 0 590.20805999 0 -2613.12401882 0 24
0.00550000 0.00557378 43135.56302848 0 -13045.08093158 0 27094.97534046 0 7730.06606586 0 6606.30260305 0 45
0.00650000 0.00659388 64209.29740932 0 -6004.53282148 0 11827.45737128 0 23895.62708411 0 9595.53135131 0 40
0.00750000 0.00754703 62138.99411473 0 -370.36594349 0 19384.87267625 0 32559.49980821 0 7924.21928156 0 57
0.00850000 0.00846663 75941.31134066 0 -20558.09621403 0 11068.99204888 0 11662.47973148 0 -7239.00846016 0 75
0.00950000 0.00948925 83832.66796215 0 -6249.76267156 0 21380.88067130 0 -6058.86471936 0 -26082.85412879 0 112
0.01050000 0.01054430 86008.60123551 0 9297.05469117 0 11435.49707270 0 -17285.78133713 0 -7763.51555914 0 105
0.01150000 0.01145670 74056.46948678 0 16450.37442956 0 9558.15118272 0 -30316.91113944 0 -7038.31150049 0 144
0.01250000 0.01249090 66937.07535164 0 6334.98635569 0 14751.54763263 0 -17805.29481762 0 -6868.81635217 0 169
0.01350000 0.01339930 68600.91360214 0 -5694.40807563 0 25158.42572968 0 -3393.33538717 0 -29306.89366948 0 180
0.01450000 0.01448870 69326.81521725 0 -128.07358118 0 27365.47223578 0 8025.40925808 0 -23169.39329926 0 267
0.01550000 0.01550050 78416.41883062 0 -5365.03962925 0 30473.03091938 0 6507.30494684 0 -12578.60388697 0 238
0.01650000 0.01653350 76399.37341840 0 -4941.62285586 0 23301.26468785 0 17202.29600799 0 -4707.05565458 0 315
0.01750000 0.01747870 81885.93181254 0 1287.09132622 0 9649.86324919 0 15997.73779097 0 -1001.69993955 0 297
0.01850000 0.01844180 78085.90993478 0 2000.55872056 0 11290.22817108 0 9997.00277691 0 -2158.72688059 0 388
0.01950000 0.01947590 73631.29221374 0 5655.76566201 0 15398.50357179 0 3809.32263061 0 7296.34095807 0 399
0.02050000 0.02045430 70625.48819522 0 5949.75803060 0 12910.88435478 0 -11118.38568989 0 -6509.19831439 0 462
0.02150000 0.02154770 62731.80638552 0 3521.43111300 0 12896.71177901 0 -11009.56688157 0 -13015.73927082 0 571
0.02250000 0.02255340 62725.82733011 0 4336.76389567 0 22881.06996098 0 -21238.37985089 0 -11247.37827403 0 510
0.02350000 0.02348930 65299.58923421 0 -1007.69449621 0 20912.52133147 0 -12924.61403756 0 -25260.06967152 0 555
0.02450000 0.02439640 62298.21414562 0 -1686.28185291 0 27136.16438879 0 -3782.97049754 0 -19613.73763025 0 592
0.02550000 0.02547300 70608.54753825 0 -2122.16606404 0 29209.01431809 0 -8124.76122867 0 -33158.51258090 0 837
0.02650000 0.02652900 69249.41966676 0 1065.04803154 0 35250.18546239 0 3023.65260613 0 -19846.58862118 0 723
0.02750000 0.02749970 73464.98589497 0 3377.00370806 0 40451.52076919 0 -428.27530952 0 -15267.62869243 0 826
0.02850000 0.02848090 68233.53386465 0 4008.71305594 0 42495.91482371 0 7025.02471071 0 -1717.63867679 0 831
0.02950000 0.02946900 68674.87673192 0 1290.99985688 0 43806.87808224 0 12319.95437921 0 552.87107347 0 996
0.03050000 0.03053250 69584.02532278 0 -1128.18132042 0 36544.76168018 0 15173.29248498 0 203.26463179 0 1041
0.03150000 0.03150510 69573.83878395 0 3893.92626455 0 37760.17077553 0 5247.88336034 0 -6733.83364031 0 1036
0.03250000 0.03246190 60797.36051645 0 6176.05420524 0 32989.99179716 0 -1688.87277691 0 1892.58140893 0 1059
0.03350000 0.03345080 58660.29110320 0 5261.43588592 0 29683.57415981 0 5300.46583091 0 -1650.09749540 0 1302
0.03450000 0.03451200 55538.55984383 0 -2743.21276312 0 22574.14511701 0 8810.06062867 0 -1675.99566315 0 1339
0.03550000 0.03553350 58607.14394407 0 -3509.31798965 0 17951.44950522 0 12818.98405879 0 -13115.72236393 0 1365
0.03650000 0.03647120 58572.59829064 0 -1503.36704690 0 14492.12306213 0 4865.00236812 0 -13128.01264448 0 1308
0.03750000 0.03744890 58143.32425742 0 2063.82598457 0 10332.97032888 0 845.39525179 0 -8340.02936780 0 1579
0.03850000 0.03847530 52502.97127155 0 5974.37180867 0 13168.31590682 0 -1958.52817555 0 -6377.11655162 0 1662
0.03950000 0.03950240 51701.66712443 0 4252.41492520 0 15895.87240264 0 1610.93468251 0 -4742.07741798 0 1683
0.04050000 0.04050350 44836.82573687 0 3030.70567704 0 17808.17362207 0 -846.91880368 0 3349.17895579 0 1822
0.04150000 0.04152450 44837.93296935 0 3828.06807653 0 15831.87436519 0 2102.25802402 0 2758.47042672 0 1887
0.04250000 0.04250150 44277.23044053 0 -237.81028522 0 19032.88347026 0 990.72172950 0 2390.24919255 0 1920
0.04350000 0.04349210 43066.58244486 0 497.25257144 0 17744.95064736 0 1067.05101510 0 -499.73277220 0 2005
0.04450000 0.04448520 42541.97569495 0 394.71620023 0 18128.27453258 0 193.30396838 0 873.16353520 0 2151
0.04550000 0.04548030 41462.42402514 0 1247.70706684 0 14439.97241224 0 2051.08173871 0 -371.60382940 0 2274
0.04650000 0.04648670 41351.59005370 0 1143.98152794 0 13415.00730378 0 2255.59865043 0 -2111.56984919 0 2311
0.04750000 0.04749250 40662.67000349 0 -211.83128950 0 11968.29734297 0 1261.14886917 0 -3077.77412984 0 2568
0.04850000 0.04851840 38788.34685819 0 1365.01834829 0 8384.08614825 0 659.56510266 0 -4017.03944420 0 2493
0.04950000 0.04949480 38314.00846295 0 1080.19054296 0 8155.83017212 0 1424.99713183 0 -2056.39645462 0 2644
0.05050000 0.05050630 37604.93678157 0 -445.81165757 0 9734.46688313 0 645.48110549 0 -4189.08122724 0 2829
0.05150000 0.05149060 37136.79888824 0 12.20812390 0 8354.24623287 0 2436.66437819 0 -3188.33129315 0 2784
0.05250000 0.05249300 37578.69537175 0 1227.76580984 0 7851.23051635 0 -976.91232598 0 -4828.51905784 0 3055
0.05350000 0.05348950 35963.57535045 0 1792.65367744 0 9298.70446757 0 -311.04817774 0 123.04010231 0 3009
0.05450000 0.05448610 35459.00950847 0 764.39787404 0 9946.71227758 0 192.89097067 0 2268.44254722 0 3336
0.05550000 0.05550870 36358.63589998 0 -17.57720493 0 11818.04589518 0 746.85820429 0 3663.23437695 0 3349
0.05650000 0.05647670 34856.01069884 0 37.82461171 0 13064.23605352 0 940.39912043 0 3205.29409478 0 3324
0.05750000 0.05747970 35875.99326114 0 626.71572939 0 14371.43472161 0 -1553.08178534 0 2843.51695365 0 3639
0.05850000 0.05849280 35738.25354039 0 1215.78555439 0 14969.67243156 0 -1155.97285572 0 4261.32814668 0 3846
0.05950000 0.05951020 35109.23476745 0 948.19625156 0 15478.33503373 0 -2169.52239729 0 2156.32418611 0 3787
0.06050000 0.06049470 33939.11148061 0 358.66692508 0 16507.61834887 0 -1163.77884471 0 4620.68044867 0 3930
0.06150000 0.06148310 34519.52274760 0 1316.16725119 0 15138.52538505 0 3917.45495479 0 1835.27105567 0 4083
0.06250000 0.06249100 33698.06696931 0 -163.99995352 0 14804.69479176 0 3359.00010791 0 2390.32669882 0 4303
0.06350000 0.06350600 32644.20309307 0 1307.51976551 0 12459.24422543 0 3767.75712324 0 601.37117788 0 4470
0.06450000 0.06451750 31956.61172183 0 1681.50968091 0 11512.00683719 0 1356.45944121 0 2562.65636230 0 4479
0.06550000 0.06550280 29739.71084664 0 534.26735331 0 9821.84967060 0 1637.25359861 0 2474.57601837 0 4636
0.06650000 0.06648880 29737.93927467 0 179.91309875 0 12371.66213611 0 12.39901078 0 4060.74191026 0 4653
0.06750000 0.06749660 29587.57710363 0 197.95213034 0 12157.85554387 0 -676.56112125 0 553.19659982 0 5220
0.06850000 0.06852730 29065.51698844 0 972.02278734 0 13345.47310391 0 -2130.31529511 0 2274.88664026 0 5029
0.06950000 0.06949320 29030.74988851 0 863.82181475 0 14135.26203323 0 -540.52100237 0 3292.42221877 0 5040
0.07050000 0.07048030 28210.95495893 0 -58.71388116 0 14616.68671634 0 554.90284508 0 2853.61491389 0 5475
0.07150000 0.07148790 29259.28267276 0 -548.71673720 0 14328.36337807 0 1769.81147134 0 931.24673673 0 5509
0.07250000 0.07249820 28804.98518545 0 746.72865809 0 14456.80234596 0 1603.38335699 0 826.80703288 0 5916
0.07350000 0.07351270 27594.00502004 0 1201.49118305 0 12941.77614103 0 723.54320992 0 3227.56053999 0 5721
0.07450000 0.07449140 27559.12719686 0 688.19813464 0 12020.89088586 0 1213.52680012 0 3937.23012691 0 6028
0.07550000 0.07549160 26796.24401685 0 -113.36731935 0 11990.33126936 0 2227.53030702 0 1373.98693140 0 6183
0.07650000 0.07648840 26459.64534237 0 454.42481904 0 11981.47340951 0 626.71351492 0 3217.71724322 0 6330
0.07750000 0.07749960 25802.50286438 0 1291.44274987 0 10667.53169560 0 462.45225454 0 2000.72480543 0 6583
0.07850000 0.07848650 24956.68797148 0 625.09141933 0 10845.57467869 0 1306.03607398 0 4488.58761358 0 6549
0.07950000 0.07947320 24398.31063088 0 -133.56766875 0 9048.21526320 0 2149.65864657 0 2331.61016031 0 6828
0.08050000 0.08048110 24589.86185024 0 -157.38977560 0 9399.09723670 0 1396.68519727 0 2029.43534368 0 7147
0.08150000 0.08149960 25211.57288881 0 -151.10290957 0 8296.95802425 0 1567.44259063 0 1592.77606981 0 7386
0.08250000 0.08250610 24315.71108773 0 32.84106903 0 8104.72032075 0 442.70587046 0 2421.29599134 0 7227
0.08350000 0.08350160 24716.19707642 0 472.66758142 0 7257.03420496 0 999.74788869 0 2812.79125228 0 7798
0.08450000 0.08449610 23738.95368793 0 241.22499020 0 7309.55024158 0 310.27532946 0 1987.44908797 0 7371
0.08550000 0.08548940 23767.40956271 0 1341.72217687 0 7945.02417989 0 1022.45058350 0 3789.91284520 0 8256
0.08650000 0.08650700 22210.41924672 0 951.38175941 0 6447.43688655 0 517.41970387 0 3772.93897125 0 8037
0.08750000 0.08749060 21707.73569995 0 650.65963181 0 6590.60204645 0 422.36490253 0 3484.61563298 0 8155
0.08850000 0.08849210 21305.58886254 0 199.21991153 0 6485.31530975 0 205.69057816 0 1635.79205173 0 8718
0.08950000 0.08949900 20374.51706854 0 675.21804825 0 6009.95826064 0 -834.81453819 0 1712.81114317 0 8571
0.09050000 0.09049190 20048.43710263 0 850.90151892 0 5704.66104841 0 -656.53571459 0 1462.85341039 0 8932
0.09150000 0.09150830 19405.02430741 0 367.91231631 0 4822.91646148 0 138.92778120 0 479.02863202 0 9285
0.09250000 0.09250820 19113.48999494 0 -138.86909788 0 5368.50526692 0 867.80120829 0 -604.33302476 0 9204
0.09350000 0.09350330 19090.01666632 0 384.57173623 0 5009.35226678 0 512.32975615 0 -1562.85864815 0 9349
0.09450000 0.09448040 18616.45333383 0 683.16465578 0 5356.45857752 0 291.15010280 0 -768.62418042 0 9564
0.09550000 0.09549270 18500.74753948 0 330.21437200 0 5677.72208213 0 -642.64216140 0 -294.09866290 0 10155
0.09650000 0.09649430 17960.41808833 0 345.03800046 0 6042.07907494 0 -578.42932085 0 517.50828247 0 9913
0.09750000 0.09749140 18625.20047044 0 -148.62381604 0 7024.58181772 0 -713.95346940 0 -224.72058282 0 10476
0.09850000 0.09850240 18579.58249218 0 -259.36920888 0 6953.38676914 0 -580.18982050 0 -33.44517507 0 10575
0.09950000 0.09950330 18765.81899563 0 312.93158019 0 7871.03890546 0 -298.88190722 0 -853.04622824 0 10882
0.10050000 0.10051200 18313.84669654 0 458.94564927 0 7850.56617687 0 -38.02734597 0 -736.84660819 0 10875
0.10150000 0.10150300 17983.00563096 0 623.47375268 0 7398.44993755 0 549.81179012 0 -838.55587675 0 11118
0.10250000 0.10250800 17175.61170518 0 705.09228785 0 6913.61497839 0 1085.98579777 0 -1137.53743489 0 11575
0.10350000 0.10349800 16662.07728009 0 590.65095299 0 6496.81945524 0 1082.21013501 0 -663.80248137 0 11364
0.10450000 0.10450100 16160.50096581 0 278.64834085 0 6250.72596382 0 301.78507079 0 -1146.33993312 0 12093
0.10550000 0.10551000 15993.53030754 0 250.74940401 0 5958.42766093 0 -210.64544351 0 -610.42944681 0 12067
0.10650000 0.10649700 15821.35565661 0 99.22552465 0 6124.34644834 0 3.31843111 0 -307.89810132 0 12054
0.10750000 0.10749900 15991.31584258 0 143.93025755 0 6403.15865960 0 173.94511567 0 -24.98093636 0 12807
0.10850000 0.10850100 15623.27176561 0 151.25902935 0 5742.90485834 0 474.20884903 0 -232.05267632 0 12736
0.10950000 0.10950300 15947.13726655 0 -169.10983142 0 6643.21773399 0 786.68203497 0 -77.84840857 0 12933
0.11050000 0.11050200 15592.37997936 0 236.15718713 0 5946.08201876 0 385.68561211 0 350.51437232 0 13428
0.11150000 0.11150900 15351.44619131 0 673.26821185 0 6074.99709662 0 519.13591421 0 509.58492683 0 13453
0.11250000 0.11250000 14600.52112211 0 652.09017617 0 5321.59182666 0 552.63744742 0 1153.39300403 0 13668
0.11350000 0.11349100 14365.12349646 0 362.41490703 0 5354.36590813 0 260.07230150 0 995.33003108 0 13791
0.11450000 0.11448600 13904.29333751 0 192.58316004 0 4924.74863284 0 534.70471014 0 1324.77044758 0 14205
0.11550000 0.11549300 13848.93171342 0 141.67261052 0 5025.06389569 0 951.07394878 0 1292.61641630 0 14776
0.11650000 0.11649800 13735.55110728 0 -46.19960748 0 4343.00868687 0 883.59477241 0 1652.34517734 0 14553
0.11750000 0.11747300 13726.25035443 0 -143.31242183 0 4531.44858295 0 453.28215512 0 786.70196515 0 14568
0.11850000 0.11849100 13957.10832690 0 157.41856364 0 4530.49636302 0 -1.93959450 0 1333.31828234 0 16015
0.11950000 0.11950300 13700.45183760 0 92.56529982 0 4116.87859709 0 -473.07836467 0 1513.45393481 0 15270
0.12050000 0.12050700 13811.28580903 0 -44.39814023 0 4717.87331593 0 -164.63661219 0 1805.11004286 0 15999
0.12150000 0.12150000 14050.78019486 0 2.01670217 0 4673.14112366 0 -291.59078133 0 1710.15378521 0 15670
0.12250000 0.12250700 13899.86440758 0 161.24405187 0 5487.75420522 0 -334.13286775 0 978.01402230 0 16887
0.12350000 0.12352200 13762.23541009 0 402.62184015 0 5464.29194893 0 -258.25644023 0 1670.30448819 0 16407
0.12450000 0.12449800 13671.11017683 0 460.66075238 0 5937.68919655 0 374.34533703 0 1980.21885987 0 16306
0.12550000 0.12549900 13322.11049855 0 -126.15474729 0 5257.64915083 0 838.79393173 0 2301.58201540 0 17523
0.12650000 0.12650100 13416.22525951 0 -77.60780695 0 4776.55663746 0 1194.55990771 0 1169.91291266 0 17154
0.12750000 0.12750600 13251.24761971 0 60.75451062 0 4355.46505229 0 648.58135644 0 1315.59149030 0 18007
0.12850000 0.12850300 13196.66105835 0 36.29784884 0 3786.25897801 0 636.67417833 0 1301.71786730 0 17496
0.12950000 0.12949900 12966.02453238 0 211.48915466 0 3319.89265665 0 -372.91479266 0 304.32616934 0 18405
0.13050000 0.13049000 12794.62494419 0 490.06773987 0 3137.89685360 0 28.95324361 0 711.04366244 0 18100
0.13150000 0.13148800 12383.06663068 0 142.43327923 0 2857.63416779 0 144.20485121 0 729.92972688 0 19059
0.13250000 0.13249300 12306.88903593 0 -54.76549012 0 2833.39684877 0 491.65329678 0 853.69174477 0 18957
0.13350000 0.13349100 12437.21029904 0 35.43188231 0 2637.07345741 0 410.97148029 0 145.02088154 0 19468
0.13450000 0.13450700 12331.58032027 0 272.85197881 0 2764.98095371 0 61.05556713 0 473.26880865 0 19953
0.13550000 0.13551000 12082.34228860 0 316.53451468 0 3014.86118022 0 20.52809021 0 1109.96734609 0 19956
0.13650000 0.13649900 12040.71034729 0 136.33242826 0 2891.43797547 0 -77.15018776 0 1398.02494858 0 19723
0.13750000 0.13749600 11937.95917297 0 85.26044425 0 3240.44872607 0 116.27269739 0 1275.15536006 0 20946
0.13850000 0.13851100 11872.85390303 0 61.86373612 0 3028.51335672 0 579.08812418 0 1468.73281487 0 20955
0.13950000 0.13949800 11650.52162068 0 241.07662104 0 2717.99000718 0 346.13969678 0 1604.93348246 0 20506
0.14050000 0.14048300 11540.68415848 0 95.96140329 0 2620.18816206 0 417.30152839 0 739.80845508 0 21447
0.14150000 0.14148400 11294.76782425 0 392.47294722 0 2595.26435889 0 69.24742665 0 1148.00078185 0 21771
0.14250000 0.14249400 10995.22822093 0 299.04245593 0 2613.42297159 0 -267.51954718 0 1166.39191337 0 22470
0.14350000 0.14350900 10796.03709745 0 208.45312320 0 2554.59570983 0 -348.84577297 0 1080.63565042 0 22519
0.14450000 0.14449900 10742.07058628 0 3.04609621 0 2872.10569633 0 -29.84179768 0 658.43240383 0 22218
0.14550000 0.14550500 10601.31919319 0 115.72018838 0 2918.03369968 0 64.86245385 0 872.78596892 0 23559
0.14650000 0.14650700 10607.55291206 0 93.67076073 0 2821.93699258 0 67.08599812 0 1112.40325755 0 23044
0.14750000 0.14750500 10568.95478774 0 3.70572996 0 2744.48608047 0 194.62157503 0 863.04675201 0 23649
0.14850000 0.14849900 10479.21359509 0 141.44673509 0 2800.42346546 0 -18.18374688 0 777.26059378 0 23640
0.14950000 0.14949500 10511.01331197 0 137.10638376 0 2722.11998434 0 -42.43745295 0 437.27600237 0 24457
0.15050000 0.15050000 10235.07990516 0 328.95655590 0 2846.19645626 0 -243.92995915 0 685.44555469 0 24591
0.15150000 0.15149900 10143.72215308 0 160.28186684 0 2661.25541481 0 46.71679577 0 551.89560166 0 25020
0.15250000 0.15250500 10120.80244071 0 -115.85859244 0 2820.90726637 0 484.30570203 0 358.02915917 0 25297
0.15350000 0.15350100 10120.91316395 0 61.82487226 0 2645.15625452 0 157.29787530 0 31.07857636 0 25452
0.15450000 0.15450400 10072.58246612 0 164.49488644 0 2848.30019797 0 -94.33377154 0 -55.39915927 0 26061
0.15550000 0.15549900 9984.75678566 0 284.31072776 0 2657.12543765 0 -154.30391867 0 206.48446385 0 26128
0.15650000 0.15649500 9663.22754525 0 236.72630462 0 2558.39351725 0 -184.56015347 0 495.22855047 0 26331
0.15750000 0.15749700 9604.03489677 0 129.95476916 0 2761.11671235 0 -17.12656131 0 314.72751127 0 27345
0.15850000 0.15849900 9444.02873082 0 263.28327570 0 2789.25148971 0 325.70904303 0 369.33621728 0 26980
0.15950000 0.15949700 9195.41074934 0 216.27129175 0 2549.44707879 0 372.39992956 0 146.51453816 0 27777
0.16050000 0.16050000 9023.51290653 0 123.37448652 0 2284.04345289 0 408.09599754 0 388.17688519 0 28224
0.16150000 0.16150500 8916.64282738 0 111.19603646 0 2205.20850018 0 331.89847260 0 399.13184337 0 28075
0.16250000 0.16249700 8735.63246124 0 129.80307831 0 1908.19338692 0 398.50957871 0 764.05352474 0 28590
0.16350000 0.16349900 8796.66311564 0 21.17504615 0 1798.45557564 0 337.46342306 0 848.12125816 0 29163
0.16450000 0.16449100 8700.75463807 0 135.04250242 0 1962.10453646 0 -32.05581975 0 1049.34304602 0 28996
0.16550000 0.16550500 8552.33012387 0 133.58206277 0 2052.53221326 0 -145.19471704 0 772.67000791 0 30777
0.16650000 0.16650700 8564.84185092 0 49.95600439 0 2277.46649195 0 -124.46621775 0 1265.12383378 0 29211
0.16750000 0.16749900 8509.20341870 0 25.89916426 0 2178.53526969 0 52.01147077 0 942.06993424 0 30922
0.16850000 0.16850800 8653.86334246 0 -8.61693714 0 2211.12112163 0 -43.25270823 0 828.04491879 0 30867
0.16950000 0.16949900 8521.10616788 0 107.17977207 0 2236.70926429 0 100.57147645 0 840.22336886 0 30852
0.17050000 0.17049200 8381.30699472 0 195.93807446 0 1991.96659650 0 25.81700761 0 706.39439324 0 31257
0.17150000 0.17149500 8272.98644102 0 87.88458523 0 1925.30012877 0 160.90856043 0 593.06250533 0 32608
0.17250000 0.17250900 8165.44095006 0 111.52377727 0 1850.42906834 0 90.37021143 0 374.28997540 0 32361
0.17350000 0.17350400 8157.20314039 0 37.14311011 0 1761.76189119 0 -22.85837170 0 299.09338863 0 32508
0.17450000 0.17449800 7997.20804676 0 68.75027926 0 1712.89972177 0 64.84097354 0 717.81217460 0 32791
0.17550000 0.17549800 8089.82804387 0 78.00552486 0 1676.67107496 0 97.16717946 0 354.03315715 0 33633
0.17650000 0.17650100 7961.07905088 0 89.50214116 0 1742.72856483 0 47.81793847 0 264.51230376 0 33984
0.17750000 0.17750300 7953.22877258 0 253.48205377 0 1852.80961818 0 -152.52902500 0 226.71692299 0 34069
0.17850000 0.17849800 7760.66997166 0 111.70314893 0 1848.14816943 0 -173.52547456 0 410.86407874 0 34536
