### header ###
fiducial parameters:
Omega_m = 0.31
Omega_nu = 0
Omega_de = 0.69
Omega_k = 0
H_0 = 100
w_de = -1
zeff = 0
beta = 0
fgrowth = 0
b_1 = 2
gamma = 0.55
Lx = 3500 Ly = 3500 Lz = 3500
nx = 700 ny = 700 nz = 700
xoffset = -685.467585 yoffset = -31.7331281 zoffset = 572.489161
bins = 400 dk = 0.001
kx_ny = 0.628318531 ky_ny = 0.628318531 kz_ny = 0.628318531
############################
A(data) = 8.00703911 (not used)
A(ran) = 8.00808086 (used)
Ngal = 475323
weighted Ngal = 0
Nran = 23820508
weighted Nran = 0
SN(data) = 3487.99377
SN(ran) = 69.7532885
SN(data+ran) = 3557.74706
############################
13 columns: k_central k_mean P_0(k) sigma^{lin}_{P_0(k)} P^img_1(k) sigma^{lin}_{P_1(k)} P_2(k) sigma^{lin}_{P_2(k)} P^img_3(k) sigma^{lin}_{P_3(k)} P_4(k) sigma^{lin}_{P_4(k)} N_modes
### header ###
0.00050000 0 0 0 0 0 0 0 0 0 0 0 0
0.00150000 0.00179520 3219.17879010 0 -6447.62511607 0 15471.02729935 0 -32252.24279449 0 19135.52392133 0 3
0.00250000 0.00253879 12395.57835772 0 -14341.42872135 0 -12499.54748777 0 -9166.98809153 0 -31845.11341091 0 6
0.00350000 0.00331552 20503.17748293 0 -13606.89069288 0 1083.64953723 0 -17371.14896148 0 7290.20689012 0 7
0.00450000 0.00420575 35368.32716820 0 -18992.91237766 0 -12683.34807976 0 2.22696562 0 26453.55556372 0 24
0.00550000 0.00557378 54496.65407840 0 -18099.04359506 0 -5699.68957457 0 9205.19868448 0 23941.35578561 0 45
0.00650000 0.00659388 65835.37903218 0 -14872.23597316 0 -41150.29518850 0 8389.41193649 0 -1223.27044596 0 40
0.00750000 0.00754703 85880.27299087 0 -21339.58089973 0 -6793.69062828 0 12505.30509668 0 -11826.46086204 0 57
0.00850000 0.00846663 89479.77506616 0 -10036.29845769 0 -13161.67251192 0 -12189.74383934 0 13060.25001659 0 75
0.00950000 0.00948925 101049.57943891 0 7437.19200209 0 -8255.41466153 0 -12177.78572854 0 -9135.29909790 0 112
0.01050000 0.01054430 88443.18401664 0 -2500.82850051 0 -2958.07122622 0 -17842.71927550 0 -1834.90566895 0 105
0.01150000 0.01145670 96561.30185042 0 6944.26317348 0 -68.58496945 0 -39672.13982521 0 -12881.32124752 0 144
0.01250000 0.01249090 96332.87978941 0 6566.46437835 0 10522.40673420 0 -27461.46929196 0 -23760.98761432 0 169
0.01350000 0.01339930 88089.09106894 0 10006.75749507 0 33690.31634194 0 -41968.98288559 0 -15823.01650533 0 180
0.01450000 0.01448870 87672.66093251 0 7700.21507815 0 27491.58601547 0 -14036.05400285 0 -30898.54036216 0 267
0.01550000 0.01550050 88777.67894941 0 -8914.26227754 0 36766.42962305 0 1545.32008564 0 -21363.82929108 0 238
0.01650000 0.01653350 96123.28068060 0 -4944.46844334 0 46145.46380718 0 10816.99700833 0 -45974.61783523 0 315
0.01750000 0.01747870 94698.49392293 0 6130.20370817 0 43302.64441000 0 3508.83080735 0 -29169.26467199 0 297
0.01850000 0.01844180 95624.91534051 0 8242.16108873 0 50737.93197221 0 8611.69992955 0 -14983.40211434 0 388
0.01950000 0.01947590 86512.94563100 0 6450.86930724 0 56107.89878601 0 14012.02705800 0 8833.23500452 0 399
0.02050000 0.02045430 80594.67729219 0 6607.58699272 0 57960.07728167 0 19719.03543927 0 -556.51276110 0 462
0.02150000 0.02154770 72007.09288610 0 4901.23101492 0 50337.66743002 0 26223.14048424 0 13905.62201649 0 571
0.02250000 0.02255340 69545.71507891 0 4148.41257818 0 44894.62327242 0 19412.66421154 0 10846.19472888 0 510
0.02350000 0.02348930 66772.65132808 0 -1088.49810827 0 42023.12655395 0 13502.70011634 0 4166.87014365 0 555
0.02450000 0.02439640 67659.65526930 0 694.94450215 0 33284.62636058 0 -2089.11517446 0 3517.46722071 0 592
0.02550000 0.02547300 64095.58463343 0 5514.01775969 0 22043.22714195 0 -5667.08157798 0 -1474.85581049 0 837
0.02650000 0.02652900 64131.34824259 0 2177.47232651 0 27352.18544600 0 -12622.00740026 0 92.36633015 0 723
0.02750000 0.02749970 63074.16266891 0 -1462.02298603 0 30301.85277769 0 -431.55382490 0 -18041.35678275 0 826
0.02850000 0.02848090 61175.14823926 0 2347.89755012 0 29048.90850121 0 576.96113058 0 -15501.69763910 0 831
0.02950000 0.02946900 59592.69157618 0 4216.48523116 0 29454.93065231 0 3947.94813734 0 -26117.62122872 0 996
0.03050000 0.03053250 56830.70015017 0 645.63390357 0 27903.14432897 0 560.24634903 0 -26333.19939294 0 1041
0.03150000 0.03150510 54520.90246975 0 3641.44404171 0 26622.29779395 0 -312.36578439 0 -19542.98547466 0 1036
0.03250000 0.03246190 55533.46657442 0 1438.01818582 0 29473.97505100 0 -1737.80138029 0 -21455.61886383 0 1059
0.03350000 0.03345080 53042.08276697 0 -92.45789827 0 24056.17579398 0 -2154.59690343 0 -15369.93697376 0 1302
0.03450000 0.03451200 53873.94653060 0 1306.35717140 0 30088.93197142 0 4489.27409772 0 -25386.51562094 0 1339
0.03550000 0.03553350 53374.91685102 0 1442.17030763 0 27484.16755784 0 442.23972558 0 -19531.24881035 0 1365
0.03650000 0.03647120 51554.84809733 0 4427.25800641 0 29482.39001786 0 1704.66191210 0 -14103.92735399 0 1308
0.03750000 0.03744890 47138.76206666 0 4733.04240093 0 23926.74031685 0 4509.65824771 0 -8191.28375618 0 1579
0.03850000 0.03847530 46812.34993101 0 -999.61944972 0 23670.96961354 0 6378.98777452 0 -7704.19004276 0 1662
0.03950000 0.03950240 46430.02255502 0 10.33773143 0 24647.88083229 0 6036.53184020 0 -7103.27283021 0 1683
0.04050000 0.04050350 44624.45854685 0 679.87063914 0 20443.38692891 0 2135.89574682 0 -7216.21054336 0 1822
0.04150000 0.04152450 45665.25707980 0 1091.10674800 0 20604.37853177 0 -159.41933274 0 -2420.86417067 0 1887
0.04250000 0.04250150 44390.50032343 0 549.57262791 0 19213.58381130 0 -1645.45819130 0 -9035.40458338 0 1920
0.04350000 0.04349210 44191.41992319 0 1521.72496145 0 21895.07943588 0 970.28996851 0 -7048.09943563 0 2005
0.04450000 0.04448520 40718.69596707 0 3488.81204408 0 22464.52910130 0 -2842.87475881 0 -3192.54984891 0 2151
0.04550000 0.04548030 40075.83678810 0 2706.14261963 0 23425.60689556 0 1059.86950522 0 -4152.80829113 0 2274
0.04650000 0.04648670 38608.75374963 0 1722.69872923 0 27286.30511333 0 3375.65288444 0 -857.83943765 0 2311
0.04750000 0.04749250 37754.08099688 0 174.56295139 0 24544.13314874 0 3181.36680084 0 -1864.59057178 0 2568
0.04850000 0.04851840 37527.65195433 0 -53.12291074 0 25619.58805838 0 2801.49748096 0 124.55701081 0 2493
0.04950000 0.04949480 38115.59240220 0 -742.86552397 0 24288.80533842 0 2191.37916648 0 51.31668239 0 2644
0.05050000 0.05050630 39078.10959869 0 -920.00721981 0 24354.24277810 0 2682.15996407 0 -3223.08732076 0 2829
0.05150000 0.05149060 38615.17569802 0 -704.69589862 0 19228.42072656 0 2084.43158106 0 -2803.49049943 0 2784
0.05250000 0.05249300 40452.07438544 0 -376.17337785 0 18617.56056631 0 1137.27169910 0 -4481.65633824 0 3055
0.05350000 0.05348950 39612.79216418 0 1068.08074131 0 16108.90393215 0 279.16320396 0 -3546.08918037 0 3009
0.05450000 0.05448610 39864.35538406 0 717.17994485 0 16700.83041696 0 1895.01732039 0 -2396.01787378 0 3336
0.05550000 0.05550870 39068.25522960 0 696.47691190 0 15910.26642491 0 1354.37784414 0 -808.50447995 0 3349
0.05650000 0.05647670 37888.94191317 0 1643.73090863 0 14933.68737590 0 2635.84442935 0 -971.83787952 0 3324
0.05750000 0.05747970 35602.61756136 0 2031.89339979 0 16998.56523133 0 2279.26020857 0 807.50575626 0 3639
0.05850000 0.05849280 35065.16691467 0 1420.45747866 0 17543.43433566 0 1056.63860084 0 216.00777042 0 3846
0.05950000 0.05951020 32829.44308729 0 824.40655286 0 14404.20880307 0 840.54778798 0 -34.32752864 0 3787
0.06050000 0.06049470 32656.16120387 0 567.23298599 0 15114.71988669 0 2077.75496919 0 639.66370603 0 3930
0.06150000 0.06148310 31414.95359170 0 -194.11114086 0 11010.38623361 0 1832.42546819 0 -2098.57093985 0 4083
0.06250000 0.06249100 31617.57713589 0 -708.02423946 0 10143.72215308 0 4114.86343398 0 -4470.41792855 0 4303
0.06350000 0.06350600 32243.49565788 0 -29.05577334 0 7999.81004310 0 1027.91920472 0 -5447.67238937 0 4470
0.06450000 0.06451750 31237.57494811 0 1603.15083817 0 6901.53507201 0 -436.53083491 0 -3963.16151164 0 4479
0.06550000 0.06550280 30955.00921874 0 569.23929125 0 7116.29388419 0 -1999.29647553 0 -2923.31519862 0 4636
0.06650000 0.06648880 29694.09286839 0 99.93913598 0 9747.34399690 0 783.23522025 0 28.64078261 0 4653
0.06750000 0.06749660 30863.77326223 0 -125.46937038 0 10541.92724286 0 -49.32089584 0 -893.32180976 0 5220
0.06850000 0.06852730 31324.38197469 0 -162.54394280 0 11432.83971474 0 1089.59094673 0 2037.34098361 0 5029
0.06950000 0.06949320 31317.29568680 0 864.92129660 0 12036.17069411 0 1007.04565798 0 3717.43340694 0 5040
0.07050000 0.07048030 30550.86936286 0 597.31427806 0 11956.56067866 0 259.89625154 0 3897.46940849 0 5475
0.07150000 0.07148790 30157.35893880 0 813.51138524 0 11736.11069152 0 1577.02015159 0 4180.15693343 0 5509
0.07250000 0.07249820 29615.03646919 0 513.09263933 0 10226.08917741 0 873.57210398 0 5204.32483451 0 5916
0.07350000 0.07351270 28879.72337798 0 532.97410577 0 10312.77440841 0 1232.28331837 0 4315.53824899 0 5721
0.07450000 0.07449140 28626.27786288 0 334.67319720 0 11147.83807391 0 -239.85091469 0 4746.45098628 0 6028
0.07550000 0.07549160 27552.37307872 0 1199.85247897 0 9623.43360985 0 613.83529392 0 2983.57079028 0 6183
0.07650000 0.07648840 27028.09849856 0 1040.63466255 0 10433.18594081 0 -396.06259493 0 2562.64528998 0 6330
0.07750000 0.07749960 26163.90354646 0 590.40846907 0 9974.92456122 0 -650.86446981 0 1451.06138446 0 6583
0.07850000 0.07848650 25664.65242039 0 646.89836306 0 11866.32123139 0 -226.78335694 0 927.71245065 0 6549
0.07950000 0.07947320 26015.42367064 0 107.90589514 0 9861.63253368 0 -1324.41613318 0 -1064.31725810 0 6828
0.08050000 0.08048110 25480.63038190 0 411.19514126 0 11111.41012526 0 -217.84356188 0 -815.22095219 0 7147
0.08150000 0.08149960 25223.42027637 0 662.25567759 0 10354.10739696 0 152.22564330 0 -631.17566182 0 7386
0.08250000 0.08250610 24781.63451610 0 -15.19300122 0 9617.57635002 0 2040.29729433 0 -1319.26750214 0 7227
0.08350000 0.08350160 24240.53000221 0 143.13858633 0 8844.14124447 0 1836.43364977 0 -2194.42405581 0 7798
0.08450000 0.08449610 24458.65480114 0 811.48182810 0 8956.49212440 0 1593.05287793 0 -2800.86635845 0 7371
0.08550000 0.08548940 23015.82015402 0 446.72290990 0 7973.12574028 0 802.05817245 0 -1691.23118210 0 8256
0.08650000 0.08650700 22521.88374386 0 1041.02219391 0 7804.82640304 0 172.36841661 0 -594.98798262 0 8037
0.08750000 0.08749060 22008.23859553 0 615.30126973 0 7056.60298109 0 -14.57250814 0 900.32173351 0 8155
0.08850000 0.08849210 21510.20542518 0 283.01415853 0 7916.13648444 0 1616.14974750 0 90.25893456 0 8718
0.08950000 0.08949900 20968.76874155 0 373.92791038 0 6301.61436869 0 685.37579904 0 105.78344119 0 8571
0.09050000 0.09049190 20626.96607440 0 618.82891242 0 6522.14186210 0 1040.33570978 0 424.08111288 0 8932
0.09150000 0.09150830 20144.87705180 0 761.09721401 0 6198.09920396 0 -189.86490429 0 651.71593159 0 9285
0.09250000 0.09250820 19820.79010436 0 343.64067307 0 6162.82277708 0 224.78812400 0 446.15932857 0 9204
0.09350000 0.09350330 19374.24324442 0 -16.34607313 0 6821.75897169 0 -252.13898077 0 334.92343174 0 9349
0.09450000 0.09448040 19065.10393548 0 487.09149896 0 6570.16253484 0 -186.00730633 0 -646.15762453 0 9564
0.09550000 0.09549270 18924.26396379 0 527.03491074 0 7157.71545134 0 -631.43918315 0 -273.26829822 0 10155
0.09650000 0.09649430 18466.97694878 0 299.15096472 0 7069.42473323 0 -326.20065425 0 7.77436644 0 9913
0.09750000 0.09749140 18348.50307322 0 188.53401085 0 7184.78728552 0 -60.41038276 0 -555.39445630 0 10476
0.09850000 0.09850240 18235.56536007 0 224.09278200 0 6885.24768220 0 243.86352520 0 -653.08336371 0 10575
0.09950000 0.09950330 18147.87254751 0 220.84305467 0 7350.05280576 0 203.54033268 0 -120.11479410 0 10882
0.10050000 0.10051200 18053.64706330 0 175.82851812 0 6727.19024542 0 383.45786035 0 -909.14748363 0 10875
0.10150000 0.10150300 17979.35176377 0 -113.23334422 0 6767.64852030 0 518.94768469 0 -425.83054020 0 11118
0.10250000 0.10250800 17865.19609489 0 188.13762162 0 6233.24276293 0 643.21127890 0 -1372.54752917 0 11575
0.10350000 0.10349800 17383.99285827 0 388.52344896 0 5813.51307371 0 125.06190883 0 -1250.99554731 0 11364
0.10450000 0.10450100 17355.31553699 0 653.17415677 0 5893.34453565 0 254.71883245 0 -1138.82182457 0 12093
0.10550000 0.10551000 16450.81732255 0 589.40420921 0 5778.53559960 0 482.37136689 0 -854.33061791 0 12067
0.10650000 0.10649700 16241.77182998 0 246.32047408 0 5207.38079616 0 835.65492764 0 -671.95835583 0 12054
0.10750000 0.10749900 15923.99610768 0 -50.01712363 0 5065.00177132 0 859.30430622 0 -732.36674557 0 12807
0.10850000 0.10850100 15822.57361234 0 239.08913874 0 5263.50641066 0 552.40049967 0 -604.09718425 0 12736
0.10950000 0.10950300 15740.85985518 0 236.98428979 0 5228.86110631 0 14.17512240 0 95.85865212 0 12933
0.11050000 0.11050200 15888.56466826 0 -32.20540686 0 5403.33880080 0 -308.60894458 0 805.48062805 0 13428
0.11150000 0.11150900 15716.94363357 0 -5.03208375 0 5599.85042168 0 271.68827747 0 598.97844848 0 13453
0.11250000 0.11250000 15869.74171607 0 61.59124621 0 5584.50417948 0 157.51489287 0 710.77017601 0 13668
0.11350000 0.11349100 15783.04541274 0 16.67104586 0 5462.94112530 0 110.03665332 0 143.29359887 0 13791
0.11450000 0.11448600 15702.10671832 0 386.27465979 0 5825.88086053 0 -254.20064765 0 228.70108359 0 14205
0.11550000 0.11549300 15207.28452217 0 631.72152744 0 5472.88407298 0 208.51734268 0 586.03932970 0 14776
0.11650000 0.11649800 14971.33328028 0 288.01109872 0 5467.80187589 0 437.98241669 0 1176.22413781 0 14553
0.11750000 0.11747300 14823.84991370 0 -132.93765347 0 4931.70205282 0 1175.74802784 0 831.45740930 0 14568
0.11850000 0.11849100 14836.58308724 0 79.93642758 0 4404.51545123 0 1213.42714920 0 617.89994436 0 16015
0.11950000 0.11950300 14511.49963057 0 202.73537466 0 4207.80452851 0 527.32168395 0 634.87271108 0 15270
0.12050000 0.12050700 14188.96280860 0 432.96997524 0 3982.09518708 0 75.41216494 0 318.99146356 0 15999
0.12150000 0.12150000 14020.33130161 0 436.08240575 0 4058.75996412 0 -953.77005988 0 525.77045125 0 15670
0.12250000 0.12250700 13790.80200812 0 297.26202610 0 4330.12050078 0 -803.62269194 0 -421.62416400 0 16887
0.12350000 0.12352200 13448.55644798 0 204.63649283 0 4591.28342627 0 -681.33218602 0 -101.23991270 0 16407
0.12450000 0.12449800 13543.77844142 0 -36.09456095 0 4708.36218891 0 89.17528613 0 -440.78371487 0 16306
0.12550000 0.12549900 13502.36794659 0 -275.72746156 0 4501.50901664 0 623.72509445 0 -1044.53544258 0 17523
0.12650000 0.12650100 13498.16046316 0 158.63984107 0 4683.87020641 0 645.28069641 0 -965.02839975 0 17154
0.12750000 0.12750600 13536.35998379 0 443.03361127 0 4178.35214449 0 492.21798535 0 -433.87347695 0 18007
0.12850000 0.12850300 13149.16078488 0 329.91984816 0 4307.26722235 0 170.28792678 0 598.29860774 0 17496
0.12950000 0.12949900 13004.55622275 0 154.26627277 0 4087.84696142 0 272.57074176 0 439.09850703 0 18405
0.13050000 0.13049000 12681.79795428 0 36.60543802 0 4252.40385287 0 -175.87391465 0 674.03441673 0 18100
0.13150000 0.13148800 12864.04842080 0 159.03512307 0 4057.45342979 0 222.43746944 0 40.51729038 0 19059
0.13250000 0.13249300 12569.85675037 0 104.51322409 0 3824.89031930 0 353.13076267 0 5.29518433 0 18957
0.13350000 0.13349100 12439.20331751 0 109.66960576 0 3451.29900760 0 285.80992054 0 -617.46812370 0 19468
0.13450000 0.13450700 12387.05266761 0 125.56237791 0 2879.90061301 0 306.74215061 0 -801.62856624 0 19953
0.13550000 0.13551000 12109.13731466 0 337.63615132 0 2929.51570052 0 -176.96786034 0 -1078.85854228 0 19956
0.13650000 0.13649900 11810.73816080 0 382.60750581 0 2952.52399149 0 -137.39315698 0 -1035.70747800 0 19723
0.13750000 0.13749600 11603.57496344 0 161.81095490 0 3010.56511819 0 279.12223635 0 -80.05014036 0 20946
0.13850000 0.13851100 11640.44580509 0 -57.07063743 0 2870.47806458 0 402.98279794 0 -713.73534460 0 20955
0.13950000 0.13949800 11531.05123588 0 57.91014110 0 2639.70867071 0 339.95691060 0 -468.81551961 0 20506
0.14050000 0.14048300 11531.38340563 0 225.79792003 0 2895.45722938 0 241.98565891 0 -501.90294787 0 21447
0.14150000 0.14148400 11313.25860670 0 190.96549338 0 2579.38664510 0 18.42877743 0 125.11505599 0 21771
0.14250000 0.14249400 11162.12137293 0 210.05750306 0 3081.09582728 0 -41.11220639 0 -202.78187843 0 22470
0.14350000 0.14350900 11022.65436951 0 15.46737343 0 2586.20719719 0 4.54120330 0 -108.15568678 0 22519
0.14450000 0.14449900 11037.20340432 0 97.03630459 0 3031.11535305 0 -1.68162040 0 238.46687408 0 22218
0.14550000 0.14550500 11100.00563069 0 199.74806143 0 2912.51968192 0 -192.75035214 0 -243.98864247 0 23559
0.14650000 0.14650700 10826.76279882 0 252.86975421 0 3007.39843329 0 55.33017869 0 77.72550576 0 23044
0.14750000 0.14750500 10630.86015580 0 248.64012613 0 3001.39723324 0 31.91907654 0 249.08634082 0 23649
0.14850000 0.14849900 10544.78390266 0 182.89044689 0 3188.30914850 0 150.53600654 0 432.06758077 0 23640
0.14950000 0.14949500 10511.34548171 0 101.66520070 0 3327.18931870 0 152.67185799 0 64.64853653 0 24457
0.15050000 0.15050000 10277.44261992 0 105.43599164 0 3242.95107148 0 -83.45587675 0 477.95904545 0 24591
0.15150000 0.15149900 10329.99187350 0 74.20738527 0 3513.72477492 0 174.16102600 0 297.20998618 0 25020
0.15250000 0.15250500 10135.00823345 0 105.10935806 0 3395.27304401 0 18.94519066 0 600.72787580 0 25297
0.15350000 0.15350100 10156.70999009 0 291.50884613 0 3469.90051329 0 156.82840873 0 503.67230537 0 25452
0.15450000 0.15450400 9721.02508080 0 140.09369700 0 3452.74948215 0 -0.42233611 0 656.93653275 0 26061
0.15550000 0.15549900 9767.22989227 0 195.74984493 0 3310.44796358 0 309.09944857 0 507.63176873 0 26128
0.15650000 0.15649500 9625.17196485 0 102.64687302 0 3398.73868168 0 72.21846357 0 617.19242281 0 26331
0.15750000 0.15749700 9646.60798570 0 119.75162184 0 3186.51543188 0 50.05598749 0 459.40847245 0 27345
0.15850000 0.15849900 9372.14719809 0 156.04227367 0 3177.93438015 0 -84.58104640 0 527.68707067 0 26980
0.15950000 0.15949700 9323.90507886 0 80.58360497 0 2979.71762125 0 356.08375170 0 332.81969003 0 27777
0.16050000 0.16050000 9230.93076736 0 122.30600718 0 3021.10597142 0 326.00688857 0 396.32058009 0 28224
0.16150000 0.16150500 9123.65101219 0 106.02603583 0 2710.56047723 0 160.83437585 0 -82.26571255 0 28075
0.16250000 0.16249700 8986.02201469 0 139.98408098 0 2812.74696298 0 60.51999878 0 155.94594444 0 28590
0.16350000 0.16349900 8972.39198284 0 119.70843978 0 2591.86515517 0 -181.30156828 0 -241.02679558 0 29163
0.16450000 0.16449100 8725.91096005 0 204.00537032 0 2813.24521760 0 -184.93993421 0 96.94274344 0 28996
0.16550000 0.16550500 8775.14958852 0 259.87742859 0 2811.20790983 0 -95.39915064 0 -68.51078488 0 30777
0.16650000 0.16650700 8546.11854965 0 19.56025830 0 2519.83968223 0 85.05859577 0 165.35299161 0 29211
0.16750000 0.16749900 8550.56962423 0 -103.35450530 0 2604.75334126 0 431.36116645 0 -117.26367046 0 30922
0.16850000 0.16850800 8664.21596616 0 -29.32261637 0 2584.76779496 0 291.59188856 0 -18.37983775 0 30867
0.16950000 0.16949900 8560.61222284 0 210.08629111 0 2376.78524557 0 291.87423285 0 -289.92661091 0 30852
0.17050000 0.17049200 8325.23674184 0 213.34155461 0 2188.34534948 0 103.28917858 0 135.49314604 0 31257
0.17150000 0.17149500 8241.40817064 0 144.16277637 0 2293.37742271 0 -124.09861657 0 47.39973676 0 32608
0.17250000 0.17250900 8219.25244868 0 -43.71276332 0 2382.81966260 0 -17.37657440 0 161.44778265 0 32361
0.17350000 0.17350400 8184.57392734 0 38.95022425 0 2196.10704918 0 137.32893749 0 132.51911959 0 32508
0.17450000 0.17449800 8216.30721028 0 186.10917171 0 2262.38598554 0 218.22444985 0 167.79001030 0 32791
0.17550000 0.17549800 8000.24186376 0 83.66990479 0 2049.13300954 0 232.58193344 0 28.05483518 0 33633
0.17650000 0.17650100 7895.09906729 0 160.92738338 0 1849.49899306 0 158.03750660 0 95.41011224 0 33984
0.17750000 0.17750300 7844.96358051 0 51.88258891 0 1921.83449110 0 40.05457792 0 -21.13917182 0 34069
0.17850000 0.17849800 7799.21273436 0 -99.03596645 0 1703.88684937 0 218.63301864 0 119.89888376 0 34536
