### header ###
fiducial parameters:
Omega_m = 0.31
Omega_nu = 0
Omega_de = 0.69
Omega_k = 0
H_0 = 100
w_de = -1
zeff = 0
beta = 0
fgrowth = 0
b_1 = 2
gamma = 0.55
Lx = 3500 Ly = 3500 Lz = 3500
nx = 700 ny = 700 nz = 700
xoffset = -685.467585 yoffset = -31.7331281 zoffset = 572.489161
bins = 400 dk = 0.001
kx_ny = 0.628318531 ky_ny = 0.628318531 kz_ny = 0.628318531
############################
A(data) = 8.05190431 (not used)
A(ran) = 8.0484028 (used)
Ngal = 478723
weighted Ngal = 0
Nran = 23820508
weighted Nran = 0
SN(data) = 3489.47296
SN(ran) = 70.1045072
SN(data+ran) = 3559.57747
############################
13 columns: k_central k_mean P_0(k) sigma^{lin}_{P_0(k)} P^img_1(k) sigma^{lin}_{P_1(k)} P_2(k) sigma^{lin}_{P_2(k)} P^img_3(k) sigma^{lin}_{P_3(k)} P_4(k) sigma^{lin}_{P_4(k)} N_modes
### header ###
0.00050000 0 0 0 0 0 0 0 0 0 0 0 0
0.00150000 0.00179520 826.00539656 0 -3498.13494158 0 4754.98774872 0 -15391.41728390 0 8326.04502155 0 3
0.00250000 0.00253879 21512.41989015 0 -34848.92441096 0 -20613.34711487 0 -24625.73618265 0 -30366.73660112 0 6
0.00350000 0.00331552 25952.08997268 0 -25825.97619300 0 -19937.71385444 0 16661.85583360 0 34063.34296508 0 7
0.00450000 0.00420575 54667.50005035 0 -22107.55734915 0 -4440.07975855 0 -38380.44241187 0 -16863.92576154 0 24
0.00550000 0.00557378 63073.83049916 0 -3338.70453652 0 2158.95939941 0 -23678.27734792 0 12538.07917814 0 45
0.00650000 0.00659388 71058.30537239 0 20191.15936954 0 8254.13027186 0 -23930.94780028 0 25488.60245577 0 40
0.00750000 0.00754703 51569.68501259 0 7166.46258795 0 8489.15143846 0 -9669.35054088 0 -4681.35678867 0 57
0.00850000 0.00846663 65225.62610442 0 463.78425521 0 22285.82177873 0 361.96204895 0 335.65088348 0 75
0.00950000 0.00948925 50453.48394762 0 8907.07633874 0 17220.23317420 0 8682.27492794 0 -20347.16842623 0 112
0.01050000 0.01054430 47518.98570094 0 414.15366645 0 27958.06306007 0 -1333.87189858 0 -3520.27959122 0 105
0.01150000 0.01145670 50534.75481179 0 914.61721209 0 17266.73693844 0 15670.55059258 0 1161.01076351 0 144
0.01250000 0.01249090 48277.21850452 0 -5739.47243764 0 8271.89028086 0 14180.21567199 0 8527.66098418 0 169
0.01350000 0.01339930 56019.65235720 0 -11048.77398376 0 8835.11729974 0 11481.55794394 0 8069.15601344 0 180
0.01450000 0.01448870 66750.72812494 0 -9823.61017025 0 573.85534347 0 3777.83293882 0 1318.71388590 0 267
0.01550000 0.01550050 70708.41990812 0 -3118.90781654 0 -3013.16711452 0 -272.56409836 0 24071.56632548 0 238
0.01650000 0.01653350 79138.44513204 0 -1038.70143463 0 18339.64521336 0 -16887.39909015 0 -10325.13112291 0 315
0.01750000 0.01747870 78910.46596402 0 -202.09539429 0 25942.67849658 0 -9820.43241303 0 11666.46576841 0 297
0.01850000 0.01844180 76372.68911559 0 2511.05932865 0 21303.48512082 0 -6504.75831213 0 -14935.45894787 0 388
0.01950000 0.01947590 83244.39534454 0 -2982.55213640 0 25001.75233350 0 -4996.91804601 0 -14588.45228806 0 399
0.02050000 0.02045430 90460.56159860 0 167.52427451 0 37823.61519674 0 -13073.42608312 0 -24639.57658868 0 462
0.02150000 0.02154770 76899.73177696 0 10870.27703536 0 34666.12032820 0 -9905.65609716 0 -20967.66150907 0 571
0.02250000 0.02255340 74896.74821727 0 11673.55205630 0 40772.17529594 0 -3577.91104190 0 -19027.56875435 0 510
0.02350000 0.02348930 64835.21593131 0 4013.97241023 0 25991.28600254 0 9919.30827366 0 -28319.13157241 0 555
0.02450000 0.02439640 67030.41504986 0 1815.28550937 0 39449.14320336 0 5749.40431301 0 -32663.13676851 0 592
0.02550000 0.02547300 63906.91221852 0 2048.78976747 0 34804.08149544 0 -5541.69857173 0 -32680.74176497 0 837
0.02650000 0.02652900 62898.44487404 0 1908.69164154 0 42690.89846377 0 1529.67489067 0 -17329.18485042 0 723
0.02750000 0.02749970 58993.56808024 0 2265.15406675 0 31817.32187561 0 8415.78621421 0 -12750.88926115 0 826
0.02850000 0.02848090 63069.95518548 0 -2127.79080505 0 36363.72916940 0 14510.61384458 0 -7071.09665428 0 831
0.02950000 0.02946900 63240.13681794 0 -138.91117271 0 28069.22920125 0 17558.71414391 0 -8048.99330994 0 996
0.03050000 0.03053250 64166.77968201 0 -1654.60393160 0 20530.19395549 0 6127.05916792 0 -11383.56786930 0 1041
0.03150000 0.03150510 60559.63770259 0 826.78045930 0 16457.23927095 0 4775.53798358 0 -8452.93386397 0 1036
0.03250000 0.03246190 62507.59180794 0 -474.79900394 0 19784.91577194 0 -4806.76193957 0 -14065.83855662 0 1059
0.03350000 0.03345080 59172.16467957 0 1888.98290336 0 15822.57361234 0 -7761.16822628 0 -11131.67247967 0 1302
0.03450000 0.03451200 57834.29567173 0 4583.53279890 0 22997.99371107 0 -6306.67442113 0 -17695.90024841 0 1339
0.03550000 0.03553350 55855.67122664 0 5587.83694925 0 24136.00725593 0 -3596.94436826 0 -13971.83451891 0 1365
0.03650000 0.03647120 51360.75024326 0 4258.05073853 0 24266.88213528 0 -466.65752350 0 -16894.04248504 0 1308
0.03750000 0.03744890 49184.59552341 0 829.82424139 0 23323.85223048 0 2367.57307132 0 -13377.91501563 0 1579
0.03850000 0.03847530 49605.34386651 0 -2013.09259225 0 20284.05617477 0 7294.61367540 0 -17097.21964546 0 1662
0.03950000 0.03950240 51961.31314143 0 -3516.00567384 0 17414.88464451 0 7615.86610768 0 -15217.80323075 0 1683
0.04050000 0.04050350 51753.48560458 0 -1482.51785927 0 10805.13854845 0 4880.44826124 0 -15324.42971875 0 1822
0.04150000 0.04152450 53678.18782780 0 948.08552832 0 9325.46627666 0 2694.87099296 0 -15646.85581747 0 1887
0.04250000 0.04250150 49909.27918279 0 3202.91354494 0 8355.07665723 0 -1173.25675476 0 -8948.26538706 0 1920
0.04350000 0.04349210 49044.64133770 0 3737.54074881 0 7812.56595809 0 -2540.88817171 0 -12417.28011437 0 2005
0.04450000 0.04448520 45199.55509793 0 1561.45246290 0 10984.07838984 0 -2343.62363274 0 -9830.36428839 0 2151
0.04550000 0.04548030 45128.91366558 0 1411.37817231 0 12801.48978557 0 123.06556866 0 -7820.01763269 0 2274
0.04650000 0.04648670 43846.40628184 0 784.48750019 0 13753.59899673 0 1151.67679369 0 -5868.84148082 0 2311
0.04750000 0.04749250 43429.31180592 0 1085.03911400 0 13989.32879212 0 58.45556382 0 -7315.78396045 0 2568
0.04850000 0.04851840 42128.31363973 0 1296.42529604 0 15097.00416698 0 2814.59604122 0 -2050.38418224 0 2493
0.04950000 0.04949480 41457.99509521 0 1055.43393190 0 12597.75900891 0 2449.43076871 0 -5357.22256793 0 2644
0.05050000 0.05050630 39342.73816186 0 2306.29882578 0 14730.28876898 0 230.03862043 0 -2764.43840980 0 2829
0.05150000 0.05149060 37673.14230245 0 2078.88434632 0 13664.02388895 0 3396.93389274 0 -2085.91527258 0 2784
0.05250000 0.05249300 36518.85244011 0 324.49219453 0 10435.71043087 0 2632.12412821 0 -2620.33210228 0 3055
0.05350000 0.05348950 35911.53542380 0 130.12306850 0 12714.12914276 0 421.70277751 0 -1519.30012232 0 3009
0.05450000 0.05448610 37323.81045442 0 -235.31236874 0 11608.77895611 0 0.08427490 0 -3123.87929038 0 3336
0.05550000 0.05550870 36639.98367362 0 715.43605369 0 12278.21171465 0 -1508.40495469 0 -5516.19900768 0 3349
0.05650000 0.05647670 35488.35116924 0 1072.14760621 0 11072.98915814 0 -2336.93594855 0 -3235.77620500 0 3324
0.05750000 0.05747970 36242.81938238 0 609.84372083 0 13102.65702064 0 -87.80431087 0 -4074.28336352 0 3639
0.05850000 0.05849280 34694.02258675 0 878.20255022 0 11935.41253826 0 701.55025114 0 -5314.48339413 0 3846
0.05950000 0.05951020 34579.86691787 0 1078.26506567 0 11484.54747164 0 1231.58576190 0 -6319.26365445 0 3787
0.06050000 0.06049470 32737.76423779 0 1771.73805586 0 11327.87407546 0 455.38036068 0 -3082.03697489 0 3930
0.06150000 0.06148310 30839.96776387 0 1657.57131465 0 13151.37524984 0 1316.42191466 0 -1428.86137320 0 4083
0.06250000 0.06249100 31478.28728967 0 347.06423591 0 12704.60694341 0 1789.49806486 0 881.79219793 0 4303
0.06350000 0.06350600 30519.31323712 0 229.33884950 0 13371.71451373 0 -123.45974343 0 1782.17925816 0 4470
0.06450000 0.06451750 31157.18986993 0 156.72543611 0 13513.66171791 0 1108.60545014 0 4666.92954944 0 4479
0.06550000 0.06550280 30579.21451439 0 -277.06499840 0 13474.35496480 0 2910.17234906 0 6185.44353669 0 4636
0.06650000 0.06648880 30745.52083317 0 -425.05658470 0 12312.31447509 0 3849.86948409 0 6003.25950412 0 4653
0.06750000 0.06749660 31041.37335232 0 -110.67286911 0 10502.38797093 0 2616.85539229 0 5237.96255731 0 5220
0.06850000 0.06852730 31453.81745182 0 241.86275611 0 9630.84099516 0 -26.28104874 0 1911.20505927 0 5029
0.06950000 0.06949320 30125.24919683 0 642.55469004 0 9782.31039868 0 59.49492295 0 5512.40120026 0 5040
0.07050000 0.07048030 29935.69099593 0 1268.76662864 0 9387.47129564 0 -2752.35850342 0 1894.08724510 0 5475
0.07150000 0.07148790 29277.55200871 0 544.40295945 0 10330.92194879 0 -2139.79320515 0 1445.69130692 0 5509
0.07250000 0.07249820 29043.70450854 0 537.93118559 0 11058.20760450 0 -1623.85608558 0 -1216.11772413 0 5916
0.07350000 0.07351270 27958.39522982 0 1330.26232069 0 11251.03214122 0 -179.72486922 0 -632.49548294 0 5721
0.07450000 0.07449140 27415.40842071 0 916.02782627 0 13067.33630447 0 -211.11823178 0 -2793.64720267 0 6028
0.07550000 0.07549160 26303.85773217 0 818.34666949 0 11559.39638742 0 1742.08636999 0 -2594.99862310 0 6183
0.07650000 0.07648840 25683.91826557 0 462.56187055 0 11345.36834867 0 2689.00266081 0 -1734.53504447 0 6330
0.07750000 0.07749960 24876.74578629 0 212.24871615 0 9144.10159613 0 1892.58140893 0 -2143.14811957 0 6583
0.07850000 0.07848650 25662.77012517 0 -771.27710945 0 8723.58577184 0 1947.01295773 0 -1581.39371990 0 6549
0.07950000 0.07947320 25319.52805579 0 -598.41597438 0 7492.28789038 0 628.98001981 0 -1978.21476907 0 6828
0.08050000 0.08048110 25592.90375556 0 359.32351394 0 6551.98177749 0 364.20087303 0 -2957.22972954 0 7147
0.08150000 0.08149960 25311.33453543 0 865.46494775 0 6855.20846497 0 -530.04769032 0 -2977.62495185 0 7386
0.08250000 0.08250610 24426.43433592 0 902.59488180 0 6366.47604747 0 -60.39687453 0 -3310.00507059 0 7227
0.08350000 0.08350160 23894.07695864 0 710.36160723 0 6285.82523349 0 -208.96023567 0 -3380.50256271 0 7798
0.08450000 0.08449610 23246.56740324 0 534.78996704 0 5987.38179033 0 415.34726306 0 -2746.08049525 0 7371
0.08550000 0.08548940 23303.58987606 0 -136.74542598 0 6674.39740068 0 97.70618024 0 -1999.59542830 0 8256
0.08650000 0.08650700 22811.75720762 0 227.35579613 0 6106.08818471 0 787.81362657 0 -2861.66449403 0 8037
0.08750000 0.08749060 23286.64921909 0 600.94821507 0 6479.34732667 0 770.57955299 0 -1372.32608267 0 8155
0.08850000 0.08849210 22545.24634923 0 78.38752006 0 5854.20386741 0 804.24274213 0 424.83070927 0 8718
0.08950000 0.08949900 22437.62335199 0 579.92187024 0 5954.06516495 0 915.89274391 0 508.07687619 0 8571
0.09050000 0.09049190 21784.13474120 0 297.56097887 0 6287.13176782 0 780.26230104 0 -118.95773615 0 8932
0.09150000 0.09150830 20838.11530869 0 1174.60757839 0 5339.51792054 0 694.42963905 0 405.36445501 0 9285
0.09250000 0.09250820 20648.55710780 0 785.24816891 0 5426.35816410 0 583.05644539 0 1272.64194233 0 9204
0.09350000 0.09350330 19674.08180051 0 -207.71902806 0 5054.63807529 0 -96.96212001 0 508.86190402 0 9349
0.09450000 0.09448040 19675.63192598 0 132.09394232 0 4936.98355176 0 185.95969533 0 113.37174828 0 9564
0.09550000 0.09549270 19633.66781492 0 596.15500565 0 4823.65830724 0 -419.86034266 0 -312.18862719 0 10155
0.09650000 0.09649430 19366.16044730 0 727.76730184 0 5233.48933808 0 -670.53002592 0 -404.64696836 0 9913
0.09750000 0.09749140 18806.34370447 0 286.57833989 0 6044.65892662 0 -1073.27476888 0 -224.53678223 0 10476
0.09850000 0.09850240 18607.48475073 0 328.66203206 0 6141.29817764 0 -261.92580868 0 181.08897964 0 10575
0.09950000 0.09950330 18416.93004060 0 646.81642786 0 7175.37580942 0 24.60049128 0 518.78049259 0 10882
0.10050000 0.10051200 18105.02265046 0 394.35302797 0 6856.81395207 0 307.71319350 0 678.53088784 0 10875
0.10150000 0.10150300 17764.10576929 0 237.98744242 0 7349.60991277 0 668.27459336 0 766.04432874 0 11118
0.10250000 0.10250800 17405.58389166 0 257.51902340 0 7496.68360334 0 -313.23164019 0 -382.38384484 0 11575
0.10350000 0.10349800 17314.12648866 0 180.42131845 0 7510.02575474 0 203.61894618 0 1077.12683068 0 11364
0.10450000 0.10450100 17018.82758575 0 269.45498955 0 7193.76694095 0 -20.70491524 0 159.04065923 0 12093
0.10550000 0.10551000 16939.54974005 0 313.36007916 0 6953.07674404 0 478.21038722 0 1132.73204592 0 12067
0.10650000 0.10649700 16704.37356090 0 237.79699843 0 6697.30604073 0 830.56497992 0 -325.68579115 0 12054
0.10750000 0.10749900 16671.26730969 0 3.78128750 0 5947.68750586 0 1051.05593466 0 93.67419315 0 12807
0.10850000 0.10850100 16274.32446494 0 -36.18989367 0 5439.31278413 0 992.66602973 0 -188.54176148 0 12736
0.10950000 0.10950300 16289.93644294 0 266.11557639 0 4926.32090296 0 583.32107396 0 -464.15849979 0 12933
0.11050000 0.11050200 16128.16977734 0 324.23199490 0 5260.31758112 0 -30.60191278 0 -167.78115244 0 13428
0.11150000 0.11150900 15660.80694674 0 591.43265912 0 5385.23554972 0 -672.08900926 0 370.13674636 0 13453
0.11250000 0.11250000 15226.43964411 0 475.10792181 0 5156.91313963 0 53.84438342 0 576.57913537 0 13668
0.11350000 0.11349100 15149.48698662 0 198.72165692 0 5597.24842535 0 353.04993470 0 175.88609421 0 13791
0.11450000 0.11448600 14948.74573765 0 62.83776853 0 5517.21766156 0 65.73716751 0 118.04094766 0 14205
0.11550000 0.11549300 14863.71028305 0 54.97243188 0 5339.10824453 0 212.41480102 0 -838.45511859 0 14776
0.11650000 0.11649800 14993.69937642 0 112.88678046 0 5111.88199460 0 376.82996672 0 97.27325234 0 14553
0.11750000 0.11747300 14907.66741258 0 -172.51567853 0 4856.23308686 0 147.56973072 0 -122.12663552 0 14568
0.11850000 0.11849100 14987.05598153 0 -143.00571843 0 5020.28065137 0 318.40573758 0 -734.37747976 0 16015
0.11950000 0.11950300 14918.62901415 0 88.94177080 0 4599.56552524 0 78.86374075 0 -1012.29172547 0 15270
0.12050000 0.12050700 14597.75304090 0 529.11097164 0 4191.27354755 0 281.23705039 0 -920.00832704 0 15999
0.12150000 0.12150000 14360.03022705 0 413.37860371 0 4308.48517808 0 -46.32483547 0 -565.27097004 0 15670
0.12250000 0.12250700 14114.88895556 0 45.63237228 0 4271.58111946 0 277.76366210 0 -467.68614248 0 16887
0.12350000 0.12352200 13860.22548473 0 141.30058041 0 4124.34134402 0 528.17314573 0 -566.57086097 0 16407
0.12450000 0.12449800 13828.55863575 0 274.25484236 0 3902.16407421 0 -155.64034828 0 -1056.60649110 0 16306
0.12550000 0.12549900 13551.30762229 0 340.67550449 0 4311.12039139 0 150.14183177 0 -918.90995242 0 17523
0.12650000 0.12650100 13248.59026175 0 337.11353759 0 3764.88939111 0 -394.77377632 0 -698.96154159 0 17154
0.12750000 0.12750600 12940.22601555 0 279.11337849 0 3846.43706340 0 413.78274357 0 -359.67007771 0 18007
0.12850000 0.12850300 13095.46000951 0 -208.04787611 0 3492.79808102 0 348.24897466 0 -509.32140550 0 17496
0.12950000 0.12949900 13119.70840086 0 -131.49603678 0 4058.91497667 0 201.03245110 0 -920.92400830 0 18405
0.13050000 0.13049000 13169.31241605 0 398.53283059 0 3791.92800832 0 -125.66424330 0 -546.34283076 0 18100
0.13150000 0.13148800 12802.48629481 0 376.97501417 0 4350.40499984 0 -94.26390517 0 35.38305336 0 19059
0.13250000 0.13249300 12455.47963499 0 256.03090294 0 4249.91257979 0 114.73142977 0 574.00481985 0 18957
0.13350000 0.13349100 12553.13753989 0 -39.94994445 0 4529.97596375 0 866.47142208 0 320.09648158 0 19468
0.13450000 0.13450700 12617.91064008 0 -118.07637910 0 3880.50660687 0 361.16705603 0 397.29605191 0 19953
0.13550000 0.13551000 12366.12597371 0 450.65026351 0 4054.33103419 0 167.44898270 0 140.81118365 0 19956
0.13650000 0.13649900 12110.02310065 0 511.42293275 0 3773.60331074 0 -356.08264447 0 250.31204718 0 19723
0.13750000 0.13749600 11650.30017418 0 315.32873851 0 3770.09338377 0 -19.79997413 0 452.33768582 0 20946
0.13850000 0.13851100 11498.49860092 0 111.39533830 0 3701.88786289 0 325.49423993 0 76.76929979 0 20955
0.13950000 0.13949800 11424.31402463 0 -114.64063671 0 3703.72586881 0 476.44324418 0 -242.32668652 0 20506
0.14050000 0.14048300 11520.97542030 0 -35.73471040 0 3346.07870484 0 501.19542631 0 -370.33272651 0 21447
0.14150000 0.14148400 11483.99385540 0 11.17186502 0 3120.63509921 0 238.75254006 0 286.87175649 0 21771
0.14250000 0.14249400 11536.69812154 0 44.67528052 0 2984.75552904 0 403.36700761 0 380.12509058 0 22470
0.14350000 0.14350900 11488.42278533 0 111.92459543 0 3018.21609464 0 -184.44057236 0 470.37339571 0 22519
0.14450000 0.14449900 11268.52641443 0 323.90203962 0 3056.91386988 0 8.95137671 0 325.71900812 0 22218
0.14550000 0.14550500 10870.24381838 0 521.78219985 0 3091.21593217 0 -467.76364875 0 531.24903757 0 23559
0.14650000 0.14650700 10584.84357386 0 390.85306610 0 2948.99191987 0 -90.65775970 0 289.52579275 0 23044
0.14750000 0.14750500 10425.47960274 0 56.27974127 0 3181.61039199 0 26.54213416 0 19.98665353 0 23649
0.14850000 0.14849900 10197.22362660 0 45.08772462 0 3158.70175194 0 49.16665836 0 -417.93043644 0 23640
0.14950000 0.14949500 10237.34973175 0 224.08060245 0 3044.32463656 0 109.15618205 0 -388.89547907 0 24457
0.15050000 0.15050000 10313.79306230 0 -12.15176577 0 3102.24396769 0 -59.30027148 0 22.50627177 0 24591
0.15150000 0.15149900 10053.15053606 0 27.26272106 0 3081.58300958 0 300.26816229 0 -199.18226563 0 25020
0.15250000 0.15250500 10121.23426137 0 165.43935574 0 2987.81149069 0 154.01160930 0 0.04429185 0 25297
0.15350000 0.15350100 10095.22537038 0 160.18221592 0 3234.42538137 0 50.40277270 0 25.99405408 0 25452
0.15450000 0.15450400 9897.44043214 0 117.98669327 0 2799.09478648 0 151.36532367 0 -29.86006702 0 26061
0.15550000 0.15549900 9809.27150961 0 181.19859566 0 3111.35649101 0 -37.98748560 0 151.04754794 0 26128
0.15650000 0.15649500 9604.94282741 0 157.37981051 0 2848.74309097 0 44.68004162 0 -64.02527537 0 26331
0.15750000 0.15749700 9639.80957826 0 108.12457355 0 2992.46186711 0 378.38119942 0 183.57139487 0 27345
0.15850000 0.15849900 9409.40557111 0 142.84627695 0 2708.44566319 0 74.93284400 0 32.65616120 0 26980
0.15950000 0.15949700 9333.39406123 0 214.09668716 0 2801.34246842 0 278.25748778 0 184.74727576 0 27777
0.16050000 0.16050000 9211.77564542 0 242.84930025 0 2902.66531283 0 -135.86849785 0 221.99679092 0 28224
0.16150000 0.16150500 9033.59979444 0 -11.66458347 0 2978.53288249 0 -20.54691317 0 470.62473749 0 28075
0.16250000 0.16249700 8947.15815458 0 124.73527524 0 3084.27358451 0 115.97706631 0 566.10028717 0 28590
0.16350000 0.16349900 9000.26102441 0 119.90220546 0 2995.75034758 0 230.75278538 0 214.06014849 0 29163
0.16450000 0.16449100 8726.97390324 0 149.05010055 0 2789.20720042 0 164.33876666 0 442.13121680 0 28996
0.16550000 0.16550500 8617.73434658 0 166.86436395 0 2569.66514391 0 204.86347549 0 93.44444241 0 30777
0.16650000 0.16650700 8544.74558137 0 -13.18902115 0 2410.86586136 0 460.07281193 0 171.57342369 0 29211
0.16750000 0.16749900 8558.46419182 0 -3.06790869 0 2435.64572431 0 -0.36118256 0 -76.16497230 0 30922
0.16850000 0.16850800 8549.32952385 0 9.28950337 0 2462.23037620 0 -56.11398856 0 135.77770479 0 30867
0.16950000 0.16949900 8550.30388843 0 90.23136447 0 2480.15647008 0 -25.53898153 0 222.22377358 0 30852
0.17050000 0.17049200 8569.10469597 0 121.54090953 0 2376.50843745 0 110.10530174 0 668.17272797 0 31257
0.17150000 0.17149500 8507.81937810 0 41.75739076 0 2551.15221681 0 253.20413842 0 634.75202274 0 32608
0.17250000 0.17250900 8409.79608648 0 31.85707152 0 2404.82037201 0 298.50212648 0 531.10509734 0 32361
0.17350000 0.17350400 8405.68825397 0 156.07881234 0 2200.77957025 0 189.56705876 0 634.48296525 0 32508
0.17450000 0.17449800 8195.59089054 0 190.37644570 0 2166.08997660 0 2.64139166 0 500.32514158 0 32791
0.17550000 0.17549800 7994.38460393 0 144.43515556 0 2053.34049297 0 54.55489451 0 513.89649011 0 33633
0.17650000 0.17650100 7974.12224952 0 91.87405458 0 1863.83765370 0 91.62160558 0 236.69198042 0 33984
0.17750000 0.17750300 7886.75053437 0 36.72247249 0 1817.83214408 0 -24.24540183 0 28.40660294 0 34069
0.17850000 0.17849800 7969.33900520 0 55.21026541 0 1834.37419735 0 33.92549252 0 -147.02054341 0 34536
