### header ###
fiducial parameters:
Omega_m = 0.31
Omega_nu = 0
Omega_de = 0.69
Omega_k = 0
H_0 = 100
w_de = -1
zeff = 0
beta = 0
fgrowth = 0
b_1 = 2
gamma = 0.55
Lx = 3500 Ly = 3500 Lz = 3500
nx = 700 ny = 700 nz = 700
xoffset = -685.467585 yoffset = -31.7331281 zoffset = 572.489161
bins = 400 dk = 0.001
kx_ny = 0.628318531 ky_ny = 0.628318531 kz_ny = 0.628318531
############################
A(data) = 8.03301157 (not used)
A(ran) = 8.02494767 (used)
Ngal = 477087
weighted Ngal = 0
Nran = 23820508
weighted Nran = 0
SN(data) = 3495.69726
SN(ran) = 69.9002046
SN(data+ran) = 3565.59746
############################
13 columns: k_central k_mean P_0(k) sigma^{lin}_{P_0(k)} P^img_1(k) sigma^{lin}_{P_1(k)} P_2(k) sigma^{lin}_{P_2(k)} P^img_3(k) sigma^{lin}_{P_3(k)} P_4(k) sigma^{lin}_{P_4(k)} N_modes
### header ###
0.00050000 0 0 0 0 0 0 0 0 0 0 0 0
0.00150000 0.00179520 21063.65856525 0 -31348.74108929 0 5989.44124275 0 -29602.41401889 0 -40331.27532166 0 3
0.00250000 0.00253879 26918.26103636 0 -16012.02108999 0 913.36825385 0 -64.36187405 0 -13818.37209692 0 6
0.00350000 0.00331552 44772.49552967 0 -18141.11842937 0 4039.35017871 0 1037.27421196 0 59394.93985492 0 7
0.00450000 0.00420575 45443.36769043 0 -10542.28155725 0 1491.98469699 0 -11287.46008987 0 1164.17744841 0 24
0.00550000 0.00557378 71188.95880525 0 -10955.33463461 0 -1432.10556437 0 -8204.39338877 0 160.64725356 0 45
0.00650000 0.00659388 55201.51827635 0 -8679.35183419 0 882.19412332 0 18516.58096397 0 27644.71626771 0 40
0.00750000 0.00754703 84636.85091373 0 -5289.71460351 0 -2762.40110203 0 7507.44590306 0 22831.35522255 0 57
0.00850000 0.00846663 81274.62875930 0 -7764.20204328 0 -17171.18277525 0 37047.99884319 0 11855.47035307 0 75
0.00950000 0.00948925 93515.52673931 0 -8991.02670551 0 -21399.15000725 0 12203.36279887 0 5134.40310328 0 112
0.01050000 0.01054430 93777.16577477 0 -5220.34648852 0 -37925.03769208 0 2554.45176961 0 6686.41087311 0 105
0.01150000 0.01145670 99007.62129585 0 5375.66906108 0 -26251.15346603 0 -15826.33820278 0 5583.99485254 0 144
0.01250000 0.01249090 88211.55098143 0 5180.47504685 0 -22452.79243700 0 -20643.46383838 0 17079.61464900 0 169
0.01350000 0.01339930 82485.05530848 0 12904.90529938 0 -7186.68065306 0 -3123.33674647 0 4308.77305853 0 180
0.01450000 0.01448870 71173.01465751 0 11614.86873476 0 6593.80194833 0 -18338.31653439 0 -556.94347454 0 267
0.01550000 0.01550050 63772.93708821 0 7599.24654813 0 15224.55734889 0 -5215.18678516 0 1330.80486460 0 238
0.01650000 0.01653350 59712.27268422 0 1536.01933279 0 12941.66541778 0 -4010.66178511 0 11942.38810290 0 315
0.01750000 0.01747870 64656.95150173 0 -2672.64883705 0 24953.58772054 0 1155.92856642 0 -875.19309234 0 297
0.01850000 0.01844180 65514.94595193 0 -3546.56529034 0 20085.08649778 0 -1805.88510560 0 -3646.62588972 0 388
0.01950000 0.01947590 68148.27696355 0 3838.89681020 0 22171.00177036 0 -3530.42184075 0 -2419.26975590 0 399
0.02050000 0.02045430 68449.44419862 0 -1590.17407348 0 18032.27747640 0 -6151.62865669 0 -15463.27667198 0 462
0.02150000 0.02154770 71233.46955102 0 -3864.86141190 0 26414.47025711 0 -3915.86054001 0 -24560.07729648 0 571
0.02250000 0.02255340 78397.37443193 0 -3239.19755337 0 24700.14220544 0 -9050.64010233 0 -30180.94299067 0 510
0.02350000 0.02348930 78914.56272421 0 -1195.20210255 0 23444.87274075 0 -4954.24530615 0 -35163.48915906 0 555
0.02450000 0.02439640 76961.62607270 0 4138.11531610 0 27244.34100226 0 -5180.87365054 0 -22679.11075629 0 592
0.02550000 0.02547300 71461.55944228 0 7442.05275268 0 29986.84513660 0 -2070.18149902 0 -23498.35206962 0 837
0.02650000 0.02652900 67467.99332669 0 4411.24742472 0 26296.88216753 0 11188.14133625 0 -21691.23793597 0 723
0.02750000 0.02749970 65219.31487927 0 -819.12837562 0 27617.25690216 0 3974.95353757 0 -23407.55900611 0 826
0.02850000 0.02848090 63335.02664164 0 -1054.83049020 0 25491.70270672 0 10283.57668787 0 -11267.64062845 0 831
0.02950000 0.02946900 71062.51285582 0 1146.83818774 0 34000.00926711 0 724.59840248 0 -8665.16818610 0 996
0.03050000 0.03053250 65352.07205385 0 3298.70022695 0 28654.95518416 0 1138.15748508 0 9064.25906186 0 1041
0.03150000 0.03150510 66258.78473325 0 4043.19227543 0 35437.75064481 0 4319.29176710 0 7586.71267644 0 1036
0.03250000 0.03246190 58769.46422591 0 3626.20852276 0 26413.03085488 0 11883.37261161 0 9123.60672289 0 1059
0.03350000 0.03345080 58660.73399620 0 3503.69324864 0 29223.07617061 0 9376.68685127 0 9634.25127120 0 1302
0.03450000 0.03451200 51493.61814109 0 -558.64750533 0 15069.10190843 0 10115.64273734 0 7294.83512189 0 1339
0.03550000 0.03553350 55154.79306562 0 -2063.23915136 0 13862.10777995 0 7610.52924712 0 5120.55162493 0 1365
0.03650000 0.03647120 54125.28830398 0 575.85721980 0 12797.39302539 0 -339.68785311 0 1555.58413075 0 1308
0.03750000 0.03744890 54321.82206951 0 995.60019581 0 7833.70302617 0 -365.20513289 0 -1234.25419218 0 1579
0.03850000 0.03847530 53614.63268335 0 1160.94432956 0 10323.80244393 0 -8176.09252653 0 -1720.55069822 0 1662
0.03950000 0.03950240 51123.35959915 0 4412.08892141 0 13079.29441527 0 -4298.22113297 0 -2214.32102351 0 1683
0.04050000 0.04050350 49820.03624475 0 2220.05648776 0 18692.74165183 0 -4487.36965785 0 -2294.22999172 0 1822
0.04150000 0.04152450 45770.33344233 0 3724.39789925 0 16385.60132937 0 3036.76223871 0 -4311.09824674 0 1887
0.04250000 0.04250150 43996.87917612 0 2067.01481412 0 16533.63831220 0 3833.67067288 0 -3297.29404169 0 1920
0.04350000 0.04349210 40956.97239717 0 268.06541279 0 13755.70273845 0 6901.71222921 0 -3120.22542319 0 2005
0.04450000 0.04448520 42221.76406120 0 750.68037082 0 11736.33213802 0 6301.42613916 0 -5293.40168767 0 2151
0.04550000 0.04548030 41138.44780094 0 134.87309585 0 9053.38603889 0 1708.32685162 0 -3038.81061880 0 2274
0.04650000 0.04648670 40560.91533840 0 -485.00658019 0 7274.79421397 0 73.73061097 0 -973.74453385 0 2311
0.04750000 0.04749250 41553.77070489 0 -143.36446175 0 8188.07278199 0 -659.95484849 0 -4769.18246914 0 2568
0.04850000 0.04851840 42460.70483079 0 55.57675936 0 10814.66074779 0 -3292.67688224 0 -2471.75257554 0 2493
0.04950000 0.04949480 42509.09089024 0 300.34456133 0 10508.56632818 0 -1273.66059621 0 -3056.94708686 0 2644
0.05050000 0.05050630 41436.40406181 0 2126.68357257 0 12275.33291019 0 -1770.16578573 0 -3149.86603673 0 2829
0.05150000 0.05149060 39489.55718895 0 2718.97544409 0 11785.49326022 0 -3144.79491197 0 -5189.53220855 0 2784
0.05250000 0.05249300 37214.85877821 0 2359.70064838 0 13587.18195471 0 1554.53225989 0 -481.80778555 0 3055
0.05350000 0.05348950 36958.09156566 0 -48.65400972 0 13712.63139490 0 3433.07396094 0 -2136.22791656 0 3009
0.05450000 0.05448610 36373.25136874 0 -453.13489320 0 11417.78135299 0 2630.68472599 0 -5462.06641164 0 3336
0.05550000 0.05550870 36653.71335640 0 -463.39783108 0 12974.55022249 0 107.94077296 0 -3285.93383643 0 3349
0.05650000 0.05647670 36692.68793976 0 972.67494727 0 13050.83854049 0 -666.02137526 0 -3000.88790630 0 3324
0.05750000 0.05747970 35906.77432413 0 1560.99849758 0 12863.49480456 0 1751.87430513 0 1152.17504830 0 3639
0.05850000 0.05849280 34322.32464258 0 257.48802089 0 11286.79575038 0 2663.38130118 0 651.46901875 0 3846
0.05950000 0.05951020 34634.12130948 0 409.88528523 0 12731.40196947 0 4322.23700551 0 1588.82324985 0 3787
0.06050000 0.06049470 33055.09706709 0 997.08610180 0 8190.37582555 0 3082.69024206 0 1999.57328365 0 3930
0.06150000 0.06148310 32725.91685023 0 403.22417462 0 8670.84828873 0 1639.12482150 0 5506.75431460 0 4083
0.06250000 0.06249100 32179.16545069 0 675.09625268 0 7146.24452283 0 2210.39034820 0 3322.05175999 0 4303
0.06350000 0.06350600 31032.07259948 0 1107.26569884 0 6274.96328285 0 885.43942172 0 4263.68655187 0 4470
0.06450000 0.06451750 29821.31388056 0 919.29637656 0 4582.43663874 0 611.81016571 0 4645.23886512 0 4479
0.06550000 0.06550280 30862.11241351 0 -257.18463919 0 6189.20812713 0 400.35865696 0 5278.00008385 0 4636
0.06650000 0.06648880 30457.30821814 0 -1148.98621876 0 4361.20051654 0 -1231.75184678 0 1897.15427908 0 4653
0.06750000 0.06749660 31514.27234533 0 336.61417574 0 6831.81264263 0 -578.19237310 0 1799.73996532 0 5220
0.06850000 0.06852730 31103.93198755 0 1012.68700747 0 6570.38398133 0 -2450.21690377 0 1206.07512552 0 5029
0.06950000 0.06949320 29900.81317275 0 1499.15956347 0 8940.34867482 0 -293.64469759 0 3644.40035243 0 5040
0.07050000 0.07048030 29546.60950181 0 197.26564620 0 7544.85928862 0 189.57591661 0 3945.87761260 0 5475
0.07150000 0.07148790 29511.17806239 0 269.15603678 0 8611.98780999 0 2597.43453456 0 2279.33771484 0 5509
0.07250000 0.07249820 28651.52276347 0 541.75888828 0 9001.66720966 0 1511.01802335 0 2919.05235356 0 5916
0.07350000 0.07351270 28350.13408190 0 1037.69717477 0 8383.55467666 0 -71.04557220 0 2920.55818974 0 5721
0.07450000 0.07449140 26841.75127186 0 887.86426086 0 8912.76751369 0 -801.00297989 0 4277.38301767 0 6028
0.07550000 0.07549160 27790.53878557 0 -197.68307285 0 9059.71940869 0 213.60729040 0 3571.19014073 0 6183
0.07650000 0.07648840 27569.97807518 0 -329.00527413 0 8508.02975227 0 -127.68715704 0 3571.79911860 0 6330
0.07750000 0.07749960 27440.21042831 0 553.23424573 0 9379.48814945 0 488.26073646 0 1129.54321637 0 6583
0.07850000 0.07848650 26649.31426651 0 1197.71552028 0 9057.28349723 0 341.60225807 0 2328.59848796 0 6549
0.07950000 0.07947320 26169.88260186 0 1298.50689311 0 8776.07966381 0 222.49947446 0 3316.72597175 0 6828
0.08050000 0.08048110 25326.06072743 0 146.59425890 0 8726.42028699 0 1379.97705912 0 3889.88486599 0 7147
0.08150000 0.08149960 24417.13358307 0 677.80897226 0 8415.93015443 0 1096.18008723 0 710.72699395 0 7386
0.08250000 0.08250610 24185.83271761 0 671.80445051 0 6588.42079846 0 827.18570639 0 1289.60474395 0 7227
0.08350000 0.08350160 23615.38654295 0 -21.70397111 0 7338.59294958 0 -480.62415403 0 -888.27947304 0 7798
0.08450000 0.08449610 23064.42765998 0 565.79026207 0 5961.26217609 0 -797.35797056 0 -1724.86890490 0 7371
0.08550000 0.08548940 23033.86804348 0 324.81772088 0 6553.41010739 0 -550.91016475 0 -2620.29888531 0 8256
0.08650000 0.08650700 22274.41728417 0 668.60676310 0 5656.99469007 0 -640.50520271 0 -3445.03207175 0 8037
0.08750000 0.08749060 22471.72611244 0 624.83564863 0 6713.77058774 0 -225.76802475 0 -3431.85600521 0 8155
0.08850000 0.08849210 21389.40636141 0 471.68435897 0 6096.59920234 0 789.19434547 0 -2954.89346900 0 8718
0.08950000 0.08949900 21591.25484286 0 135.83749534 0 6533.62386294 0 352.71333603 0 -3841.13341981 0 8571
0.09050000 0.09049190 20802.13025303 0 506.44149381 0 6050.46082482 0 344.49324208 0 -3420.52901693 0 8932
0.09150000 0.09150830 20637.92767597 0 366.43194648 0 6043.36346462 0 418.06108988 0 -3013.86467099 0 9285
0.09250000 0.09250820 20012.11987722 0 403.15663344 0 5154.63224072 0 990.76158986 0 -1938.64228017 0 9204
0.09350000 0.09350330 19631.23190346 0 546.50891563 0 5137.60300515 0 1238.12950587 0 -1897.65253369 0 9349
0.09450000 0.09448040 19436.69115640 0 428.01843158 0 5282.69474957 0 869.37569288 0 -1269.53061906 0 9564
0.09550000 0.09549270 18415.82280812 0 895.47980587 0 4300.02592192 0 1078.30271158 0 -379.79845700 0 10155
0.09650000 0.09649430 18190.94389105 0 617.52791425 0 4847.66310745 0 -79.66116959 0 222.66445210 0 9913
0.09750000 0.09749140 17568.12562000 0 485.98758817 0 5188.28103585 0 -1037.45136916 0 123.96353420 0 10476
0.09850000 0.09850240 17545.64880062 0 316.78032029 0 6113.00838772 0 -378.98464113 0 391.72777976 0 10575
0.09950000 0.09950330 16954.05448556 0 121.74796201 0 5856.25224751 0 -115.98149524 0 1798.83203469 0 10882
0.10050000 0.10051200 16948.73976965 0 260.99351893 0 6817.29682479 0 553.43465481 0 702.97858104 0 10875
0.10150000 0.10150300 16548.03233446 0 150.49836063 0 5950.64381658 0 1228.41907700 0 1082.83682859 0 11118
0.10250000 0.10250800 16379.29010422 0 110.52660370 0 5745.60650559 0 1127.72735510 0 825.87806483 0 11575
0.10350000 0.10349800 16253.06560129 0 283.16806384 0 5164.82985188 0 825.81273811 0 2092.40365493 0 11364
0.10450000 0.10450100 16127.94833084 0 277.68504859 0 5229.02719118 0 334.30448878 0 1949.38243525 0 12093
0.10550000 0.10551000 15824.89880055 0 113.32413729 0 4944.55702194 0 57.09012472 0 1973.28758453 0 12067
0.10650000 0.10649700 15929.75371659 0 116.07339554 0 5087.48966302 0 -65.46633845 0 1900.47597652 0 12054
0.10750000 0.10749900 15865.31278614 0 31.27499941 0 5299.55790027 0 -287.71546765 0 1198.55701697 0 12807
0.10850000 0.10850100 15972.71433688 0 275.57134178 0 5504.41805407 0 -402.46129144 0 940.44562419 0 12736
0.10950000 0.10950300 15474.45972004 0 146.23440834 0 5182.70058414 0 -124.27798823 0 970.53577412 0 12933
0.11050000 0.11050200 15560.04879089 0 182.63799788 0 5601.85451247 0 -146.32963034 0 172.55332444 0 13428
0.11150000 0.11150900 15386.87763073 0 125.65649267 0 4774.30895553 0 -159.24660447 0 309.41943875 0 13453
0.11250000 0.11250000 15043.30339161 0 648.05099208 0 5855.94222241 0 -354.42401021 0 -292.34480665 0 13668
0.11350000 0.11349100 14732.94612694 0 684.44793822 0 5501.27351382 0 -570.08078794 0 -116.03132070 0 13791
0.11450000 0.11448600 14255.28603426 0 553.40586676 0 6286.53386228 0 -293.46754039 0 165.31534570 0 14205
0.11550000 0.11549300 14113.56027658 0 68.80752318 0 6027.34181060 0 410.72899638 0 446.93771300 0 14776
0.11650000 0.11649800 14239.23116328 0 -762.81785329 0 6302.89875836 0 998.44024713 0 -107.70714691 0 14553
0.11750000 0.11747300 14725.19549957 0 -402.79013949 0 5607.16922839 0 1396.67412495 0 -402.96065329 0 14568
0.11850000 0.11849100 14778.78555169 0 114.75357442 0 4873.87130030 0 892.28433293 0 -411.06005889 0 16015
0.11950000 0.11950300 14377.85667000 0 544.13943812 0 4320.85296490 0 794.16914101 0 523.02783639 0 15270
0.12050000 0.12050700 14188.85208535 0 173.92518548 0 3516.03889081 0 459.96541038 0 498.81376924 0 15999
0.12150000 0.12150000 13825.01549181 0 119.03745689 0 3585.17448698 0 543.63786181 0 475.10017118 0 15670
0.12250000 0.12250700 13979.91731602 0 21.68813769 0 3298.54521440 0 -184.16708594 0 139.33745722 0 16887
0.12350000 0.12352200 13768.10374224 0 259.10125862 0 3615.13619794 0 -430.81308637 0 814.90981986 0 16407
0.12450000 0.12449800 13811.83942528 0 215.33457307 0 3779.84810194 0 -590.66866871 0 703.47129949 0 16306
0.12550000 0.12549900 13772.31122567 0 127.04164050 0 4522.53536148 0 -260.42661590 0 508.73789398 0 17523
0.12650000 0.12650100 13520.52655930 0 530.36103712 0 4473.99428947 0 -414.46701324 0 1341.71110455 0 17154
0.12750000 0.12750600 13362.41376089 0 333.53385498 0 5289.69245886 0 -270.84567355 0 783.49431265 0 18007
0.12850000 0.12850300 13209.17278540 0 24.84862208 0 5735.37567746 0 -272.22196353 0 840.85116968 0 17496
0.12950000 0.12949900 13196.55033510 0 4.97717609 0 5433.28943943 0 11.85502746 0 312.55069221 0 18405
0.13050000 0.13049000 13151.81814284 0 -35.90622071 0 5714.42683890 0 -96.22658547 0 613.47876506 0 18100
0.13150000 0.13148800 13501.14999086 0 -123.12868091 0 5522.48808817 0 174.35368445 0 -434.07831496 0 19059
0.13250000 0.13249300 13284.02170117 0 59.93250122 0 5269.25294724 0 398.27373819 0 9.28085588 0 18957
0.13350000 0.13349100 13203.08300675 0 287.92473458 0 5026.55865954 0 377.30164775 0 179.26204605 0 19468
0.13450000 0.13450700 13076.41561082 0 251.45914003 0 4911.76079583 0 580.92613010 0 250.72836659 0 19953
0.13550000 0.13551000 12823.30226547 0 217.21576106 0 4581.67264833 0 604.95861112 0 442.70476322 0 19956
0.13650000 0.13649900 12561.44178351 0 362.69946578 0 4718.43800449 0 195.58929622 0 -216.89909257 0 19723
0.13750000 0.13749600 12270.35036402 0 200.78996719 0 4521.23989947 0 497.53159403 0 831.59249167 0 20946
0.13850000 0.13851100 11996.08887827 0 193.44680137 0 4086.15289572 0 428.94518517 0 70.76522093 0 20955
0.13950000 0.13949800 11862.55664095 0 178.46262419 0 3449.81531607 0 539.02070236 0 103.79507310 0 20506
0.14050000 0.14048300 11638.45278662 0 98.57336472 0 3052.88354365 0 835.84204993 0 -156.34676260 0 21447
0.14150000 0.14148400 11462.84571500 0 245.22099222 0 2644.91266338 0 489.44658245 0 248.20055483 0 21771
0.14250000 0.14249400 11060.87603478 0 95.06465570 0 2184.04928745 0 541.21080821 0 197.49262886 0 22470
0.14350000 0.14350900 11133.55477489 0 120.78245528 0 1981.56968349 0 523.50394636 0 124.33334985 0 22519
0.14450000 0.14449900 10904.57909764 0 -36.05680433 0 1572.91231909 0 -63.65247019 0 227.20189081 0 22218
0.14550000 0.14550500 11058.87194399 0 240.24841115 0 2133.08337631 0 -173.55647707 0 288.18493422 0 23559
0.14650000 0.14650700 10684.52771420 0 348.10060551 0 2089.95667114 0 -361.80260747 0 986.10457005 0 23044
0.14750000 0.14750500 10581.55509338 0 247.08003556 0 2666.38190120 0 -228.53832042 0 817.10989080 0 23649
0.14850000 0.14849900 10393.30342682 0 205.87770045 0 2714.45793556 0 -48.14235759 0 799.29009124 0 23640
0.14950000 0.14949500 10286.83195136 0 254.73211924 0 3312.87280271 0 -379.31902533 0 306.98574176 0 24457
0.15050000 0.15050000 9975.16815237 0 95.27779796 0 2860.55726155 0 197.72846938 0 722.16691995 0 24591
0.15150000 0.15149900 10017.82981989 0 -22.22558833 0 3033.73949404 0 -26.16412499 0 559.13247316 0 25020
0.15250000 0.15250500 10193.82442289 0 -95.98985917 0 2795.34126837 0 114.03830224 0 -137.42748118 0 25297
0.15350000 0.15350100 10202.39440229 0 38.71050841 0 2716.59489425 0 79.05673137 0 -293.59044319 0 25452
0.15450000 0.15450400 9968.43617888 0 297.48568706 0 2473.64594308 0 -257.21453447 0 -341.89567468 0 26061
0.15550000 0.15549900 9835.46863013 0 275.59127197 0 2403.23702956 0 -241.75314009 0 -500.21774003 0 26128
0.15650000 0.15649500 9702.17998396 0 170.30232080 0 2535.16377978 0 -51.49970792 0 -915.85066907 0 26331
0.15750000 0.15749700 9465.83013838 0 209.86152292 0 2462.31895479 0 -190.06309891 0 -1018.71699557 0 27345
0.15850000 0.15849900 9446.65287180 0 194.20304116 0 2571.59172843 0 12.43377788 0 -1163.95600191 0 26980
0.15950000 0.15949700 9292.08321733 0 -22.29955146 0 2650.43775346 0 68.02714573 0 -859.19579744 0 27777
0.16050000 0.16050000 9271.30046365 0 106.84826667 0 2684.64016483 0 239.86198701 0 -963.25018439 0 28224
0.16150000 0.16150500 9034.51879740 0 94.11476096 0 2639.83046629 0 303.12925103 0 -851.03549405 0 28075
0.16250000 0.16249700 9196.54012647 0 -18.61656406 0 2490.27657496 0 535.54399236 0 -52.37619315 0 28590
0.16350000 0.16349900 9066.80569657 0 -73.47827268 0 2432.91086008 0 475.16992682 0 -94.54636018 0 29163
0.16450000 0.16449100 9302.82337240 0 111.19714369 0 2540.58921894 0 323.20669762 0 304.06264801 0 28996
0.16550000 0.16550500 9161.78409886 0 58.45124561 0 2273.96763730 0 0.39741010 0 475.65489465 0 30777
0.16650000 0.16650700 8974.51786921 0 199.45575205 0 2492.26959343 0 -161.61608198 0 642.05200649 0 29211
0.16750000 0.16749900 8985.24695196 0 231.05616708 0 2693.29872284 0 -400.86687666 0 516.68007257 0 30922
0.16850000 0.16850800 8728.47973941 0 217.49035472 0 2435.98896638 0 -90.13647465 0 501.94170100 0 30867
0.16950000 0.16949900 8579.24694551 0 182.62914002 0 2611.04242176 0 123.78084085 0 474.68828070 0 30852
0.17050000 0.17049200 8482.71841774 0 29.83703658 0 2455.90807872 0 333.62021911 0 348.17921901 0 31257
0.17150000 0.17149500 8522.81130590 0 16.50750763 0 2220.45509146 0 521.24297763 0 22.81009636 0 32608
0.17250000 0.17250900 8439.32597677 0 83.20176689 0 2101.70440778 0 -10.35233582 0 -168.35691333 0 32361
0.17350000 0.17350400 8313.41149893 0 176.70323178 0 2058.04623102 0 -163.89476643 0 118.06530677 0 32508
0.17450000 0.17449800 8236.56956469 0 112.38631137 0 2191.45667276 0 -131.68980246 0 40.83340525 0 32791
0.17550000 0.17549800 8157.36922527 0 111.31008140 0 2028.71564257 0 -61.14835321 0 86.07824616 0 33633
0.17650000 0.17650100 8166.31566372 0 -23.49923786 0 2126.76107884 0 404.82301832 0 -4.57786377 0 33984
0.17750000 0.17750300 8100.66784987 0 83.12702870 0 1947.93196069 0 180.20208642 0 -20.42500687 0 34069
0.17850000 0.17849800 8037.14592238 0 161.19090471 0 1966.38952617 0 251.16461619 0 126.68954057 0 34536
