### header ###
fiducial parameters:
Omega_m = 0.31
Omega_nu = 0
Omega_de = 0.69
Omega_k = 0
H_0 = 100
w_de = -1
zeff = 0
beta = 0
fgrowth = 0
b_1 = 2
gamma = 0.55
Lx = 3500 Ly = 3500 Lz = 3500
nx = 700 ny = 700 nz = 700
xoffset = -685.467585 yoffset = -31.7331281 zoffset = 572.489161
bins = 400 dk = 0.001
kx_ny = 0.628318531 ky_ny = 0.628318531 kz_ny = 0.628318531
############################
A(data) = 8.01790842 (not used)
A(ran) = 8.01988943 (used)
Ngal = 476869
weighted Ngal = 0
Nran = 23820508
weighted Nran = 0
SN(data) = 3484.50354
SN(ran) = 69.8561455
SN(data+ran) = 3554.35969
############################
13 columns: k_central k_mean P_0(k) sigma^{lin}_{P_0(k)} P^img_1(k) sigma^{lin}_{P_1(k)} P_2(k) sigma^{lin}_{P_2(k)} P^img_3(k) sigma^{lin}_{P_3(k)} P_4(k) sigma^{lin}_{P_4(k)} N_modes
### header ###
0.00050000 0 0 0 0 0 0 0 0 0 0 0 0
0.00150000 0.00179520 14646.80343985 0 -16217.96633162 0 16315.07062028 0 -49255.45840224 0 9004.30242297 0 3
0.00250000 0.00253879 21127.65660270 0 -7777.48883306 0 -228.82177193 0 -195.95468294 0 16375.63623703 0 6
0.00350000 0.00331552 45579.33583921 0 -35521.45742044 0 -17950.78516573 0 8562.01840809 0 15933.51830702 0 7
0.00450000 0.00420575 71299.57133018 0 -61956.30075522 0 -8662.20080305 0 -34826.00469858 0 -2227.49709004 0 24
0.00550000 0.00557378 119263.33231909 0 -3972.79443423 0 29622.89781981 0 -27653.35268107 0 14154.41715516 0 45
0.00650000 0.00659388 137014.48346834 0 21618.49276191 0 81495.07874644 0 -56938.21242416 0 87245.04774801 0 40
0.00750000 0.00754703 95147.80886407 0 42635.53683967 0 31289.72559801 0 -1568.06264082 0 58785.18692716 0 57
0.00850000 0.00846663 84486.15657295 0 25513.18301687 0 68946.37013648 0 31448.05984291 0 37486.90579900 0 75
0.00950000 0.00948925 69365.01473787 0 9282.95962168 0 59272.81211217 0 27567.09927073 0 -20234.67360608 0 112
0.01050000 0.01054430 70055.26346706 0 5596.48443494 0 84269.58189950 0 38173.83283075 0 847.64071926 0 105
0.01150000 0.01145670 66954.34817835 0 4594.40582187 0 54169.57760326 0 20851.73426822 0 -10167.18440937 0 144
0.01250000 0.01249090 62505.70951272 0 -1579.79930512 0 51722.70454158 0 19132.09150064 0 -9685.83723253 0 169
0.01350000 0.01339930 72486.19238100 0 -10749.17901881 0 33152.09063250 0 21774.83398835 0 -29065.40626519 0 180
0.01450000 0.01448870 69163.60914942 0 -695.53797876 0 29122.20729151 0 6822.68904698 0 -27788.98866009 0 267
0.01550000 0.01550050 66973.83547004 0 7191.86250108 0 23404.90164815 0 43.31792422 0 -14971.66545003 0 238
0.01650000 0.01653350 63830.73462377 0 2914.70092991 0 18867.79510721 0 -4066.02340920 0 -14983.95573058 0 315
0.01750000 0.01747870 63838.81742088 0 3848.24185234 0 26038.56482951 0 -4852.02560343 0 5414.01252192 0 297
0.01850000 0.01844180 60369.96877845 0 -2317.45972919 0 27402.01090768 0 1916.58620913 0 -12391.26015104 0 388
0.01950000 0.01947590 68367.39827171 0 2222.50347155 0 37415.26785743 0 1136.20875592 0 -14613.36501890 0 399
0.02050000 0.02045430 69050.00709678 0 -3104.12626291 0 36146.60087970 0 339.22281547 0 -8071.56978025 0 462
0.02150000 0.02154770 71534.08316984 0 -2845.23316400 0 37716.21364600 0 -270.06839635 0 -10812.82274187 0 571
0.02250000 0.02255340 75823.28035809 0 -5072.60845847 0 36045.06766112 0 8398.77912329 0 -5924.43562374 0 510
0.02350000 0.02348930 80838.15771495 0 -2069.11855583 0 31853.41765452 0 11889.79456001 0 -9092.63743037 0 555
0.02450000 0.02439640 78119.01618599 0 3722.40488078 0 18333.33398822 0 7432.02122640 0 -1679.67167499 0 592
0.02550000 0.02547300 73817.52871719 0 8186.32335467 0 27993.16232975 0 1754.57595239 0 -12537.19339215 0 837
0.02650000 0.02652900 63459.47957260 0 7842.25086093 0 17294.08558074 0 -2421.17419577 0 2483.50031217 0 723
0.02750000 0.02749970 57263.84949708 0 6033.66410807 0 19354.42378299 0 11675.87724451 0 -4986.16681861 0 826
0.02850000 0.02848090 56475.83213973 0 -868.36589685 0 16400.10607488 0 -403.45780067 0 -2188.28998786 0 831
0.02950000 0.02946900 57163.64495747 0 -1356.31550098 0 22512.25082127 0 -433.06962617 0 -10533.11367230 0 996
0.03050000 0.03053250 58388.79769865 0 2389.70664863 0 25641.51126152 0 -11326.21322674 0 -11944.38112136 0 1041
0.03150000 0.03150510 56547.02718832 0 3580.98914820 0 30542.56511924 0 -9166.79986201 0 -3266.87836542 0 1036
0.03250000 0.03246190 54447.27150971 0 3331.18642796 0 37152.07869649 0 -7279.43351807 0 -2543.53445734 0 1059
0.03350000 0.03345080 55969.93761877 0 1965.75840365 0 42088.89616338 0 5162.05069835 0 1135.37833155 0 1302
0.03450000 0.03451200 56541.26957941 0 -1927.91319742 0 38354.97606478 0 13358.64917045 0 3191.65299060 0 1339
0.03550000 0.03553350 56897.68771532 0 -2042.91036299 0 31862.49696087 0 15637.88723437 0 106.70000824 0 1365
0.03650000 0.03647120 57446.21068684 0 89.05758732 0 26153.05266814 0 13900.41802382 0 -403.71467861 0 1308
0.03750000 0.03744890 54865.36249486 0 2795.89488461 0 19864.63651064 0 7248.54173183 0 2105.69044471 0 1579
0.03850000 0.03847530 50031.73909528 0 3785.10745623 0 12881.76414051 0 3253.29262286 0 -510.74752093 0 1662
0.03950000 0.03950240 46473.75823806 0 1605.49817103 0 9120.87185866 0 903.30572505 0 2724.60018510 0 1683
0.04050000 0.04050350 46561.78322036 0 -116.50521621 0 8748.33241781 0 1949.20527805 0 1790.18454900 0 1822
0.04150000 0.04152450 44818.55640092 0 602.46623080 0 7146.85350069 0 -3666.64465299 0 522.70784620 0 1887
0.04250000 0.04250150 46805.48508962 0 1579.27890586 0 11120.04653861 0 79.86434675 0 2592.47413304 0 1920
0.04350000 0.04349210 44681.03812667 0 1247.18666757 0 11495.73051971 0 -7.56971666 0 4422.43047279 0 2005
0.04450000 0.04448520 42284.87631267 0 1924.76865717 0 15100.76875741 0 924.86907764 0 4428.74169794 0 2151
0.04550000 0.04548030 44644.05656177 0 1099.98121634 0 17960.41808833 0 2375.43442194 0 3085.31438304 0 2274
0.04650000 0.04648670 41842.86910591 0 3001.72940298 0 17453.52705813 0 -964.06289303 0 5986.44064272 0 2311
0.04750000 0.04749250 39188.27923063 0 1755.16278560 0 16329.57536579 0 1525.16845447 0 5847.90371459 0 2568
0.04850000 0.04851840 39010.56841730 0 -555.34795253 0 14712.35160278 0 -2671.26479645 0 5850.04067328 0 2493
0.04950000 0.04949480 39101.14003431 0 -448.75800320 0 15767.32271150 0 922.19289673 0 -110.30858962 0 2644
0.05050000 0.05050630 38711.28347745 0 873.85223380 0 14998.79264583 0 -1486.18279878 0 -2364.14065063 0 2829
0.05150000 0.05149060 37999.77588460 0 2119.36476586 0 14507.62431688 0 71.19194833 0 38.16264978 0 2784
0.05250000 0.05249300 36115.70909346 0 2210.19104635 0 15508.23031074 0 -1960.20009659 0 -3945.62294912 0 3055
0.05350000 0.05348950 36598.68390205 0 502.27497798 0 16003.16323013 0 3147.19760645 0 689.44709288 0 3009
0.05450000 0.05448610 36104.63676864 0 -2053.07475717 0 13653.94807336 0 5811.38718734 0 1048.94444232 0 3336
0.05550000 0.05550870 36275.92563359 0 -805.75522170 0 13164.44059313 0 4578.35095089 0 1922.06700992 0 3349
0.05650000 0.05647670 37658.74828019 0 -622.52374721 0 11518.09661585 0 4482.30960541 0 1717.64974912 0 3324
0.05750000 0.05747970 37130.26621659 0 246.54745674 0 11901.42050107 0 721.83585744 0 4202.41230632 0 3639
0.05850000 0.05849280 36797.54285579 0 620.60602055 0 11273.95185359 0 -686.95139086 0 5563.75464277 0 3846
0.05950000 0.05951020 36884.57132887 0 118.89462390 0 13323.32845428 0 -1500.36644688 0 3349.42254694 0 3787
0.06050000 0.06049470 35172.67918866 0 1579.06853169 0 13220.13438697 0 -3468.27288154 0 4063.72036564 0 3930
0.06150000 0.06148310 36065.88363178 0 1276.45082207 0 15057.58669062 0 -886.44700328 0 1808.03313661 0 4083
0.06250000 0.06249100 33595.31579499 0 1369.62443542 0 13894.66041492 0 -75.49830762 0 3856.61252991 0 4303
0.06350000 0.06350600 34319.66728463 0 -88.04446960 0 13200.86854178 0 2417.58676253 0 -194.11224809 0 4470
0.06450000 0.06451750 33406.31121034 0 -737.98595042 0 10763.55089643 0 3406.23464558 0 -3319.54941458 0 4479
0.06550000 0.06550280 33506.73719644 0 188.05236472 0 9808.89505057 0 -88.65222951 0 -3905.43041003 0 4636
0.06650000 0.06648880 33558.88784634 0 1091.97038933 0 9740.37950459 0 -266.60275868 0 -2414.78546435 0 4653
0.06750000 0.06749660 31861.38972839 0 1588.50215243 0 8934.60213824 0 823.70567470 0 152.77150892 0 5220
0.06850000 0.06852730 31083.78035638 0 618.01731101 0 8460.26374300 0 2015.60600999 0 969.81496577 0 5029
0.06950000 0.06949320 30171.75296107 0 703.63184820 0 9030.95350881 0 3068.22978585 0 2394.67812248 0 5040
0.07050000 0.07048030 30139.08960285 0 20.87365747 0 7114.75483104 0 2693.29872284 0 2086.78998625 0 5475
0.07150000 0.07148790 29114.12449439 0 624.50790782 0 7583.67885944 0 1641.06247835 0 4872.90800804 0 5509
0.07250000 0.07249820 29424.03886606 0 1105.94144879 0 6432.44495874 0 -641.81727321 0 4415.27775096 0 5916
0.07350000 0.07351270 28111.52548206 0 358.52077040 0 6642.94092587 0 -1043.51568146 0 3798.16172719 0 5721
0.07450000 0.07449140 27656.01003902 0 648.28572536 0 8747.66807832 0 -1790.53886340 0 3879.26650649 0 6028
0.07550000 0.07549160 27617.92124165 0 918.41501950 0 9075.30924203 0 -890.82389328 0 2717.28137839 0 6183
0.07650000 0.07648840 27063.08704498 0 1174.14254074 0 10344.67377621 0 -1003.03415469 0 3049.79436502 0 6330
0.07750000 0.07749960 25909.12935238 0 555.67901505 0 9552.36035684 0 440.05737036 0 3137.77505803 0 6583
0.07850000 0.07848650 25690.78310696 0 337.77123369 0 10659.11672874 0 970.76275678 0 2947.19820325 0 6549
0.07950000 0.07947320 25934.70642272 0 246.94384597 0 9921.19056888 0 2072.86100162 0 1119.19059267 0 6828
0.08050000 0.08048110 25361.60289010 0 612.87643059 0 8924.57061195 0 259.86857073 0 1501.52904098 0 7147
0.08150000 0.08149960 24343.50262303 0 776.99485799 0 9108.70337368 0 128.87743196 0 220.94602729 0 7386
0.08250000 0.08250610 24076.54887165 0 633.97142384 0 8135.19135865 0 13.52971659 0 293.35570991 0 7227
0.08350000 0.08350160 22781.86193061 0 365.95694374 0 7046.58252713 0 1009.88349483 0 -1515.09263888 0 7798
0.08450000 0.08449610 22560.19398774 0 516.20396260 0 6568.21380567 0 571.09944182 0 -2094.64026454 0 7371
0.08550000 0.08548940 22141.99227934 0 600.39902776 0 5801.57710755 0 1280.14897856 0 -1798.02375498 0 8256
0.08650000 0.08650700 21306.03175553 0 574.60161816 0 4603.77300867 0 1431.92840717 0 -2468.80733714 0 8037
0.08750000 0.08749060 20864.79961151 0 295.12396018 0 3945.09147753 0 1428.63992670 0 238.30743261 0 8155
0.08850000 0.08849210 20393.78291372 0 214.26830819 0 2725.84028548 0 1684.79816138 0 -1549.28397792 0 8718
0.08950000 0.08949900 20518.23584468 0 -15.24515187 0 2762.25716181 0 1270.27246482 0 -1340.45993184 0 8571
0.09050000 0.09049190 19973.25601711 0 254.62914662 0 3153.04379396 0 -367.44617143 0 -1239.93429482 0 8932
0.09150000 0.09150830 19857.10732976 0 626.62604355 0 3190.02535885 0 -1237.31015383 0 -1009.82148981 0 9285
0.09250000 0.09250820 19262.74493350 0 499.64751530 0 4373.32471222 0 -1090.69928645 0 -211.17691510 0 9204
0.09350000 0.09350330 19243.25764181 0 621.41983642 0 4780.79733787 0 -1778.00499170 0 35.71721612 0 9349
0.09450000 0.09448040 19182.02768557 0 351.60278185 0 6095.69127171 0 -576.12959899 0 352.54725116 0 9564
0.09550000 0.09549270 18557.77001229 0 324.87751143 0 6920.74555557 0 -244.19901664 0 -6.79706769 0 10155
0.09650000 0.09649430 18647.01295033 0 554.83862559 0 7294.61367540 0 -147.22759588 0 -261.24264624 0 9913
0.09750000 0.09749140 18127.05657685 0 829.49871504 0 7367.54707898 0 -601.54058444 0 -464.51835035 0 10476
0.09850000 0.09850240 17324.53447399 0 520.91634405 0 7647.38901644 0 360.21594333 0 -151.26124381 0 10575
0.09950000 0.09950330 16855.73224117 0 512.46594574 0 7347.90477475 0 -50.92317197 0 160.08035053 0 10882
0.10050000 0.10051200 16856.50730391 0 545.96415725 0 7590.86479824 0 389.49227738 0 40.40889232 0 10875
0.10150000 0.10150300 16358.14196382 0 152.26882537 0 7031.28057423 0 437.86615728 0 -53.60378181 0 11118
0.10250000 0.10250800 15960.20260984 0 -11.34326461 0 7346.68681902 0 1490.29063129 0 572.37386641 0 11575
0.10350000 0.10349800 16558.77248953 0 -53.97315456 0 6999.69123153 0 61.11923300 0 297.25538271 0 11364
0.10450000 0.10450100 16302.11600024 0 -5.32767053 0 7223.71757958 0 678.39359101 0 880.26975327 0 12093
0.10550000 0.10551000 16375.85768353 0 264.13252301 0 6960.07445333 0 -517.55921516 0 579.05933613 0 12067
0.10650000 0.10649700 16120.97276620 0 12.65201340 0 7312.86086670 0 -413.85471368 0 487.72926487 0 12054
0.10750000 0.10749900 16350.83422944 0 269.98092498 0 7953.59415930 0 -25.84313830 0 253.70682196 0 12807
0.10850000 0.10850100 15775.73767836 0 336.66178674 0 6776.24064436 0 716.71379998 0 608.12972494 0 12736
0.10950000 0.10950300 15842.72524351 0 107.28518061 0 6546.74456785 0 987.34577766 0 -41.24983539 0 12933
0.11050000 0.11050200 15506.90163176 0 6.28571451 0 6091.15161853 0 546.11916980 0 -771.98241654 0 13428
0.11150000 0.11150900 15574.44281316 0 411.20732081 0 5845.91069612 0 816.89398047 0 -1291.27666500 0 13453
0.11250000 0.11250000 14838.90827545 0 237.46593592 0 5118.80219761 0 -47.76124817 0 41.19115207 0 13668
0.11350000 0.11349100 14925.93674853 0 207.63377116 0 5287.88766991 0 633.44770287 0 509.28708129 0 13791
0.11450000 0.11448600 14741.69326355 0 -112.95985780 0 5074.86721273 0 1137.54850722 0 765.20504652 0 14205
0.11550000 0.11549300 14906.11728710 0 144.64774420 0 4473.91678320 0 1202.34375206 0 882.29045255 0 14776
0.11650000 0.11649800 14409.19134924 0 148.82643958 0 4051.92833971 0 869.78758336 0 938.18908439 0 14553
0.11750000 0.11747300 14355.26912737 0 291.16228236 0 3557.95871257 0 110.27703350 0 1150.49205493 0 14568
0.11850000 0.11849100 13946.58961832 0 442.54532175 0 3882.03458769 0 -578.87442831 0 855.23079792 0 16015
0.11950000 0.11950300 13771.75760943 0 227.49641465 0 3871.02869682 0 -423.26618977 0 620.29267376 0 15270
0.12050000 0.12050700 13446.00981327 0 268.65556770 0 3816.26497827 0 288.32333828 0 285.23305242 0 15999
0.12150000 0.12150000 13238.73589266 0 313.17627857 0 3924.37515780 0 -168.09671370 0 449.50427790 0 15670
0.12250000 0.12250700 13119.92984736 0 158.86903820 0 3979.12780403 0 233.71906120 0 255.05210943 0 16887
0.12350000 0.12352200 13111.73632699 0 112.35641610 0 3784.18845327 0 518.18258705 0 997.66407716 0 16407
0.12450000 0.12449800 13153.47899156 0 -115.44780919 0 3992.48102776 0 547.99814332 0 971.90652793 0 16306
0.12550000 0.12549900 13182.04558959 0 87.96308801 0 4199.04631957 0 177.82042935 0 985.72921823 0 17523
0.12650000 0.12650100 13028.91533735 0 200.98484011 0 4107.86572469 0 -184.53800882 0 1540.86901106 0 17154
0.12750000 0.12750600 12970.89635530 0 98.63171587 0 4249.48075912 0 187.21086803 0 1461.49151444 0 18007
0.12850000 0.12850300 13050.83854049 0 20.89834876 0 4340.62813703 0 -505.19142834 0 1361.05445601 0 17496
0.12950000 0.12949900 12936.01853212 0 102.80188556 0 4218.81041938 0 216.01330658 0 940.43123017 0 18405
0.13050000 0.13049000 12938.67589008 0 206.73026946 0 4147.67073242 0 67.36867457 0 906.62631527 0 18100
0.13150000 0.13148800 12757.53265604 0 100.39022250 0 4289.67329821 0 -196.17723667 0 307.87927837 0 19059
0.13250000 0.13249300 12746.79250097 0 362.30971995 0 4658.34849770 0 -268.90026608 0 62.63082678 0 18957
0.13350000 0.13349100 12257.72791373 0 403.89183580 0 4527.07501465 0 -120.08489882 0 378.84402260 0 19468
0.13450000 0.13450700 12042.81408900 0 125.50812352 0 4367.07992102 0 402.84882281 0 -92.79195031 0 19953
0.13550000 0.13551000 12037.05648009 0 -103.51217520 0 4127.02084663 0 477.43975341 0 -405.61358231 0 19956
0.13650000 0.13649900 11934.52675227 0 -18.23346162 0 3881.29274193 0 295.34762114 0 -755.69502673 0 19723
0.13750000 0.13749600 12040.48890079 0 303.92424395 0 3569.08639902 0 379.29466622 0 -519.45701163 0 20946
0.13850000 0.13851100 11579.21584884 0 107.14500497 0 3444.87705920 0 134.28958433 0 -135.54518596 0 20955
0.13950000 0.13949800 11541.01632822 0 429.93394378 0 3354.11721266 0 241.84836208 0 -169.40214080 0 20506
0.14050000 0.14048300 11299.97181692 0 95.03464970 0 3369.21986372 0 220.82976788 0 161.80541874 0 21447
0.14150000 0.14148400 11352.12246681 0 72.98223253 0 3477.07537977 0 445.92127358 0 121.72471013 0 21771
0.14250000 0.14249400 11009.26792880 0 223.95216348 0 3260.05781333 0 13.57821337 0 257.78697366 0 22470
0.14350000 0.14350900 11021.64678795 0 109.47661514 0 3363.92729245 0 91.22410912 0 195.28812899 0 22519
0.14450000 0.14449900 10741.41731912 0 327.06318835 0 3294.21593539 0 -146.97514688 0 316.80578664 0 22218
0.14550000 0.14550500 10668.87144690 0 270.13815200 0 3409.11345004 0 -0.70014960 0 524.02545285 0 23559
0.14650000 0.14650700 10430.55072751 0 36.14505075 0 3039.45281364 0 278.05154254 0 553.92294433 0 23044
0.14750000 0.14750500 10400.91011397 0 -99.72333637 0 2969.18784034 0 259.90621663 0 -24.62640052 0 23649
0.14850000 0.14849900 10399.62572429 0 22.29102577 0 2970.90405069 0 217.48038962 0 245.79675311 0 23640
0.14950000 0.14949500 10430.79431865 0 139.81910334 0 2972.15522339 0 155.52962503 0 -85.18847414 0 24457
0.15050000 0.15050000 10369.05503547 0 58.32258520 0 2864.63187708 0 107.45580513 0 364.36031450 0 24591
0.15150000 0.15149900 10350.04385375 0 78.71171773 0 2725.71848991 0 74.52028917 0 30.22556446 0 25020
0.15250000 0.15250500 10367.02880002 0 95.14027968 0 3120.67938851 0 -334.53811484 0 -23.04538326 0 25297
0.15350000 0.15350100 10227.91611100 0 347.13288432 0 3258.77342365 0 -444.03565667 0 38.21125729 0 25452
0.15450000 0.15450400 9816.76747351 0 301.42632747 0 3331.20857261 0 -92.81830245 0 196.57805483 0 26061
0.15550000 0.15549900 9731.25590894 0 213.81102118 0 3097.30571082 0 125.88015363 0 110.70508957 0 26128
0.15650000 0.15649500 9642.58873179 0 126.06284699 0 3093.46361411 0 302.83251272 0 -227.26389583 0 26331
0.15750000 0.15749700 9416.61365457 0 89.48918654 0 2844.63525846 0 499.26109117 0 106.04995205 0 27345
0.15850000 0.15849900 9389.46431411 0 49.39607693 0 2702.93164543 0 203.98654737 0 -219.54205650 0 26980
0.15950000 0.15949700 9271.58834409 0 99.99815147 0 2514.70212351 0 261.70989834 0 -24.53903988 0 27777
0.16050000 0.16050000 9029.44767263 0 265.90741668 0 2517.55878331 0 31.51759404 0 -283.45040812 0 28224
0.16150000 0.16150500 8923.54088574 0 246.90952176 0 2319.27559046 0 7.22981843 0 254.78194470 0 28075
0.16250000 0.16249700 8910.07693876 0 23.51462839 0 2477.20015935 0 21.13673591 0 346.57373192 0 28590
0.16350000 0.16349900 8765.14020689 0 107.96778943 0 2431.05070951 0 372.97901214 0 717.50547120 0 29163
0.16450000 0.16449100 8874.98874141 0 -27.99316233 0 2577.48220523 0 379.24816246 0 808.97173206 0 28996
0.16550000 0.16550500 8850.51890356 0 4.87240975 0 2397.41298671 0 506.26655108 0 899.33740384 0 30777
0.16650000 0.16650700 8917.69469824 0 -59.93305484 0 2426.74357515 0 -89.15435944 0 1259.69839462 0 29211
0.16750000 0.16749900 8855.39072648 0 121.68152806 0 2302.99927298 0 147.44018452 0 946.47007613 0 30922
0.16850000 0.16850800 8838.16218906 0 297.14023053 0 2338.90682237 0 -285.63829951 0 962.50169523 0 30867
0.16950000 0.16949900 8520.54147932 0 241.95797810 0 2389.15303239 0 -376.96062015 0 991.37499666 0 30852
0.17050000 0.17049200 8342.67565343 0 144.66324545 0 2443.57350888 0 64.25834781 0 883.28585455 0 31257
0.17150000 0.17149500 8261.44907856 0 97.62446648 0 2395.88500588 0 103.30246537 0 734.87684161 0 32608
0.17250000 0.17250900 8252.22583199 0 -55.52881620 0 2240.54028868 0 537.56026271 0 561.94484366 0 32361
0.17350000 0.17350400 8166.00563862 0 -60.88715707 0 1888.32963620 0 548.57833314 0 455.24860001 0 32508
0.17450000 0.17449800 8237.93146065 0 -15.23529750 0 1462.13370928 0 476.77430669 0 334.55583056 0 32791
0.17550000 0.17549800 8202.92076957 0 35.16957894 0 1421.62007277 0 230.71292501 0 448.78900571 0 33633
0.17650000 0.17650100 8180.79826458 0 94.40275213 0 1296.50280231 0 -54.96756005 0 495.49982242 0 33984
0.17750000 0.17750300 8037.24557331 0 179.21775675 0 1271.71186705 0 -52.02796854 0 574.60051093 0 34069
0.17850000 0.17849800 7952.75266262 0 173.22209286 0 1306.94400462 0 -231.98181344 0 249.76618156 0 34536
