### header ###
fiducial parameters:
Omega_m = 0.31
Omega_nu = 0
Omega_de = 0.69
Omega_k = 0
H_0 = 100
w_de = -1
zeff = 0
beta = 0
fgrowth = 0
b_1 = 2
gamma = 0.55
Lx = 3500 Ly = 3500 Lz = 3500
nx = 700 ny = 700 nz = 700
xoffset = -685.467585 yoffset = -31.7331281 zoffset = 572.489161
bins = 400 dk = 0.001
kx_ny = 0.628318531 ky_ny = 0.628318531 kz_ny = 0.628318531
############################
A(data) = 8.06144226 (not used)
A(ran) = 8.05877129 (used)
Ngal = 479148
weighted Ngal = 0
Nran = 23820508
weighted Nran = 0
SN(data) = 3486.25419
SN(ran) = 70.1948206
SN(data+ran) = 3556.44901
############################
13 columns: k_central k_mean P_0(k) sigma^{lin}_{P_0(k)} P^img_1(k) sigma^{lin}_{P_1(k)} P_2(k) sigma^{lin}_{P_2(k)} P^img_3(k) sigma^{lin}_{P_3(k)} P_4(k) sigma^{lin}_{P_4(k)} N_modes
### header ###
0.00050000 0 0 0 0 0 0 0 0 0 0 0 0
0.00150000 0.00179520 11375.37434893 0 -20608.58601520 0 -5623.77771561 0 -26977.60869738 0 -985.49559218 0 3
0.00250000 0.00253879 19856.77516002 0 -15786.36711018 0 -4422.35296652 0 -21863.30186365 0 -2016.25927715 0 6
0.00350000 0.00331552 27373.55503290 0 -8682.37457887 0 -18957.59166149 0 13784.15861323 0 11669.89818911 0 7
0.00450000 0.00420575 32375.92066271 0 -6353.03424514 0 -9836.28798217 0 -19128.99124969 0 7580.89970591 0 24
0.00550000 0.00557378 38282.67378372 0 -2888.50380939 0 -2935.63869614 0 -11092.91934281 0 3155.39112682 0 45
0.00650000 0.00659388 46262.71972701 0 -3814.55984025 0 10137.10090284 0 -12085.77470930 0 25753.67391193 0 40
0.00750000 0.00754703 47960.77146120 0 -395.54108843 0 2266.58239665 0 8968.31736731 0 12070.71634754 0 57
0.00850000 0.00846663 63276.23259685 0 -26395.97947466 0 16682.45035776 0 -9040.39820188 0 6037.81622988 0 75
0.00950000 0.00948925 75178.42816065 0 -8311.41848047 0 16592.54308023 0 -856.65469889 0 -12218.19971413 0 112
0.01050000 0.01054430 87222.79237513 0 -8751.95306803 0 29737.05348869 0 -1830.73140249 0 -8646.85456085 0 105
0.01150000 0.01145670 83533.71519205 0 4777.08810906 0 20923.04004005 0 -14634.95605229 0 8160.04872787 0 144
0.01250000 0.01249090 81895.01111889 0 14169.91840991 0 16794.72373142 0 -11523.85422475 0 -13886.13472481 0 169
0.01350000 0.01339930 69250.19472950 0 668.50489772 0 15066.99816672 0 -7691.41257992 0 -10703.18458152 0 180
0.01450000 0.01448870 73035.04752226 0 -1834.90566895 0 14857.62050440 0 5164.44232051 0 -23671.41250654 0 267
0.01550000 0.01550050 75298.23071519 0 -1933.91439747 0 385.76201115 0 8024.57883372 0 -27703.17814275 0 238
0.01650000 0.01653350 69557.45174322 0 1270.32782644 0 3244.82229438 0 -3147.18653413 0 -36794.11043510 0 315
0.01750000 0.01747870 76100.86354129 0 5589.45350868 0 3538.38284229 0 -10963.36207011 0 -15278.25812426 0 297
0.01850000 0.01844180 68085.38615858 0 623.19915902 0 9391.01443958 0 -10720.36882964 0 -16201.35784439 0 388
0.01950000 0.01947590 69610.93107209 0 4702.37206118 0 11969.40457545 0 -10885.71185615 0 -9285.65019661 0 399
0.02050000 0.02045430 68787.37155208 0 220.02591710 0 19523.71962947 0 3679.52176676 0 -12173.68896836 0 462
0.02150000 0.02154770 67541.95645648 0 172.97628725 0 24373.17645354 0 2010.84491031 0 -13349.45914085 0 571
0.02250000 0.02255340 66977.93223022 0 2863.94539294 0 22374.84327027 0 1919.63109846 0 -19552.17550425 0 510
0.02350000 0.02348930 67195.50341290 0 1126.55368867 0 24181.07161794 0 2168.91341943 0 -16136.69546745 0 555
0.02450000 0.02439640 63970.57808623 0 3726.70094281 0 15997.29489798 0 861.65274632 0 -9932.32932764 0 592
0.02550000 0.02547300 60822.16252404 0 2618.80412146 0 18118.08799374 0 1577.46304459 0 -16821.29731098 0 837
0.02650000 0.02652900 59663.88662476 0 10.99649047 0 14548.81336520 0 849.44772267 0 -13259.88403307 0 723
0.02750000 0.02749970 58609.91202528 0 282.86136044 0 16674.58900714 0 602.43079936 0 -16424.02229649 0 826
0.02850000 0.02848090 58218.50534294 0 2741.38582952 0 15496.93653943 0 514.09357749 0 -5378.49250391 0 831
0.02950000 0.02946900 59924.30770450 0 232.82441736 0 17463.15998072 0 3078.42739700 0 -4308.25265926 0 996
0.03050000 0.03053250 61662.66270103 0 -381.22457244 0 17250.01772796 0 -3155.15860800 0 -5080.77983418 0 1041
0.03150000 0.03150510 59798.52609456 0 3815.33490298 0 23686.91376128 0 -2042.82178439 0 2387.28180950 0 1036
0.03250000 0.03246190 58806.77796055 0 1194.73706491 0 24744.87439770 0 -2133.76986045 0 -4723.15481486 0 1059
0.03350000 0.03345080 56301.22157734 0 969.68652680 0 27428.03087101 0 1622.54955125 0 -5753.04710787 0 1302
0.03450000 0.03451200 55302.49787870 0 3124.28896640 0 23805.16619035 0 2632.85490165 0 -4303.45834261 0 1339
0.03550000 0.03553350 54650.00577714 0 2600.65658108 0 23956.19270087 0 5766.82107995 0 -3541.79311834 0 1365
0.03650000 0.03647120 51178.61050000 0 160.14235555 0 16051.21711985 0 4097.28058217 0 -3601.74975723 0 1308
0.03750000 0.03744890 51321.77565990 0 186.56424426 0 19225.20975236 0 3384.32251477 0 -4318.20667927 0 1579
0.03850000 0.03847530 49180.49876322 0 3053.48144919 0 15553.51611925 0 1125.64575804 0 -6597.40045389 0 1662
0.03950000 0.03950240 48764.62224303 0 1416.10605501 0 15321.55091430 0 -1132.11199573 0 -3665.93602421 0 1683
0.04050000 0.04050350 45704.67455615 0 1896.51208424 0 13754.37405947 0 2193.41647425 0 -5400.31605612 0 1822
0.04150000 0.04152450 45351.46739444 0 3111.16826149 0 17167.41818481 0 -1039.83081176 0 -3024.37230724 0 1887
0.04250000 0.04250150 42529.13179817 0 684.51437217 0 15120.80966534 0 197.16710251 0 -2816.58905969 0 1920
0.04350000 0.04349210 43127.92312436 0 600.72787580 0 19243.36836506 0 2203.96839980 0 -7470.40897654 0 2005
0.04450000 0.04448520 42387.07387074 0 -41.80909852 0 16848.86739978 0 -149.92259974 0 -4798.05909226 0 2151
0.04550000 0.04548030 42075.38792710 0 1002.03875269 0 20770.46340405 0 -758.71777141 0 -2879.01482702 0 2274
0.04650000 0.04648670 43461.08937815 0 -507.43357411 0 19865.52229662 0 1149.22980990 0 -1832.60262538 0 2311
0.04750000 0.04749250 42807.37932086 0 -851.73747944 0 19099.76031216 0 3206.29060401 0 -1151.32247929 0 2568
0.04850000 0.04851840 43726.16083431 0 884.76068821 0 18676.35461110 0 2951.94823060 0 -3109.65135299 0 2493
0.04950000 0.04949480 42356.62497749 0 3216.68751701 0 18392.68164925 0 -481.77013965 0 -2919.74991003 0 2644
0.05050000 0.05050630 39635.37970681 0 2379.54225445 0 18518.79542893 0 10.71035945 0 2217.80880582 0 2829
0.05150000 0.05149060 36855.89400759 0 1800.42644946 0 17664.34412268 0 3926.47889951 0 1436.84451939 0 2784
0.05250000 0.05249300 38717.26253285 0 -1821.04311827 0 16331.67910750 0 5242.49113816 0 2408.72890267 0 3055
0.05350000 0.05348950 38332.27779891 0 -449.17653708 0 15255.33841188 0 5702.85625947 0 80.49402986 0 3009
0.05450000 0.05448610 38030.66767085 0 1348.96347731 0 11944.71329111 0 1665.43266527 0 -645.73134003 0 3336
0.05550000 0.05550870 35774.34931930 0 3239.18648105 0 12496.89012981 0 -1487.98758773 0 597.99301157 0 3349
0.05650000 0.05647670 33907.00173864 0 1379.24628568 0 10958.81134461 0 515.25284990 0 1564.24268875 0 3324
0.05750000 0.05747970 32316.24083194 0 971.95413893 0 10502.80871927 0 -183.11964401 0 477.30245658 0 3639
0.05850000 0.05849280 32559.38908496 0 -203.39417799 0 9111.41609326 0 859.35856061 0 -2499.84306361 0 3846
0.05950000 0.05951020 32728.46348494 0 -1162.93734803 0 10051.85507406 0 1628.15214761 0 -3252.27396898 0 3787
0.06050000 0.06049470 32706.98317479 0 736.26863284 0 9438.30433888 0 -494.27411607 0 -1314.03029250 0 3930
0.06150000 0.06148310 33895.59724407 0 284.69604467 0 9421.58512841 0 938.14811679 0 -3178.67622591 0 4083
0.06250000 0.06249100 32366.17701687 0 1161.49794580 0 10859.04969799 0 -214.96143573 0 -580.65485814 0 4303
0.06350000 0.06350600 31526.78407237 0 476.71673060 0 9642.79910596 0 2436.02218335 0 2230.66377494 0 4470
0.06450000 0.06451750 31441.41644802 0 -628.17063287 0 9675.71712765 0 2241.48143629 0 4034.57800672 0 4479
0.06550000 0.06550280 32793.45803163 0 -1069.98407394 0 8760.96594043 0 3571.38944258 0 2529.18472437 0 4636
0.06650000 0.06648880 32550.53122510 0 -43.97407019 0 7866.18922718 0 1290.65661481 0 1315.79079215 0 4653
0.06750000 0.06749660 32538.79456080 0 936.37875929 0 7399.46859143 0 -825.51821427 0 4039.88165031 0 5220
0.06850000 0.06852730 31484.26634507 0 538.67081689 0 6684.19640814 0 -1080.84381012 0 2419.00402010 0 5029
0.06950000 0.06949320 30461.29425507 0 1312.07049101 0 8460.38553858 0 -418.61359888 0 3232.88632822 0 5040
0.07050000 0.07048030 29367.79145598 0 1831.80541800 0 7505.26465507 0 -294.29021412 0 -572.24210574 0 5475
0.07150000 0.07148790 27784.89189991 0 1207.10485173 0 7569.04124603 0 297.21330787 0 811.25705990 0 5509
0.07250000 0.07249820 27203.70557018 0 509.44430830 0 7647.86512641 0 486.25996736 0 -745.60370989 0 5916
0.07350000 0.07351270 26643.00304136 0 548.91050288 0 8624.65454959 0 -128.54747668 0 447.93754393 0 5721
0.07450000 0.07449140 26113.52446854 0 724.56739997 0 7450.26841770 0 763.53312547 0 -1039.86181427 0 6028
0.07550000 0.07549160 26112.74940580 0 345.51300320 0 8293.55882053 0 -995.61348260 0 -191.07289493 0 6183
0.07650000 0.07648840 25620.47384436 0 340.47398817 0 9161.14190402 0 -933.76347616 0 441.48902196 0 6330
0.07750000 0.07749960 25727.43250211 0 437.11545366 0 9550.65521882 0 141.10792195 0 -466.97972816 0 6583
0.07850000 0.07848650 25565.88728301 0 163.84051204 0 10287.26377203 0 -603.31658535 0 -624.68506501 0 6549
0.07950000 0.07947320 25052.57430441 0 444.73099867 0 9421.15330774 0 -85.01175983 0 151.72738869 0 6828
0.08050000 0.08048110 25004.52041470 0 409.13458161 0 10702.55345900 0 32.20861783 0 1304.28664666 0 7147
0.08150000 0.08149960 24721.51179234 0 143.72652677 0 9820.34383443 0 1561.60747545 0 1808.92999492 0 7386
0.08250000 0.08250610 25055.12093912 0 -224.98631862 0 9469.10754653 0 2077.03526808 0 1196.82973430 0 7227
0.08350000 0.08350160 24752.62502508 0 468.17775370 0 9701.54886145 0 393.82487808 0 317.88866001 0 7798
0.08450000 0.08449610 24367.08667489 0 1006.45882476 0 9174.14081336 0 164.84034297 0 2143.51350629 0 7371
0.08550000 0.08548940 23333.04226008 0 468.67157939 0 9066.62853937 0 81.84607144 0 2683.66580024 0 8256
0.08650000 0.08650700 23390.61834913 0 497.09423720 0 8366.42579017 0 634.42096023 0 2454.52403812 0 8037
0.08750000 0.08749060 22917.16573989 0 -150.60244049 0 8344.72403352 0 1196.14325016 0 1286.32733581 0 8155
0.08850000 0.08849210 22477.04082835 0 471.80836901 0 8154.11396177 0 -373.04876779 0 403.84865374 0 8718
0.08950000 0.08949900 22341.07267958 0 998.01064092 0 7993.97492792 0 -703.77135950 0 39.35137458 0 8571
0.09050000 0.09049190 21311.01430170 0 946.62398144 0 7680.41776138 0 312.47650764 0 -620.17309265 0 8932
0.09150000 0.09150830 20483.80091450 0 475.10238564 0 6964.54767255 0 314.00338123 0 -109.93556300 0 9285
0.09250000 0.09250820 20425.78193245 0 155.64699167 0 7109.37368118 0 785.65895216 0 -1517.71677987 0 9204
0.09350000 0.09350330 20517.23933545 0 -76.64960796 0 6846.18452024 0 553.12352248 0 -1736.64985851 0 9349
0.09450000 0.09448040 19675.63192598 0 633.14653564 0 6281.09735080 0 849.67359810 0 -1245.17150446 0 9564
0.09550000 0.09549270 19232.40676349 0 883.13748540 0 6577.20453342 0 41.25094262 0 -671.17443523 0 10155
0.09650000 0.09649430 18693.73816107 0 944.37629950 0 6760.52901544 0 196.25031402 0 -246.58731711 0 9913
0.09750000 0.09749140 17892.98763018 0 600.21190547 0 6857.07968786 0 173.05600799 0 136.39775498 0 10476
0.09850000 0.09850240 17709.74065443 0 -66.22147100 0 6966.49640172 0 186.07263304 0 -718.76771623 0 10575
0.09950000 0.09950330 17498.36997364 0 331.63052234 0 7378.97371819 0 -452.29561098 0 39.64080515 0 10882
0.10050000 0.10051200 17338.81777301 0 557.41958451 0 7166.09720123 0 114.16009781 0 73.77456810 0 10875
0.10150000 0.10150300 17008.64104692 0 203.41410817 0 7041.17923262 0 693.12089025 0 367.54471512 0 11118
0.10250000 0.10250800 16681.12167878 0 -131.41853050 0 6385.68653103 0 1065.42006165 0 -450.96028861 0 11575
0.10350000 0.10349800 16770.91823306 0 124.36103067 0 6233.37563083 0 1328.08107270 0 -312.51968970 0 11364
0.10450000 0.10450100 16753.31323660 0 147.48225935 0 5120.27481681 0 855.41238405 0 -605.94183356 0 12093
0.10550000 0.10551000 16312.30253907 0 89.72535923 0 4525.85705892 0 666.42883681 0 -189.32678931 0 12067
0.10650000 0.10649700 16446.49911587 0 140.95955280 0 5190.68373033 0 212.74586353 0 669.64756164 0 12054
0.10750000 0.10749900 16211.21221348 0 268.15177692 0 4634.41013144 0 -162.21398752 0 169.96682936 0 12807
0.10850000 0.10850100 16018.55376163 0 297.52886913 0 5193.62896873 0 -83.89821613 0 302.98973973 0 12736
0.10950000 0.10950300 15680.51568492 0 366.56481438 0 5309.51192029 0 -598.57984479 0 -341.26455217 0 12933
0.11050000 0.11050200 15510.55549895 0 485.34982226 0 5262.03379146 0 -76.51485777 0 -331.74013836 0 13428
0.11150000 0.11150900 15218.35684699 0 5.63368745 0 5114.48399093 0 -581.86506324 0 -72.08327048 0 13453
0.11250000 0.11250000 15123.46702329 0 166.87654350 0 5230.45552108 0 179.08821055 0 -658.66160095 0 13668
0.11350000 0.11349100 15157.68050698 0 221.96689564 0 5133.47302799 0 -31.87467652 0 -848.79888444 0 13791
0.11450000 0.11448600 14869.35716870 0 297.35281917 0 5099.50313545 0 700.62349755 0 -1036.61762310 0 14205
0.11550000 0.11549300 14443.07266319 0 358.09670035 0 4845.29362994 0 -77.17188952 0 -1439.05898435 0 14776
0.11650000 0.11649800 14239.45260977 0 273.91492199 0 5231.82848936 0 278.75463517 0 -1452.61150993 0 14553
0.11750000 0.11747300 14261.37581291 0 94.42102146 0 5078.58751387 0 71.08310738 0 -724.29723524 0 14568
0.11850000 0.11849100 13903.96116777 0 139.05622016 0 4608.16872162 0 549.09541071 0 -136.87275771 0 16015
0.11950000 0.11950300 13963.30882879 0 -93.48673869 0 4710.90882361 0 934.66144171 0 -25.76341756 0 15270
0.12050000 0.12050700 14021.99215033 0 -78.22287459 0 3985.30616127 0 1646.28861566 0 298.18877969 0 15999
0.12150000 0.12150000 13804.31024440 0 154.48439757 0 3436.32922444 0 787.69404546 0 636.71846763 0 15670
0.12250000 0.12250700 13688.49372680 0 174.06469678 0 3240.41550910 0 580.52863364 0 410.10562449 0 16887
0.12350000 0.12352200 13434.27314896 0 -13.61120890 0 3148.06124779 0 189.62684931 0 1214.54545401 0 16407
0.12450000 0.12449800 13620.84182215 0 58.69904424 0 2902.58780656 0 211.90104515 0 1014.69884889 0 16306
0.12550000 0.12549900 13472.69411608 0 84.59001498 0 3296.07608596 0 -228.33901857 0 629.22803989 0 17523
0.12650000 0.12650100 13429.95494228 0 400.13499599 0 3709.64956259 0 -705.34362962 0 759.32121311 0 17154
0.12750000 0.12750600 13033.89788352 0 553.18552750 0 3935.91252026 0 -818.88478447 0 718.62709770 0 18007
0.12850000 0.12850300 12727.63737903 0 353.75745626 0 4349.81816663 0 -287.95130816 0 1010.88664746 0 17496
0.12950000 0.12949900 12548.59788672 0 43.78429054 0 4534.13915789 0 199.22876939 0 494.35051511 0 18405
0.13050000 0.13049000 12538.41134788 0 33.60804897 0 4440.64444712 0 20.60681444 0 1020.98017876 0 18100
0.13150000 0.13148800 12633.07972508 0 184.46603871 0 4125.49286580 0 363.54760586 0 207.27834953 0 19059
0.13250000 0.13249300 12501.98339923 0 123.34791294 0 4241.66369780 0 138.38745175 0 713.33563367 0 18957
0.13350000 0.13349100 12249.20222362 0 116.71891208 0 3922.55929653 0 210.25016152 0 581.08557157 0 19468
0.13450000 0.13450700 12263.26407614 0 223.42844252 0 3746.31003006 0 214.13322583 0 786.43069320 0 19953
0.13550000 0.13551000 11941.28087041 0 90.42059051 0 3950.68300157 0 206.63061853 0 713.17397773 0 19956
0.13650000 0.13649900 11999.07840597 0 4.97553739 0 3501.57843460 0 501.58627938 0 766.79946129 0 19723
0.13750000 0.13749600 12030.74525495 0 163.65892591 0 3487.64944998 0 -47.98291611 0 447.53340408 0 20946
0.13850000 0.13851100 11682.29919291 0 360.56804325 0 3436.29600747 0 236.61336691 0 864.02775999 0 20955
0.13950000 0.13949800 11639.00640286 0 199.94071988 0 3450.62359578 0 -112.27448089 0 616.31106575 0 20506
0.14050000 0.14048300 11333.74240761 0 14.82916463 0 3579.47223970 0 137.41862332 0 506.44702997 0 21447
0.14150000 0.14148400 11401.50503550 0 192.40489561 0 3387.61099524 0 -6.97669401 0 660.47635499 0 21771
0.14250000 0.14249400 11218.03661326 0 140.11362719 0 3650.91087943 0 -59.83251813 0 264.00740574 0 22470
0.14350000 0.14350900 11233.31642151 0 84.30755997 0 3648.71855911 0 110.83286420 0 1009.29112545 0 22519
0.14450000 0.14449900 11078.85749029 0 118.81822486 0 3840.15905523 0 148.87183612 0 815.99158600 0 22218
0.14550000 0.14550500 10936.37881452 0 262.86917075 0 3668.90340726 0 495.37691962 0 1233.76700989 0 23559
0.14650000 0.14650700 10786.49275345 0 205.59535616 0 3642.89451626 0 -96.87354141 0 836.87620507 0 23044
0.14750000 0.14750500 10525.52912980 0 226.82211007 0 3469.20295683 0 159.84229555 0 547.51206826 0 23649
0.14850000 0.14849900 10430.34035334 0 190.00109389 0 3640.02678413 0 -186.62182035 0 815.79671308 0 23640
0.14950000 0.14949500 10216.06872345 0 167.02269819 0 3130.16837088 0 269.87352343 0 172.38945403 0 24457
0.15050000 0.15050000 10160.03168754 0 51.75082825 0 3220.03135911 0 -185.03847790 0 32.07829657 0 24591
0.15150000 0.15149900 10083.03474075 0 144.96441269 0 3090.46301408 0 31.21720187 0 -194.88509637 0 25020
0.15250000 0.15250500 9933.95695939 0 279.54519916 0 3000.38965168 0 91.16664375 0 44.53034379 0 25297
0.15350000 0.15350100 9757.70769293 0 39.04522479 0 2957.91621368 0 434.75926293 0 136.10101667 0 25452
0.15450000 0.15450400 9646.34224990 0 32.95710699 0 2561.20588775 0 556.68991830 0 264.80682760 0 26061
0.15550000 0.15549900 9763.49851881 0 -19.09998176 0 2681.77243270 0 448.75025257 0 218.68505856 0 26128
0.15650000 0.15649500 9584.87977483 0 193.64056706 0 2415.97020310 0 -3.99892512 0 120.91421595 0 26331
0.15750000 0.15749700 9551.45242621 0 138.08074835 0 2316.24177346 0 83.74929336 0 248.75195661 0 27345
0.15850000 0.15849900 9381.56974651 0 99.00507466 0 2286.49043667 0 -163.16620746 0 81.26698886 0 26980
0.15950000 0.15949700 9370.48634937 0 88.69662953 0 2461.80962785 0 -167.77672351 0 -81.37483330 0 27777
0.16050000 0.16050000 9261.44609456 0 128.75452915 0 2192.20959084 0 108.17650275 0 -105.98562184 0 28224
0.16150000 0.16150500 9012.69524518 0 338.69245111 0 2410.40082372 0 -52.28606443 0 -214.22401889 0 28075
0.16250000 0.16249700 8896.85658293 0 216.79833441 0 2546.11430902 0 -238.04834021 0 -377.92834134 0 28590
0.16350000 0.16349900 8676.46195741 0 252.99597871 0 2734.44348186 0 -71.44738687 0 -345.21072873 0 29163
0.16450000 0.16449100 8422.35210283 0 184.60776447 0 2766.42035594 0 -133.12920469 0 -109.57681967 0 28996
0.16550000 0.16550500 8519.89928448 0 -125.36971946 0 2860.96693757 0 97.22840942 0 -13.51100436 0 30777
0.16650000 0.16650700 8610.11658710 0 -47.16400697 0 3026.65320615 0 332.58495674 0 -121.92844090 0 29211
0.16750000 0.16749900 8586.06749759 0 185.52455296 0 2819.52322577 0 307.45853003 0 -279.69356831 0 30922
0.16850000 0.16850800 8368.48524258 0 217.39513272 0 2565.07012911 0 189.34339779 0 140.68053022 0 30867
0.16950000 0.16949900 8253.36628144 0 90.62022452 0 2325.64217723 0 163.25035713 0 226.21645390 0 30852
0.17050000 0.17049200 8234.82013737 0 -79.36409911 0 2197.04819679 0 202.13525466 0 211.20459592 0 31257
0.17150000 0.17149500 8381.58380284 0 -92.92515038 0 2259.58468737 0 214.59826347 0 -31.29481887 0 32608
0.17250000 0.17250900 8336.50836851 0 89.47933217 0 2296.16764857 0 -138.48931713 0 -97.35585188 0 32361
0.17350000 0.17350400 8392.02500515 0 209.66000660 0 2246.37540386 0 -416.67594204 0 192.60530469 0 32508
0.17450000 0.17449800 8213.43947815 0 139.50022039 0 2618.25050522 0 -179.29969195 0 339.00911960 0 32791
0.17550000 0.17549800 8222.25304870 0 53.11360999 0 2797.19034661 0 -6.80031188 0 262.97657230 0 33633
0.17650000 0.17650100 8262.09127340 0 -19.31799583 0 2806.74576293 0 319.69566342 0 290.92644184 0 33984
0.17750000 0.17750300 8210.16207000 0 129.20738724 0 2976.88310609 0 138.48378097 0 584.63203721 0 34069
0.17850000 0.17849800 8043.14712244 0 294.11859309 0 2788.49857163 0 167.85533702 0 626.67919071 0 34536
