### header ###
fiducial parameters:
Omega_m = 0.31
Omega_nu = 0
Omega_de = 0.69
Omega_k = 0
H_0 = 100
w_de = -1
zeff = 0
beta = 0
fgrowth = 0
b_1 = 2
gamma = 0.55
Lx = 3500 Ly = 3500 Lz = 3500
nx = 700 ny = 700 nz = 700
xoffset = -685.467585 yoffset = -31.7331281 zoffset = 572.489161
bins = 400 dk = 0.001
kx_ny = 0.628318531 ky_ny = 0.628318531 kz_ny = 0.628318531
############################
A(data) = 8.02540593 (not used)
A(ran) = 8.02622573 (used)
Ngal = 477469
weighted Ngal = 0
Nran = 23820508
weighted Nran = 0
SN(data) = 3485.74457
SN(ran) = 69.911337
SN(data+ran) = 3555.6559
############################
13 columns: k_central k_mean P_0(k) sigma^{lin}_{P_0(k)} P^img_1(k) sigma^{lin}_{P_1(k)} P_2(k) sigma^{lin}_{P_2(k)} P^img_3(k) sigma^{lin}_{P_3(k)} P_4(k) sigma^{lin}_{P_4(k)} N_modes
### header ###
0.00050000 0 0 0 0 0 0 0 0 0 0 0 0
0.00150000 0.00179520 14571.62235433 0 -27872.58471247 0 3342.67950113 0 -79493.64531222 0 -9102.72431828 0 3
0.00250000 0.00253879 26768.23103506 0 -32200.09214459 0 -36617.06396125 0 1280.51436528 0 585.73041184 0 6
0.00350000 0.00331552 34446.55612705 0 -18465.86971630 0 -14921.95071159 0 -30487.64638814 0 -50553.35631749 0 7
0.00450000 0.00420575 46068.62187294 0 -11587.29864596 0 -30215.59936735 0 -9476.12740047 0 14351.17236719 0 24
0.00550000 0.00557378 57289.42656741 0 -7057.78771985 0 -14479.83278158 0 -35937.99828012 0 -25476.75506822 0 45
0.00650000 0.00659388 54134.03544059 0 7988.32804226 0 -14135.26203323 0 -72145.82911607 0 -14633.51665007 0 40
0.00750000 0.00754703 52204.46139444 0 12446.28960539 0 11095.02308452 0 -30858.12637657 0 -2679.65761866 0 57
0.00850000 0.00846663 40906.81476574 0 1509.97722482 0 13522.07668477 0 -23934.49094423 0 10299.29938911 0 75
0.00950000 0.00948925 47386.44997286 0 -7124.00022227 0 15666.45383240 0 15239.39426414 0 -3287.45074493 0 112
0.01050000 0.01054430 56807.33754480 0 -14179.77277900 0 8353.49331478 0 25957.73685834 0 -12974.21805275 0 105
0.01150000 0.01145670 62283.82012335 0 -9230.68717621 0 -11704.88673554 0 24538.37553984 0 381.65307141 0 144
0.01250000 0.01249090 68827.56409117 0 -3505.74162873 0 -16225.60623574 0 15365.95093682 0 9130.73730007 0 169
0.01350000 0.01339930 63538.42524855 0 1014.44639988 0 -9925.26518441 0 -1200.88220518 0 -2724.34552163 0 180
0.01450000 0.01448870 64386.45460641 0 5061.12645763 0 -13962.86593580 0 -2009.82625643 0 19297.95492642 0 267
0.01550000 0.01550050 62818.50268885 0 -215.10094702 0 425.97226596 0 -4549.58505101 0 23064.98127622 0 238
0.01650000 0.01653350 69397.01375660 0 -7838.65235536 0 -2374.37147876 0 -3874.64934704 0 10731.89511977 0 315
0.01750000 0.01747870 81762.91828380 0 -13141.18871101 0 14950.18513988 0 4935.61058348 0 2361.71581149 0 297
0.01850000 0.01844180 85177.18036488 0 -2265.49730882 0 19692.46185971 0 -25083.46609066 0 5949.48122248 0 388
0.01950000 0.01947590 91504.01748951 0 6276.01515371 0 26525.96856803 0 -11155.69942453 0 -697.90302734 0 399
0.02050000 0.02045430 86581.48332163 0 3956.57347837 0 32419.54562250 0 -10029.03501261 0 1676.48284544 0 462
0.02150000 0.02154770 81890.36074247 0 8009.35438709 0 37727.17524757 0 -947.81425636 0 -3178.58764731 0 571
0.02250000 0.02255340 79681.65338764 0 7417.43897461 0 32044.96887389 0 17959.31085584 0 771.74768325 0 510
0.02350000 0.02348930 69987.61156242 0 1221.84211606 0 16896.25695001 0 18541.38297156 0 -4296.20596986 0 555
0.02450000 0.02439640 69598.41934505 0 1228.91733162 0 12598.64479490 0 19118.91543410 0 -2092.44794423 0 592
0.02550000 0.02547300 71645.58148077 0 -2030.09968317 0 5897.92847812 0 13926.54871040 0 -9083.15952033 0 837
0.02650000 0.02652900 66981.69682066 0 3026.66427848 0 -804.14087674 0 -1124.27278976 0 -2699.04525942 0 723
0.02750000 0.02749970 64799.67376865 0 5535.03303219 0 -3374.61208590 0 -8200.67308763 0 1881.59766271 0 826
0.02850000 0.02848090 62397.86506898 0 4896.18203481 0 8880.93457984 0 -14799.04790611 0 2667.15696394 0 831
0.02950000 0.02946900 57745.16345694 0 3577.09168986 0 14264.14389412 0 -10346.42320354 0 -982.45513179 0 996
0.03050000 0.03053250 61250.66149453 0 -817.72661930 0 19036.86950719 0 -5238.79298167 0 -3235.41081828 0 1041
0.03150000 0.03150510 56669.81927055 0 2344.25475525 0 18541.27224831 0 -2469.40524268 0 -3104.44736033 0 1036
0.03250000 0.03246190 59165.74273117 0 -218.20894860 0 24841.86796311 0 7999.88754937 0 -6503.75073058 0 1059
0.03350000 0.03345080 56609.69654679 0 358.44104966 0 14010.25548603 0 5362.32690967 0 -6157.78486929 0 1302
0.03450000 0.03451200 55456.07102393 0 1480.03765851 0 16991.36822020 0 5172.28152648 0 -16069.15428605 0 1339
0.03550000 0.03553350 53055.59100325 0 1900.02201120 0 15021.82308146 0 -899.97627698 0 -6010.77761267 0 1365
0.03650000 0.03647120 50254.18210089 0 5143.47133731 0 14674.37352865 0 -2309.79768042 0 -7032.52067461 0 1308
0.03750000 0.03744890 48137.48576531 0 2378.47931127 0 15336.94144580 0 -2099.02490517 0 862.92274197 0 1579
0.03850000 0.03847530 48044.81040657 0 -119.82802088 0 15909.49136217 0 3265.56075876 0 -1632.78037938 0 1662
0.03950000 0.03950240 47319.68385420 0 -33.99436238 0 17809.94519404 0 3788.42915367 0 -1440.14407219 0 1683
0.04050000 0.04050350 48824.96641330 0 570.16936654 0 16834.14120777 0 3047.73491261 0 -2406.07154472 0 1822
0.04150000 0.04152450 48611.93488378 0 1646.75365330 0 18362.89709548 0 2484.51896606 0 705.95592918 0 1887
0.04250000 0.04250150 44663.54385346 0 3686.06551073 0 17521.84330226 0 -1598.37866617 0 3432.55356168 0 1920
0.04350000 0.04349210 43944.50707973 0 1016.12607156 0 20342.29660331 0 2121.46850758 0 6278.04138915 0 2005
0.04450000 0.04448520 41501.17716200 0 734.98424316 0 20493.98745333 0 4051.76225484 0 5308.26074758 0 2151
0.04550000 0.04548030 41730.26356250 0 1083.00180623 0 18804.46140925 0 4981.59394846 0 2350.42204018 0 2274
0.04650000 0.04648670 41055.51608805 0 -214.71563012 0 18408.62579698 0 2215.99294455 0 7356.95086413 0 2311
0.04750000 0.04749250 41361.00152980 0 281.43192331 0 15576.21438513 0 2661.20005319 0 7575.27496490 0 2568
0.04850000 0.04851840 41117.96400003 0 -485.62330869 0 14825.84293217 0 1342.22043149 0 7676.23242260 0 2493
0.04950000 0.04949480 42480.52429221 0 -535.42994742 0 15089.03209311 0 2436.97440328 0 10039.54264886 0 2644
0.05050000 0.05050630 41825.48555594 0 -280.20289526 0 15377.46615463 0 2410.42296837 0 8103.15912295 0 2829
0.05150000 0.05149060 41355.24392089 0 1177.15421309 0 13402.49557673 0 1872.58479030 0 6811.81602400 0 2784
0.05250000 0.05249300 41408.28035677 0 1063.19784606 0 14254.28952503 0 -2931.39799574 0 5434.97243281 0 3055
0.05350000 0.05348950 39816.74438734 0 1931.68886019 0 15927.20708188 0 -1833.24482022 0 8977.02021462 0 3009
0.05450000 0.05448610 39466.74819982 0 1176.81097103 0 17075.73933532 0 -815.16337610 0 6951.39375067 0 3336
0.05550000 0.05550870 38697.66451792 0 1066.65241140 0 17092.34782254 0 2705.76616058 0 6579.37470909 0 3349
0.05650000 0.05647670 37249.18298515 0 1307.19866809 0 16846.65293482 0 2587.90126289 0 7063.85535385 0 3324
0.05750000 0.05747970 36824.78077485 0 35.21774355 0 16001.17021167 0 3550.61776122 0 4280.62720884 0 3639
0.05850000 0.05849280 36761.77924663 0 256.20030951 0 15602.12362520 0 3126.30412952 0 5533.73757019 0 3846
0.05950000 0.05951020 35347.28975105 0 752.74425217 0 13527.28067744 0 2268.21002840 0 4000.30916140 0 3787
0.06050000 0.06049470 35032.50355645 0 8.83554912 0 10685.07025811 0 2696.58720331 0 5526.18624466 0 3930
0.06150000 0.06148310 35249.74256939 0 -243.64650763 0 8953.69082622 0 1241.29619077 0 1544.79968637 0 4083
0.06250000 0.06249100 35025.86016156 0 208.67567693 0 7948.67804708 0 1319.82111838 0 867.27195116 0 4303
0.06350000 0.06350600 34297.96552798 0 671.90299420 0 8253.87560838 0 -1121.93652922 0 -1390.70614187 0 4470
0.06450000 0.06451750 33623.10733029 0 1303.81053669 0 9168.01781774 0 -1940.75709421 0 89.15081630 0 4479
0.06550000 0.06550280 32483.21149021 0 1072.39451906 0 9760.17682136 0 -1950.67789725 0 -1241.87195166 0 4636
0.06650000 0.06648880 31966.02319793 0 1924.59149998 0 11142.41263475 0 -1860.21700348 0 2661.79795873 0 4653
0.06750000 0.06749660 31203.25074117 0 1248.84751630 0 13225.00620989 0 -503.52947238 0 1075.56341842 0 5220
0.06850000 0.06852730 29797.84055194 0 679.43771124 0 13276.38179705 0 1018.11244663 0 2077.51137805 0 5029
0.06950000 0.06949320 30405.48973799 0 -364.02814476 0 12498.55097854 0 917.15720340 0 1519.38870091 0 5040
0.07050000 0.07048030 30344.37050499 0 -50.10071968 0 12739.81693633 0 1283.51496530 0 621.70882410 0 5475
0.07150000 0.07148790 30302.84928692 0 -196.06540619 0 12138.03608244 0 2651.88822801 0 60.89402191 0 5509
0.07250000 0.07249820 30233.31508706 0 295.09074321 0 10603.30113933 0 1156.42682103 0 -342.04736553 0 5916
0.07350000 0.07351270 29099.84119537 0 556.20937940 0 9878.81678179 0 434.62750227 0 -1247.80671776 0 5721
0.07450000 0.07449140 28593.39305817 0 1425.82755620 0 9716.24183648 0 -468.87309570 0 -1897.25393000 0 6028
0.07550000 0.07549160 26943.17376720 0 937.77940838 0 9956.34520017 0 282.65209351 0 -2156.61206655 0 6183
0.07650000 0.07648840 26251.92852877 0 675.85913586 0 8521.32761438 0 700.65339283 0 -746.14403934 0 6330
0.07750000 0.07749960 26381.58545240 0 -274.66451838 0 9432.86782740 0 895.30929207 0 -1501.79477678 0 6583
0.07850000 0.07848650 26740.77166951 0 75.82992375 0 8606.04197157 0 288.70201179 0 -903.57146085 0 6549
0.07950000 0.07947320 25629.33170422 0 1118.91378455 0 9328.73261248 0 681.54588189 0 728.42610517 0 6828
0.08050000 0.08048110 24984.25806028 0 1016.42613156 0 8848.79162089 0 930.45949444 0 2621.45040709 0 7147
0.08150000 0.08149960 24380.70563442 0 416.68258544 0 8094.41198635 0 770.93386738 0 159.59095377 0 7386
0.08250000 0.08250610 24361.88268223 0 264.82897224 0 8097.85547937 0 719.71772170 0 656.00424300 0 7227
0.08350000 0.08350160 23616.49377544 0 932.50455283 0 7718.97159640 0 1001.89038354 0 1270.82608106 0 7798
0.08450000 0.08449610 23202.49955047 0 752.65456634 0 7372.33032330 0 -73.28129603 0 566.61625750 0 7371
0.08550000 0.08548940 22473.05479141 0 567.17651714 0 7206.19008939 0 -216.45287788 0 600.93492828 0 8256
0.08650000 0.08650700 22523.32314609 0 29.37698149 0 7431.52297178 0 49.26974170 0 -295.63439436 0 8037
0.08750000 0.08749060 21646.61646695 0 452.64438921 0 7240.31499449 0 -176.58143621 0 199.35388666 0 8155
0.08850000 0.08849210 21558.14859165 0 353.19387493 0 7492.33217968 0 577.84359487 0 -151.73624655 0 8718
0.08950000 0.08949900 21412.76896678 0 -22.92248046 0 7221.01593233 0 864.15509173 0 -74.42639586 0 8571
0.09050000 0.09049190 21373.90510667 0 219.80225614 0 7269.91131873 0 1160.10283287 0 447.17355352 0 8932
0.09150000 0.09150830 21156.66609372 0 476.07453576 0 6317.44779318 0 974.68346700 0 676.18134051 0 9285
0.09250000 0.09250820 20832.24697654 0 126.28097179 0 6170.63983841 0 960.75669684 0 666.52073711 0 9204
0.09350000 0.09350330 20482.58295877 0 266.70683853 0 5994.15805312 0 -746.69322665 0 618.42255810 0 9349
0.09450000 0.09448040 20307.08661039 0 412.93681795 0 6631.19318924 0 -514.07586177 0 -253.29493148 0 9564
0.09550000 0.09549270 19975.80265182 0 794.23668219 0 7225.44486225 0 -144.39418796 0 1873.22698514 0 10155
0.09650000 0.09649430 19513.64381389 0 494.52877954 0 6895.03561734 0 -340.28797312 0 1339.14232519 0 9913
0.09750000 0.09749140 19065.76827497 0 219.36932824 0 7099.14285305 0 789.02161720 0 1413.57049262 0 10476
0.09850000 0.09850240 18922.16022207 0 362.35733094 0 6652.55170381 0 908.84410193 0 1118.48196388 0 10575
0.09950000 0.09950330 18656.86731942 0 390.73680669 0 6579.91725300 0 228.16407584 0 985.78900879 0 10882
0.10050000 0.10051200 18125.06355838 0 143.81289091 0 6800.25651689 0 87.85114681 0 1069.59322088 0 10875
0.10150000 0.10150300 17626.69821829 0 747.96875847 0 6719.62784756 0 257.12263417 0 564.16816648 0 11118
0.10250000 0.10250800 17229.20175730 0 296.09721753 0 5379.44472384 0 1051.75349113 0 370.30283123 0 11575
0.10350000 0.10349800 16519.13356668 0 161.77995239 0 5179.31245274 0 980.22516557 0 727.59789527 0 11364
0.10450000 0.10450100 16851.52475774 0 255.80945645 0 4621.17870328 0 730.79226098 0 321.50598853 0 12093
0.10550000 0.10551000 16338.65467214 0 343.30075270 0 5339.73936704 0 243.14271686 0 1655.30148806 0 12067
0.10650000 0.10649700 16150.20370373 0 244.74931119 0 4605.21241090 0 76.18545610 0 1210.31582593 0 12054
0.10750000 0.10749900 16025.52932627 0 158.42503797 0 4636.90140453 0 -89.93971944 0 1958.05206558 0 12807
0.10850000 0.10850100 15684.83389160 0 286.69017037 0 4996.51944231 0 52.56851943 0 1554.78692336 0 12736
0.10950000 0.10950300 15653.27776586 0 277.20561693 0 4946.51682343 0 413.46386061 0 957.83692478 0 12933
0.11050000 0.11050200 15321.55091430 0 196.48726177 0 4693.37026110 0 242.62453205 0 1755.37315977 0 13428
0.11150000 0.11150900 15254.12045615 0 94.94573894 0 4155.49886606 0 712.04460060 0 692.55841615 0 13453
0.11250000 0.11250000 14925.05096254 0 209.01891900 0 3864.45173588 0 462.98483336 0 1019.49870170 0 13668
0.11350000 0.11349100 15107.85504530 0 -35.03471802 0 3658.35148170 0 -135.22851748 0 732.85171340 0 13791
0.11450000 0.11448600 15231.97580652 0 7.11972630 0 4136.24409320 0 358.41669054 0 970.51916563 0 14205
0.11550000 0.11549300 15139.41117103 0 148.80097324 0 3729.90084468 0 -238.70935800 0 1098.82194393 0 14776
0.11650000 0.11649800 14780.55712366 0 544.75505938 0 4102.88317852 0 258.82887943 0 1474.31326658 0 14553
0.11750000 0.11747300 14296.47508259 0 282.29777911 0 3932.79012466 0 219.74468005 0 1534.09274827 0 14568
0.11850000 0.11849100 13986.78215741 0 368.58108473 0 3644.23426756 0 959.86980362 0 817.12649929 0 16015
0.11950000 0.11950300 13686.38998508 0 95.56213526 0 3217.16362698 0 161.99696996 0 753.78283624 0 15270
0.12050000 0.12050700 13748.83789706 0 246.11674330 0 3571.10156213 0 -63.82110170 0 112.80595248 0 15999
0.12150000 0.12150000 13254.79076365 0 327.27799145 0 3429.42009375 0 -403.90844429 0 650.98183646 0 15670
0.12250000 0.12250700 13313.91697818 0 -103.48360860 0 3159.80898442 0 -122.70793257 0 573.16996656 0 16887
0.12350000 0.12352200 13345.69455041 0 -251.45803279 0 3509.81624426 0 50.18819104 0 666.75214870 0 16407
0.12450000 0.12449800 13784.04788998 0 113.04954363 0 4023.01849961 0 -90.86459073 0 0.05678375 0 16306
0.12550000 0.12549900 13659.37351252 0 73.52975900 0 3847.86539330 0 344.11456857 0 806.80044917 0 17523
0.12650000 0.12650100 13326.09653548 0 388.30200246 0 3656.87886250 0 98.55930286 0 748.34411029 0 17154
0.12750000 0.12750600 13109.07896904 0 462.77113749 0 3816.90717311 0 -41.19004483 0 680.25374158 0 18007
0.12850000 0.12850300 12931.92177194 0 301.02661654 0 3774.82126647 0 228.27037016 0 580.56517231 0 17496
0.12950000 0.12949900 12501.54050624 0 165.64972991 0 3455.82758845 0 187.79880848 0 774.33750003 0 18405
0.13050000 0.13049000 12333.68406199 0 233.56737035 0 3336.04717856 0 211.80250146 0 524.35983706 0 18100
0.13150000 0.13148800 12276.88303567 0 183.96667686 0 3193.44670722 0 103.55480365 0 500.56430380 0 19059
0.13250000 0.13249300 12060.86197846 0 78.63996907 0 2985.23163900 0 165.13154511 0 95.04550058 0 18957
0.13350000 0.13349100 11960.43599235 0 152.39504987 0 2781.48979002 0 223.65763964 0 113.29202754 0 19468
0.13450000 0.13450700 11977.15520283 0 158.52025996 0 2801.37568539 0 -231.25879063 0 47.75604418 0 19953
0.13550000 0.13551000 11756.37304594 0 192.38164372 0 3147.89516292 0 -62.27164057 0 139.33413552 0 19956
0.13650000 0.13649900 11801.65885445 0 53.34778966 0 3114.61175451 0 -241.98898061 0 312.61823339 0 19723
0.13750000 0.13749600 11692.70717824 0 206.78120215 0 3089.75438529 0 101.27213317 0 579.39261311 0 20946
0.13850000 0.13851100 11648.08570922 0 36.89730450 0 3240.90269139 0 -11.30672594 0 224.39173477 0 20955
0.13950000 0.13949800 11524.62928749 0 228.79519836 0 3620.25161200 0 24.35623580 0 147.49776061 0 20506
0.14050000 0.14048300 11348.80076937 0 248.02339764 0 3262.92554546 0 -35.33488875 0 -73.37186764 0 21447
0.14150000 0.14148400 11040.82405454 0 249.38529359 0 3442.00932707 0 166.57869797 0 531.93441447 0 21771
0.14250000 0.14249400 11052.11782585 0 -72.25732743 0 3352.01347095 0 211.97301526 0 271.10919488 0 22470
0.14350000 0.14350900 11122.70389657 0 -275.54698267 0 3109.31918325 0 519.00858248 0 182.79411766 0 22519
0.14450000 0.14449900 11248.70695301 0 39.57780362 0 3205.20551618 0 56.33089541 0 269.30662040 0 22218
0.14550000 0.14550500 11202.53535851 0 422.84876313 0 3450.57930648 0 -93.50788684 0 145.35083682 0 23559
0.14650000 0.14650700 10809.65605697 0 542.45865921 0 3554.70344908 0 -210.46385739 0 542.62695855 0 23044
0.14750000 0.14750500 10489.57729112 0 327.65777220 0 3420.47365530 0 -189.24153241 0 289.92661091 0 23649
0.14850000 0.14849900 10202.47190857 0 128.67480841 0 3586.80211873 0 158.06075848 0 318.00602665 0 23640
0.14950000 0.14949500 10274.74097266 0 25.70650581 0 3624.04941942 0 178.05848434 0 293.25938068 0 24457
0.15050000 0.15050000 10226.14453903 0 27.31542533 0 3426.65201255 0 434.78583651 0 7.81084975 0 24591
0.15150000 0.15149900 10146.26878779 0 157.11407471 0 3019.09080830 0 301.39421773 0 138.26344171 0 25020
0.15250000 0.15250500 10002.16248027 0 222.84271653 0 2673.68963558 0 145.75386945 0 -61.86395757 0 25297
0.15350000 0.15350100 9802.17414940 0 207.99362172 0 2868.91686678 0 324.78671837 0 575.75313994 0 25452
0.15450000 0.15450400 9576.19907218 0 112.95653610 0 2673.63427396 0 51.94215802 0 603.60557302 0 26061
0.15550000 0.15549900 9555.94779008 0 113.64080578 0 2788.46535465 0 247.40666914 0 353.34778024 0 26128
0.15650000 0.15649500 9259.96240303 0 152.21457098 0 2904.27079993 0 -28.87551589 0 383.49107733 0 26331
0.15750000 0.15749700 9297.20970372 0 204.55898656 0 2820.65260290 0 16.96933429 0 626.51864200 0 27345
0.15850000 0.15849900 9075.44210993 0 90.44207082 0 2948.47152061 0 -175.98353067 0 560.44011472 0 26980
0.15950000 0.15949700 9142.14179464 0 42.79807857 0 2909.37514167 0 -80.06907403 0 757.64154144 0 27777
0.16050000 0.16050000 9064.46943603 0 18.50694804 0 3304.35818493 0 37.27453861 0 698.34592033 0 28224
0.16150000 0.16150500 9114.50527189 0 84.92838523 0 3132.69286094 0 230.14823645 0 802.10467621 0 28075
0.16250000 0.16249700 9050.71760861 0 137.75632923 0 3158.44708847 0 78.13473889 0 772.70765382 0 28590
0.16350000 0.16349900 8945.04334054 0 201.40891015 0 2987.80041836 0 345.68462423 0 1184.88269582 0 29163
0.16450000 0.16449100 8912.10317420 0 -38.90538133 0 2969.22105732 0 425.76964241 0 1213.33857060 0 28996
0.16550000 0.16550500 8852.70015155 0 13.11162560 0 2881.68325730 0 417.71452611 0 1267.28293712 0 30777
0.16650000 0.16650700 8890.62286406 0 23.33868915 0 2564.09576453 0 248.56815602 0 1162.98163733 0 29211
0.16750000 0.16749900 8808.61015412 0 183.22593833 0 2680.01193305 0 -43.22569175 0 1049.15260203 0 30922
0.16850000 0.16850800 8633.65634966 0 285.80327715 0 2541.99540419 0 -84.98164311 0 1141.50132718 0 30867
0.16950000 0.16949900 8571.07556979 0 11.91570380 0 2578.53407609 0 56.85572360 0 1076.28422676 0 30852
0.17050000 0.17049200 8554.55566116 0 -61.35717726 0 2189.58544986 0 143.79074626 0 942.79406429 0 31257
0.17150000 0.17149500 8552.48513642 0 -6.74086457 0 2277.05681593 0 381.55563495 0 581.52514287 0 32608
0.17250000 0.17250900 8567.78708932 0 19.91734078 0 1953.25774893 0 169.08104338 0 501.65271333 0 32361
0.17350000 0.17350400 8499.72550866 0 146.10818384 0 1984.89138094 0 51.55971992 0 283.87890710 0 32508
0.17450000 0.17449800 8206.90680650 0 292.51310599 0 1798.93168561 0 -135.29052249 0 689.04073856 0 32791
0.17550000 0.17549800 8146.42976834 0 173.29406297 0 1993.68280685 0 -96.07666619 0 437.88830193 0 33633
0.17650000 0.17650100 8109.54785437 0 -20.89757369 0 2019.85778272 0 -120.45250000 0 296.63090359 0 33984
0.17750000 0.17750300 8072.17875811 0 86.90103062 0 2044.99196006 0 17.04628695 0 89.48774714 0 34069
0.17850000 0.17849800 8062.30224437 0 96.79083114 0 2231.12881258 0 -39.24009771 0 -18.88949686 0 34536
