### header ###
fiducial parameters:
Omega_m = 0.31
Omega_nu = 0
Omega_de = 0.69
Omega_k = 0
H_0 = 100
w_de = -1
zeff = 0
beta = 0
fgrowth = 0
b_1 = 2
gamma = 0.55
Lx = 3500 Ly = 3500 Lz = 3500
nx = 700 ny = 700 nz = 700
xoffset = -685.467585 yoffset = -31.7331281 zoffset = 572.489161
bins = 400 dk = 0.001
kx_ny = 0.628318531 ky_ny = 0.628318531 kz_ny = 0.628318531
############################
A(data) = 8.03257584 (not used)
A(ran) = 8.02946589 (used)
Ngal = 477826
weighted Ngal = 0
Nran = 23820508
weighted Nran = 0
SN(data) = 3489.16501
SN(ran) = 69.9395599
SN(data+ran) = 3559.10457
############################
13 columns: k_central k_mean P_0(k) sigma^{lin}_{P_0(k)} P^img_1(k) sigma^{lin}_{P_1(k)} P_2(k) sigma^{lin}_{P_2(k)} P^img_3(k) sigma^{lin}_{P_3(k)} P_4(k) sigma^{lin}_{P_4(k)} N_modes
### header ###
0.00050000 0 0 0 0 0 0 0 0 0 0 0 0
0.00150000 0.00179520 13552.30413153 0 -19663.00947569 0 -8123.57648992 0 -27713.80757458 0 35711.23706784 0 3
0.00250000 0.00253879 22496.74956653 0 -17764.88083203 0 -4597.07425215 0 -34871.17978384 0 -54589.44016038 0 6
0.00350000 0.00331552 22562.85134569 0 -532.60871905 0 -4944.74525146 0 21782.58461572 0 52197.37510656 0 7
0.00450000 0.00420575 29088.87959380 0 -2620.27674066 0 -558.58550031 0 -1697.12165890 0 16173.67703234 0 24
0.00550000 0.00557378 30588.29382074 0 -11998.41406648 0 -8480.40430185 0 13530.38092839 0 7742.64422686 0 45
0.00650000 0.00659388 56333.22059607 0 -20701.92571342 0 -13517.53703160 0 6223.64305731 0 29961.37878951 0 40
0.00750000 0.00754703 65502.65567138 0 -14302.45413799 0 -10987.78761866 0 1463.07485689 0 34628.80659356 0 57
0.00850000 0.00846663 63567.10256983 0 4643.84375219 0 -17164.09648737 0 5045.97951728 0 28543.23542674 0 75
0.00950000 0.00948925 66636.90462580 0 -3981.51942619 0 -7517.58815259 0 -6421.39477857 0 7778.20853418 0 112
0.01050000 0.01054430 71083.32882648 0 7692.79662052 0 -455.70810149 0 -10237.81476939 0 2023.91025360 0 105
0.01150000 0.01145670 69824.29477135 0 -1084.74237569 0 9911.30298281 0 -29426.36405428 0 -15311.69654521 0 144
0.01250000 0.01249090 68030.02453449 0 4339.15551783 0 26716.85544790 0 -19203.39727247 0 -6954.07325327 0 169
0.01350000 0.01339930 66909.28381634 0 -4502.35051333 0 26718.07340363 0 -16781.65838813 0 5693.58872359 0 180
0.01450000 0.01448870 82538.42391410 0 -6368.26976409 0 22378.94003046 0 -9716.83974202 0 -37155.51111718 0 267
0.01550000 0.01550050 93787.57376010 0 -3188.81847545 0 23283.21679839 0 -21576.97154384 0 -45484.99963175 0 238
0.01650000 0.01653350 91365.94559902 0 -2907.49284645 0 17923.54724668 0 -4510.00148978 0 -37533.85245623 0 315
0.01750000 0.01747870 88577.60203994 0 2541.16497983 0 26994.10646136 0 -11076.97519507 0 -50378.96720159 0 297
0.01850000 0.01844180 90561.31975445 0 2347.31071690 0 21253.77038238 0 -156.90370054 0 -46463.35025273 0 388
0.01950000 0.01947590 80745.92524921 0 8001.98021876 0 21256.75991009 0 15427.40233956 0 -51663.79977355 0 399
0.02050000 0.02045430 73853.29232636 0 6159.46786266 0 8413.28386880 0 7334.93908239 0 -29972.89400732 0 462
0.02150000 0.02154770 69784.10223226 0 2545.42782488 0 5854.13743347 0 1657.06198771 0 -24469.94857246 0 571
0.02250000 0.02255340 74607.20692326 0 -990.27994374 0 12192.40119730 0 -1009.25237231 0 -18057.52237699 0 510
0.02350000 0.02348930 72004.65697464 0 -2909.55229887 0 11554.19239475 0 2818.96960953 0 -92.40707630 0 555
0.02450000 0.02439640 75018.32234377 0 -38.72257725 0 16109.12537865 0 -4901.17565330 0 1744.78801725 0 592
0.02550000 0.02547300 76611.29771543 0 -1056.59431154 0 22277.96042811 0 -1821.96212123 0 881.79219793 0 837
0.02650000 0.02652900 80331.26668475 0 415.48234542 0 32446.89426480 0 7325.02935167 0 8094.69986679 0 723
0.02750000 0.02749970 74173.50396011 0 8601.74590954 0 26640.23496016 0 -4246.41372515 0 -1837.04262764 0 826
0.02850000 0.02848090 68763.34460722 0 10532.53791141 0 28075.65114965 0 3486.01074590 0 -209.60353775 0 831
0.02950000 0.02946900 60085.29930736 0 7370.73590852 0 26354.56897984 0 1009.96100110 0 -1148.70941064 0 996
0.03050000 0.03053250 53996.07427335 0 5062.16725616 0 23673.29480175 0 -3045.44294137 0 -13301.62669763 0 1041
0.03150000 0.03150510 51388.76322505 0 542.78972172 0 24254.14896174 0 1181.74922789 0 -13360.97435866 0 1036
0.03250000 0.03246190 50184.53717778 0 854.20328618 0 22665.27035027 0 2553.32239248 0 -15582.63633352 0 1059
0.03350000 0.03345080 52185.85988875 0 -4307.77654929 0 20422.12806526 0 1876.52653794 0 -12943.99060599 0 1302
0.03450000 0.03451200 54715.66466331 0 -4690.75719245 0 17302.61127085 0 5291.99550242 0 -16465.43279131 0 1339
0.03550000 0.03553350 60350.03859378 0 556.59469631 0 22513.91166999 0 4960.65618222 0 -5282.61724330 0 1365
0.03650000 0.03647120 56279.63054395 0 2840.64922152 0 20313.84072853 0 904.12839879 0 -1221.99712861 0 1308
0.03750000 0.03744890 56638.70603781 0 3412.44621981 0 22110.54687685 0 5366.76691192 0 10261.57597845 0 1579
0.03850000 0.03847530 52593.43216532 0 2168.45945411 0 23133.85113659 0 2939.41435891 0 8147.86917057 0 1662
0.03950000 0.03950240 49836.53400873 0 2590.00500460 0 23256.53249558 0 4583.12312288 0 6597.89870851 0 1683
0.04050000 0.04050350 48207.79502790 0 2297.57383382 0 23906.58868568 0 -1943.15978870 0 9866.31612707 0 1822
0.04150000 0.04152450 48494.01462447 0 1426.08221967 0 24975.73237017 0 117.36664308 0 7912.87014862 0 1887
0.04250000 0.04250150 46248.54715124 0 1148.94192946 0 27148.45466934 0 677.84218924 0 11360.86960342 0 1920
0.04350000 0.04349210 44687.79224481 0 2226.33449593 0 22706.90229158 0 4876.51758593 0 5592.59804892 0 2005
0.04450000 0.04448520 44707.72242948 0 1791.12569661 0 23858.97768896 0 865.57677823 0 6244.29294310 0 2151
0.04550000 0.04548030 41944.51304774 0 1418.77448529 0 20575.25831750 0 4652.35836997 0 2973.02993705 0 2274
0.04650000 0.04648670 41173.21490087 0 1105.55834635 0 20060.28449018 0 4027.08204282 0 2965.94364917 0 2311
0.04750000 0.04749250 40712.93835816 0 -1132.10092341 0 15892.77215169 0 4936.79532224 0 697.37155575 0 2568
0.04850000 0.04851840 41669.58722249 0 142.50857104 0 14542.61286331 0 513.09928272 0 -2353.57765275 0 2493
0.04950000 0.04949480 40181.35604362 0 2657.42439042 0 13303.17682311 0 849.99137382 0 2234.05190633 0 2644
0.05050000 0.05050630 37356.47381264 0 2400.98934762 0 11883.15116512 0 -1087.76512037 0 558.99185463 0 2829
0.05150000 0.05149060 37023.19683560 0 -188.55394103 0 11773.75659591 0 318.58843094 0 3025.76742017 0 2784
0.05250000 0.05249300 36609.42405712 0 -1076.42263082 0 13157.35430525 0 1832.42546819 0 -116.17747539 0 3055
0.05350000 0.05348950 37984.05318336 0 -643.28546348 0 12264.26058537 0 3226.96263445 0 1136.20875592 0 3009
0.05450000 0.05448610 38308.69374704 0 150.88699923 0 11542.12356070 0 2083.29113160 0 2565.96698742 0 3336
0.05550000 0.05550870 37230.80292595 0 2433.26517447 0 11452.65917617 0 807.34852924 0 1568.28408731 0 3349
0.05650000 0.05647670 35657.86846221 0 1264.11625222 0 11048.47503099 0 762.08043646 0 1600.54884183 0 3324
0.05750000 0.05747970 34518.30479187 0 763.38143462 0 12742.36357104 0 -1707.99468187 0 2952.25825569 0 3639
0.05850000 0.05849280 33845.55033589 0 1273.74917481 0 11627.04829206 0 -857.35779152 0 -45.16722391 0 3846
0.05950000 0.05951020 33515.15216331 0 -575.79189308 0 14079.67896264 0 -142.22954846 0 3173.31722070 0 3787
0.06050000 0.06049470 34270.39543918 0 51.23939756 0 13709.53114395 0 790.03030600 0 2687.16465489 0 3930
0.06150000 0.06148310 33872.01319221 0 552.07497332 0 15330.63022065 0 1121.83687830 0 4272.76585822 0 4083
0.06250000 0.06249100 33908.33041762 0 869.27825642 0 15607.65978761 0 2399.48351145 0 5790.32762554 0 4303
0.06350000 0.06350600 33103.59384980 0 572.36611578 0 16910.42952577 0 2616.34606535 0 8408.91030050 0 4470
0.06450000 0.06451750 32263.86873555 0 1142.58641501 0 15280.91548221 0 2999.91354171 0 10222.04777885 0 4479
0.06550000 0.06550280 32493.28730579 0 680.31796106 0 16350.05916670 0 1672.84005058 0 10953.03159105 0 4636
0.06650000 0.06648880 31387.71567265 0 415.79347775 0 13945.37166259 0 616.51147483 0 10211.29655145 0 4653
0.06750000 0.06749660 31140.24921295 0 631.76138780 0 13853.80353634 0 813.82694650 0 8728.03684642 0 5220
0.06850000 0.06852730 29734.06396099 0 610.98084859 0 12414.17986342 0 -159.94194647 0 5964.19634216 0 5029
0.06950000 0.06949320 30252.02731600 0 375.32966670 0 12485.59635850 0 55.83264079 0 2864.29970734 0 5040
0.07050000 0.07048030 29230.05173524 0 310.12474585 0 11178.72986015 0 -1480.79057660 0 -1129.16675733 0 5475
0.07150000 0.07148790 28926.00569572 0 866.70947706 0 11095.24453102 0 -1616.83623164 0 79.80178811 0 5509
0.07250000 0.07249820 27778.91284451 0 1642.73439939 0 12408.20080802 0 -209.81612638 0 -495.49760796 0 5916
0.07350000 0.07351270 27535.10025200 0 35.11565672 0 12280.20473311 0 1808.08849824 0 321.72079163 0 5721
0.07450000 0.07449140 27598.32322672 0 -321.17824771 0 12472.42029196 0 2056.69540739 0 1601.47891712 0 6028
0.07550000 0.07549160 27680.92276986 0 244.89435864 0 12115.22709331 0 1783.95083013 0 1056.44815685 0 6183
0.07650000 0.07648840 27244.78389526 0 -128.19648398 0 12164.38821551 0 1526.80715854 0 3396.23633627 0 6330
0.07750000 0.07749960 27494.24337342 0 499.25555500 0 11379.24966262 0 1168.29635324 0 2864.74260033 0 6583
0.07850000 0.07848650 26958.34285220 0 487.55875106 0 12477.18139164 0 139.30645471 0 3792.34875666 0 6549
0.07950000 0.07947320 26210.18586420 0 1195.67821252 0 11664.58347320 0 334.51043403 0 1703.43288405 0 6828
0.08050000 0.08048110 25027.10795733 0 931.90111113 0 11118.16424340 0 721.53801190 0 2698.81274060 0 7147
0.08150000 0.08149960 24306.74250463 0 215.90701227 0 9519.06587611 0 1869.20773123 0 1309.81173675 0 7386
0.08250000 0.08250610 24245.51254838 0 97.16374704 0 9589.47478963 0 2073.62499204 0 1431.72910532 0 7227
0.08350000 0.08350160 23784.46094293 0 1069.46035298 0 7802.78909527 0 54.85772259 0 191.56893508 0 7798
0.08450000 0.08449610 23317.76245183 0 805.06763033 0 7444.03469882 0 350.58523520 0 1472.51954996 0 7371
0.08550000 0.08548940 22254.48709949 0 319.33802733 0 7795.23776975 0 -399.24035215 0 1669.64014870 0 8256
0.08650000 0.08650700 22026.95082447 0 571.54344205 0 7967.23526348 0 581.10107283 0 2024.95105213 0 8037
0.08750000 0.08749060 21541.42938117 0 828.75022589 0 8041.85166043 0 512.42497814 0 1892.24923918 0 8155
0.08850000 0.08849210 21126.88153996 0 389.98610306 0 8170.96604014 0 155.70235330 0 1853.00892002 0 8718
0.08950000 0.08949900 20759.28035598 0 208.31693360 0 8271.39202625 0 26.33054203 0 1831.09678921 0 8571
0.09050000 0.09049190 20492.43732785 0 269.06413649 0 7864.20728104 0 -104.02814554 0 2172.50085267 0 8932
0.09150000 0.09150830 20626.63390466 0 -429.84315071 0 7850.42223664 0 956.48167223 0 1250.30906317 0 9285
0.09250000 0.09250820 20856.93826088 0 -41.99478140 0 8040.50083680 0 553.82107894 0 1610.83503159 0 9204
0.09350000 0.09350330 20149.52742822 0 1099.87049309 0 8079.05467182 0 764.36576430 0 444.53391128 0 9349
0.09450000 0.09448040 19662.45585945 0 1171.65126766 0 7708.50824944 0 191.04189242 0 1661.88952133 0 9564
0.09550000 0.09549270 18854.50831743 0 591.08720258 0 7736.46586961 0 -43.14386727 0 2325.65324956 0 10155
0.09650000 0.09649430 18330.67663026 0 656.14264706 0 8132.08003538 0 189.91362252 0 2630.66258134 0 9913
0.09750000 0.09749140 18241.98730846 0 75.88661406 0 8130.98387522 0 474.12802106 0 2630.72901529 0 10476
0.09850000 0.09850240 17842.82999875 0 217.36413021 0 8308.51753136 0 189.13080916 0 2538.05365655 0 10575
0.09950000 0.09950330 17990.97770483 0 43.12415853 0 7682.25576730 0 527.10023746 0 1265.15705075 0 10882
0.10050000 0.10051200 17997.51037647 0 -83.56981097 0 7699.14106265 0 404.88613057 0 1091.20307722 0 10875
0.10150000 0.10150300 17454.08067437 0 688.94994549 0 7028.35748048 0 -46.33413622 0 1413.43762472 0 11118
0.10250000 0.10250800 17079.06103276 0 594.99794771 0 6160.25399773 0 984.33299808 0 871.60565910 0 11575
0.10350000 0.10349800 16490.01335241 0 -49.49628147 0 6165.34726714 0 1211.66664955 0 1366.26952100 0 11364
0.10450000 0.10450100 16344.19083455 0 -52.00372015 0 4960.44580805 0 1817.15673226 0 532.29426503 0 12093
0.10550000 0.10551000 16192.27853804 0 403.86194053 0 4163.96919455 0 676.12708612 0 36.95465914 0 12067
0.10650000 0.10649700 15820.35914738 0 123.16521959 0 3481.69253922 0 359.89927484 0 632.27846537 0 12054
0.10750000 0.10749900 15922.22453571 0 28.03169402 0 3483.56376212 0 176.54711200 0 1183.18863012 0 12807
0.10850000 0.10850100 15644.08773627 0 149.59818062 0 3624.58089101 0 -328.37415161 0 716.53996448 0 12736
0.10950000 0.10950300 15756.02894018 0 393.54031933 0 3804.80512208 0 139.37067419 0 1290.57910854 0 12933
0.11050000 0.11050200 15297.63469269 0 260.80971834 0 3982.75952657 0 79.72516762 0 894.18102217 0 13428
0.11150000 0.11150900 15084.27099343 0 230.02644087 0 4394.92681794 0 92.93600126 0 1402.34315526 0 13453
0.11250000 0.11250000 15030.79166456 0 160.32394168 0 4601.00492747 0 360.39310052 0 897.70534316 0 13668
0.11350000 0.11349100 14907.00307309 0 133.20228203 0 4506.73515396 0 71.77523840 0 1161.56437975 0 13791
0.11450000 0.11448600 15041.42109639 0 -40.49824598 0 4488.60975823 0 -458.62787355 0 1083.85991140 0 14205
0.11550000 0.11549300 14844.44443786 0 344.00495256 0 4715.11630705 0 -501.47998506 0 685.64485653 0 14776
0.11650000 0.11649800 14643.48174240 0 646.05354468 0 4874.67958001 0 -94.27951715 0 1163.35809637 0 14553
0.11750000 0.11747300 14273.77681671 0 288.17718359 0 4701.96238516 0 -163.93573403 0 1533.90451875 0 14568
0.11850000 0.11849100 14158.07102235 0 65.45515540 0 5084.21225488 0 741.38736860 0 1134.84685996 0 16015
0.11950000 0.11950300 14072.14978176 0 -45.99399440 0 4657.86131541 0 377.53195211 0 1169.21535620 0 15270
0.12050000 0.12050700 14027.52831274 0 103.57584107 0 4721.33895359 0 355.71836498 0 741.25339347 0 15999
0.12150000 0.12150000 13972.83102814 0 182.45973345 0 4937.63681893 0 -128.40685815 0 1502.89093693 0 15670
0.12250000 0.12250700 13852.47485736 0 279.50090986 0 4999.58647629 0 16.66141294 0 1486.73641502 0 16887
0.12350000 0.12352200 13551.08617580 0 231.16689033 0 4857.18530679 0 -28.88758473 0 1360.79979254 0 16407
0.12450000 0.12449800 13443.90607155 0 220.36473024 0 4973.50007901 0 13.01053528 0 1179.15830389 0 16306
0.12550000 0.12549900 13241.06108087 0 250.48477544 0 5363.12411706 0 -94.06416043 0 971.67843804 0 17523
0.12650000 0.12650100 13136.75978108 0 197.33761631 0 4804.09350929 0 410.66366966 0 763.75235750 0 17154
0.12750000 0.12750600 12751.33215415 0 -92.89835535 0 4436.40374671 0 724.14554439 0 709.41270899 0 18007
0.12850000 0.12850300 12957.16667252 0 -82.41917498 0 4105.49624718 0 491.23697737 0 105.29537311 0 17496
0.12950000 0.12949900 13006.99213421 0 173.20880607 0 4135.33616257 0 -48.20314465 0 96.15372957 0 18405
0.13050000 0.13049000 12692.98100235 0 361.70295655 0 3839.02967810 0 -227.62153192 0 0.49572459 0 18100
0.13150000 0.13148800 12410.85816597 0 340.50499068 0 3807.70607118 0 -226.71913745 0 1.29454300 0 19059
0.13250000 0.13249300 12426.47014397 0 150.39870971 0 4210.84941783 0 -47.42896770 0 354.71410512 0 18957
0.13350000 0.13349100 12249.20222362 0 -70.12413333 0 4303.83480166 0 403.20092274 0 -168.42999068 0 19468
0.13450000 0.13450700 12231.15433417 0 180.46450052 0 3815.40133693 0 295.32547649 0 125.79711119 0 19953
0.13550000 0.13551000 12089.76074623 0 257.18242473 0 3609.50038460 0 237.94647482 0 167.23085790 0 19956
0.13650000 0.13649900 11864.21748968 0 210.63880012 0 3854.29841402 0 294.84715206 0 273.91713646 0 19723
0.13750000 0.13749600 11696.47176867 0 166.83336144 0 3815.08023951 0 348.56675038 0 645.23087095 0 20946
0.13850000 0.13851100 11390.43271069 0 114.94512564 0 3656.36953556 0 496.00139874 0 233.09568931 0 20955
0.13950000 0.13949800 11411.47012784 0 135.92607394 0 3380.36969481 0 -14.18619473 0 448.60188342 0 20506
0.14050000 0.14048300 11300.30398666 0 65.30645408 0 3336.55650550 0 146.12922126 0 68.04552579 0 21447
0.14150000 0.14148400 11155.58870128 0 89.87173536 0 3236.23017032 0 -9.30171614 0 38.36471971 0 21771
0.14250000 0.14249400 11074.53928361 0 170.39975726 0 3139.69057022 0 -275.70199522 0 -502.78984108 0 22470
0.14350000 0.14350900 10943.75298285 0 127.74694760 0 2971.49088390 0 -192.11701516 0 -502.37241444 0 22519
0.14450000 0.14449900 10774.41284708 0 232.40145455 0 3098.90012559 0 -6.17558917 0 -458.65555436 0 22218
0.14550000 0.14550500 10740.28794198 0 136.82514671 0 2870.99846385 0 86.92937577 0 -414.16806047 0 23559
0.14650000 0.14650700 10586.03938494 0 251.32184320 0 3140.49884994 0 215.58370038 0 -341.51589394 0 23044
0.14750000 0.14750500 10382.14252340 0 268.05766216 0 2732.78263314 0 128.54415498 0 -211.88000773 0 23649
0.14850000 0.14849900 10178.03528769 0 234.25385449 0 3102.32147396 0 321.25686122 0 -67.65467272 0 23640
0.14950000 0.14949500 10076.52421376 0 234.94587479 0 2933.34672490 0 28.67709983 0 203.56579902 0 24457
0.15050000 0.15050000 9896.62108010 0 91.10596741 0 3034.23774865 0 496.89936428 0 603.88681007 0 24591
0.15150000 0.15149900 9897.90546978 0 -89.86630993 0 2603.60181948 0 280.27375813 0 394.52907794 0 25020
0.15250000 0.15250500 9941.94010559 0 -48.81179035 0 2643.55076743 0 304.51218439 0 446.11836097 0 25297
0.15350000 0.15350100 9852.75252917 0 174.33818320 0 2492.59069085 0 68.29277080 0 381.54345539 0 25452
0.15450000 0.15450400 9772.61104213 0 283.14591919 0 2562.68957928 0 -140.52441044 0 244.88217908 0 26061
0.15550000 0.15549900 9464.29108523 0 293.90268275 0 2707.83668532 0 -249.20481469 0 475.00273472 0 26128
0.15650000 0.15649500 9291.72890294 0 314.53042389 0 2941.14164158 0 -160.12463983 0 326.87938776 0 26331
0.15750000 0.15749700 9218.21973846 0 32.82634284 0 3098.52366655 0 -0.32447337 0 547.89295623 0 27345
0.15850000 0.15849900 9219.45983884 0 -69.58756847 0 3170.50485020 0 109.07413613 0 666.19853246 0 26980
0.15950000 0.15949700 9219.24946467 0 135.40013851 0 3260.76644212 0 159.62527798 0 686.23944038 0 27777
0.16050000 0.16050000 9232.32588028 0 61.84834559 0 3069.96814084 0 135.82199409 0 557.16159934 0 28224
0.16150000 0.16150500 9011.58801270 0 80.02245955 0 2883.27767207 0 457.47303007 0 1027.51838657 0 28075
0.16250000 0.16249700 9101.27384373 0 37.68244306 0 2697.12974722 0 328.33982740 0 1022.23356593 0 28590
0.16350000 0.16349900 9029.10443056 0 69.57472457 0 2669.46000750 0 506.69505005 0 745.13645779 0 29163
0.16450000 0.16449100 8890.26854966 0 140.00511840 0 2433.96273093 0 111.69761277 0 508.26178401 0 28996
0.16550000 0.16550500 8758.59646292 0 171.05191719 0 2346.52458184 0 6.00995826 0 822.46003816 0 30777
0.16650000 0.16650700 8630.55609872 0 223.70857233 0 2382.50963750 0 -142.48753363 0 884.37647854 0 29211
0.16750000 0.16749900 8500.14625700 0 128.58401535 0 2411.61877945 0 -135.45439290 0 897.88250036 0 30922
0.16850000 0.16850800 8334.69250724 0 90.99956237 0 2457.95645882 0 190.23250548 0 917.91787212 0 30867
0.16950000 0.16949900 8353.41580850 0 23.65768282 0 2549.09276440 0 234.15973973 0 658.80000501 0 30852
0.17050000 0.17049200 8378.38390097 0 67.19694282 0 2444.62537973 0 60.13988587 0 803.17315555 0 31257
0.17150000 0.17149500 8295.39682645 0 97.48473374 0 2422.63574264 0 82.12819428 0 624.09601733 0 32608
0.17250000 0.17250900 8234.79799272 0 141.89405702 0 2364.24030155 0 72.38144819 0 939.43029201 0 32361
0.17350000 0.17350400 8059.87740524 0 75.58456103 0 2217.21090028 0 -90.00083867 0 631.43143253 0 32508
0.17450000 0.17449800 8068.02663630 0 30.45841545 0 2075.34120238 0 260.65913472 0 532.12928739 0 32791
0.17550000 0.17549800 8040.63370470 0 106.94459590 0 1897.99577576 0 270.87446160 0 505.25786229 0 33633
0.17650000 0.17650100 7937.17390160 0 92.62608689 0 1644.90457506 0 146.36616901 0 381.99188455 0 33984
0.17750000 0.17750300 7788.57223021 0 133.29971849 0 1723.70631079 0 121.60180732 0 393.35430427 0 34069
0.17850000 0.17849800 7749.47585127 0 187.89292324 0 1683.24803591 0 -130.59142784 0 176.51389503 0 34536
