### header ###
fiducial parameters:
Omega_m = 0.31
Omega_nu = 0
Omega_de = 0.69
Omega_k = 0
H_0 = 100
w_de = -1
zeff = 0
beta = 0
fgrowth = 0
b_1 = 2
gamma = 0.55
Lx = 3500 Ly = 3500 Lz = 3500
nx = 700 ny = 700 nz = 700
xoffset = -685.467585 yoffset = -31.7331281 zoffset = 572.489161
bins = 400 dk = 0.001
kx_ny = 0.628318531 ky_ny = 0.628318531 kz_ny = 0.628318531
############################
A(data) = 8.10521735 (not used)
A(ran) = 8.09911123 (used)
Ngal = 481318
weighted Ngal = 0
Nran = 23820508
weighted Nran = 0
SN(data) = 3493.71279
SN(ran) = 70.5461961
SN(data+ran) = 3564.25898
############################
13 columns: k_central k_mean P_0(k) sigma^{lin}_{P_0(k)} P^img_1(k) sigma^{lin}_{P_1(k)} P_2(k) sigma^{lin}_{P_2(k)} P^img_3(k) sigma^{lin}_{P_3(k)} P_4(k) sigma^{lin}_{P_4(k)} N_modes
### header ###
0.00050000 0 0 0 0 0 0 0 0 0 0 0 0
0.00150000 0.00179520 55654.81925443 0 -56252.83551788 0 79936.98119796 0 -222972.26273294 0 -24832.56721027 0 3
0.00250000 0.00253879 75148.08999065 0 -13256.67305887 0 -18383.60234289 0 85223.24123613 0 47834.65768152 0 6
0.00350000 0.00331552 105308.32773390 0 -25806.15673157 0 29867.70692155 0 -73996.67893276 0 12044.14276798 0 7
0.00450000 0.00420575 86047.35437238 0 7677.95970527 0 -88.12241877 0 -20411.38791018 0 29304.01486503 0 24
0.00550000 0.00557378 85483.55159261 0 15278.81174050 0 27260.94948949 0 -675.31659194 0 -21962.84206377 0 45
0.00650000 0.00659388 68356.54739339 0 -15968.94974644 0 -9213.84617016 0 -16994.02557815 0 -15202.41269925 0 40
0.00750000 0.00754703 81521.54160276 0 -5427.84185562 0 19558.59745265 0 12632.85827859 0 -48877.55995618 0 57
0.00850000 0.00846663 78014.49343970 0 -4211.23694920 0 -3343.13346644 0 -6454.09135376 0 -28942.39273645 0 75
0.00950000 0.00948925 92324.36603532 0 -15794.89280030 0 -13427.74047732 0 -10823.14214860 0 -59510.09203303 0 112
0.01050000 0.01054430 93993.51900173 0 -8977.02021462 0 -33495.55414838 0 -7809.35498389 0 -43473.82255169 0 105
0.01150000 0.01145670 96746.76329113 0 -4070.09802474 0 -33956.60575382 0 -20107.00970092 0 -60008.56809637 0 144
0.01250000 0.01249090 100445.25195031 0 9727.79027127 0 -35475.06437945 0 -39281.50820561 0 -62136.89037301 0 169
0.01350000 0.01339930 89233.08366920 0 10845.68540193 0 -32693.91783151 0 -38613.51484930 0 -49606.11892925 0 180
0.01450000 0.01448870 77857.26642728 0 11004.45146751 0 -19810.38211903 0 -37751.53436217 0 -30636.34771046 0 267
0.01550000 0.01550050 74443.33651594 0 1913.35309029 0 -17278.47360275 0 -16386.15494561 0 -15542.33307118 0 238
0.01650000 0.01653350 70520.41183270 0 5538.43223591 0 -1403.01856707 0 -3475.45882035 0 -36902.61921832 0 315
0.01750000 0.01747870 69236.90793972 0 8184.98360336 0 11310.26907900 0 -5240.43168574 0 -25198.06465253 0 297
0.01850000 0.01844180 61145.14223900 0 4469.00067098 0 6597.72155131 0 -4613.16234012 0 -30812.17622858 0 388
0.01950000 0.01947590 60336.41963425 0 -3978.16451177 0 10603.25685003 0 4213.10817209 0 -4800.33999118 0 399
0.02050000 0.02045430 65801.94061123 0 -4528.59192315 0 12546.16197526 0 14960.15023222 0 3551.62534278 0 462
0.02150000 0.02154770 69447.06066478 0 -1147.65753978 0 9420.76577637 0 3599.16990555 0 2247.34976844 0 571
0.02250000 0.02255340 73244.75735432 0 2050.31774829 0 12076.25250995 0 8599.83039734 0 7600.37592526 0 510
0.02350000 0.02348930 64144.08141613 0 4918.37097374 0 6766.15375645 0 2858.02169916 0 6944.85000670 0 555
0.02450000 0.02439640 61610.17988139 0 4303.79051236 0 9971.83538260 0 2002.76211320 0 7579.34958043 0 592
0.02550000 0.02547300 58348.05154332 0 197.78383100 0 9697.55175219 0 -3432.21031961 0 -8514.72850879 0 837
0.02650000 0.02652900 59950.21694458 0 -626.85191898 0 9718.75525422 0 -1459.91924431 0 2244.72562746 0 723
0.02750000 0.02749970 60041.78507083 0 -161.87960331 0 7982.01681711 0 -5758.40611308 0 -6550.90776198 0 826
0.02850000 0.02848090 61595.89658237 0 118.28010988 0 10679.12441969 0 -761.86674059 0 -1566.15820095 0 831
0.02950000 0.02946900 58186.50632421 0 3446.03965331 0 8794.29363813 0 40.04671657 0 -11991.88139483 0 996
0.03050000 0.03053250 56130.26488214 0 3493.27419098 0 10927.03377238 0 -224.92542083 0 -5042.92355563 0 1041
0.03150000 0.03150510 54537.84312672 0 1298.86120750 0 10443.54963685 0 -99.74105209 0 -2634.49360572 0 1036
0.03250000 0.03246190 55007.64186878 0 408.55992795 0 14119.20716224 0 3054.24543960 0 2318.60017865 0 1059
0.03350000 0.03345080 54501.74734782 0 -1046.55282016 0 16989.04303199 0 -906.85329792 0 -1437.68601608 0 1302
0.03450000 0.03451200 55525.49450055 0 1909.89852494 0 19038.19818617 0 -1094.82483467 0 1409.42944314 0 1339
0.03550000 0.03553350 53334.39214219 0 3775.66276316 0 25041.94487259 0 -3006.94446797 0 10349.27986334 0 1365
0.03650000 0.03647120 50501.42711409 0 4794.60452692 0 24334.09114693 0 30.51200550 0 12217.42465139 0 1308
0.03750000 0.03744890 49494.17772533 0 2066.46119788 0 27488.15359477 0 5443.80814801 0 13416.00381301 0 1579
0.03850000 0.03847530 47868.20682572 0 -1882.51666567 0 25729.20407408 0 7552.58777135 0 7800.76285983 0 1662
0.03950000 0.03950240 50190.18406343 0 -1425.00820416 0 29030.08554902 0 2721.30063230 0 7313.58056781 0 1683
0.04050000 0.04050350 49686.06111444 0 447.98183323 0 27365.25078928 0 -1080.06874739 0 8185.51507495 0 1822
0.04150000 0.04152450 49320.67439543 0 1832.72442096 0 25744.15171259 0 538.99523601 0 11419.66364821 0 1887
0.04250000 0.04250150 47863.88861904 0 2273.98978195 0 26224.13699347 0 -240.14100960 0 8151.21301267 0 1920
0.04350000 0.04349210 46456.37468809 0 2167.35222163 0 24199.45167714 0 5388.69011506 0 9529.94997141 0 2005
0.04450000 0.04448520 43817.28606757 0 3904.35639453 0 23024.78873713 0 5588.21340830 0 9701.34955960 0 2151
0.04550000 0.04548030 40651.70840192 0 1911.72545854 0 19607.31568185 0 4996.90697368 0 10903.81510723 0 2274
0.04650000 0.04648670 39320.81495871 0 -668.04982517 0 17888.22653051 0 7723.13479053 0 4965.90446419 0 2311
0.04750000 0.04749250 40180.35953439 0 -708.95320751 0 15277.92595451 0 1410.12699960 0 6684.06354025 0 2568
0.04850000 0.04851840 39127.15999764 0 1030.15692157 0 14362.35541526 0 1939.46163221 0 1274.38029733 0 2493
0.04950000 0.04949480 38803.62666644 0 1287.42349596 0 12086.32832554 0 -503.10540234 0 6513.76011221 0 2644
0.05050000 0.05050630 37240.54657179 0 977.32864539 0 12015.90833969 0 586.74242232 0 2907.12745973 0 2829
0.05150000 0.05149060 37475.39058119 0 -314.39423430 0 12409.64021024 0 1947.40048910 0 3915.15191122 0 2784
0.05250000 0.05249300 37111.99688064 0 -775.70161045 0 9406.53783898 0 3745.72319685 0 2359.21346608 0 3055
0.05350000 0.05348950 36817.03014747 0 427.14593239 0 9766.84236090 0 1527.85902940 0 1645.69071012 0 3009
0.05450000 0.05448610 37339.31170917 0 757.18757612 0 7941.83535035 0 672.79320912 0 3854.29841402 0 3336
0.05550000 0.05550870 35555.00656464 0 925.56220517 0 8222.38591660 0 658.97273328 0 4138.70214931 0 3349
0.05650000 0.05647670 36848.47554996 0 -176.20829886 0 7587.94170449 0 -1750.36846896 0 2971.47981158 0 3324
0.05750000 0.05747970 35933.79079669 0 324.27517696 0 7610.66211502 0 -2120.07339465 0 1476.89311826 0 3639
0.05850000 0.05849280 35565.96816621 0 1078.58505586 0 8457.84997619 0 -608.29359535 0 -1298.89442448 0 3846
0.05950000 0.05951020 34641.42904386 0 611.29419538 0 8049.25904574 0 -1622.97029959 0 205.44477255 0 3787
0.06050000 0.06049470 35089.52602927 0 671.97607155 0 8243.75550350 0 -193.44126521 0 -1996.71662385 0 3930
0.06150000 0.06148310 33702.60662248 0 673.45644137 0 9971.07139218 0 1391.39262601 0 -1200.79362658 0 4083
0.06250000 0.06249100 34262.86625831 0 163.29021750 0 9287.24461138 0 612.92293436 0 -3466.76704537 0 4303
0.06350000 0.06350600 34156.35049355 0 231.34626199 0 9306.89798794 0 834.44361531 0 -2342.47211096 0 4470
0.06450000 0.06451750 32745.18269542 0 1171.42982116 0 10977.31319938 0 -1185.12628696 0 -515.28495964 0 4479
0.06550000 0.06550280 32208.95000445 0 901.41789367 0 9050.00897982 0 -488.14447705 0 -197.66314266 0 4636
0.06650000 0.06648880 31964.58379570 0 614.30918943 0 11330.64215667 0 908.50528879 0 -396.71254039 0 4653
0.06750000 0.06749660 31252.85475636 0 66.27472888 0 10142.01701506 0 2600.36870063 0 -2613.93229854 0 5220
0.06850000 0.06852730 30474.91321460 0 1001.78519645 0 10303.72831904 0 1782.69965743 0 -2837.00642666 0 5029
0.06950000 0.06949320 29827.84655220 0 1528.52336889 0 9193.81633456 0 -298.13563253 0 -1162.83769710 0 5040
0.07050000 0.07048030 29324.72011244 0 976.83039078 0 9779.27658168 0 421.16798422 0 864.00340088 0 5475
0.07150000 0.07148790 27887.31090448 0 319.89053634 0 9179.02370861 0 -381.18471207 0 1840.30896346 0 5509
0.07250000 0.07249820 28619.52374474 0 235.04552572 0 10377.45893000 0 186.99606493 0 1010.81910627 0 5916
0.07350000 0.07351270 28193.68213222 0 -79.67445638 0 10097.57270324 0 -85.79988791 0 602.38651006 0 5721
0.07450000 0.07449140 27505.53714474 0 1617.31234161 0 11314.58728568 0 460.12817356 0 1186.59890616 0 6028
0.07550000 0.07549160 26822.48542667 0 977.51798215 0 10273.92162062 0 -348.88895504 0 -272.51870183 0 6183
0.07650000 0.07648840 25745.81256131 0 396.43462504 0 10487.61748962 0 858.92563271 0 -314.98992537 0 6330
0.07750000 0.07749960 25518.27628629 0 99.39825292 0 10498.37978935 0 442.79112736 0 -828.55646020 0 6583
0.07850000 0.07848650 25018.02865098 0 905.28213503 0 10078.53937687 0 196.99105255 0 -2061.47865171 0 6549
0.07950000 0.07947320 24971.52488674 0 100.06890363 0 9374.93742395 0 -122.44219677 0 -1336.67319676 0 6828
0.08050000 0.08048110 24470.28074220 0 -362.69946578 0 9206.85953320 0 44.58847349 0 -1409.29657524 0 7147
0.08150000 0.08149960 24946.39070940 0 -10.99254872 0 9043.46523585 0 1872.45192241 0 -2629.37819166 0 7386
0.08250000 0.08250610 24711.87886974 0 510.94128662 0 8505.00700760 0 740.54033575 0 -2540.11310897 0 7227
0.08350000 0.08350160 23818.89587312 0 788.46800096 0 6753.32093199 0 1075.11277480 0 -2425.39275152 0 7798
0.08450000 0.08449610 23256.64321883 0 667.65675763 0 7002.47038506 0 1109.25871731 0 -1780.30803527 0 7371
0.08550000 0.08548940 22689.62946487 0 668.73409484 0 6134.98695249 0 864.56587498 0 -987.40999714 0 8256
0.08650000 0.08650700 22315.60633249 0 374.67639954 0 6149.59134893 0 562.45527784 0 -1779.22294743 0 8037
0.08750000 0.08749060 21614.28527848 0 266.69244451 0 5259.19927631 0 183.58135996 0 -1821.58566219 0 8155
0.08850000 0.08849210 22304.20183793 0 -65.32084810 0 6015.07367470 0 -330.89753444 0 -1007.68342389 0 8718
0.08950000 0.08949900 21740.17761167 0 45.76845115 0 6233.58600500 0 -691.34267489 0 -1049.36186897 0 8571
0.09050000 0.09049190 21791.99609182 0 491.88803007 0 6880.82982460 0 -42.56589192 0 -471.84712215 0 8932
0.09150000 0.09150830 21071.85208561 0 1032.97593547 0 7867.35182129 0 841.30734946 0 584.08617160 0 9285
0.09250000 0.09250820 20498.41638326 0 681.46726838 0 7557.11635220 0 813.19582398 0 1700.76445377 0 9204
0.09350000 0.09350330 19845.14921896 0 396.58077973 0 7507.33517981 0 1354.12318067 0 1973.80798380 0 9349
0.09450000 0.09448040 19568.56254499 0 256.34535697 0 7620.20645901 0 941.40670199 0 3009.73469383 0 9564
0.09550000 0.09549270 19286.88260160 0 163.54820266 0 7573.99057522 0 602.60242039 0 3060.15806105 0 10155
0.09650000 0.09649430 19023.47199416 0 507.45904046 0 7633.51539345 0 -38.32209126 0 3306.31798642 0 9913
0.09750000 0.09749140 18897.35821448 0 541.38464371 0 7055.47360396 0 -312.44882682 0 2363.09985209 0 10476
0.09850000 0.09850240 18416.04425461 0 343.11252318 0 7485.04658995 0 -408.67065120 0 2263.84753242 0 10575
0.09950000 0.09950330 18002.82509238 0 495.13886464 0 6691.47092555 0 281.20604788 0 1550.74552480 0 10882
0.10050000 0.10051200 17972.26547588 0 82.54274212 0 6828.31378798 0 72.64308722 0 1244.92791331 0 10875
0.10150000 0.10150300 17478.77195872 0 336.39494371 0 5968.69170604 0 645.55086113 0 -1.89911408 0 11118
0.10250000 0.10250800 17546.31314011 0 102.30927783 0 6452.25334784 0 439.58901102 0 -456.75775788 0 11575
0.10350000 0.10349800 16970.10935655 0 449.62385900 0 5941.17697886 0 -458.88475148 0 -586.65605819 0 11364
0.10450000 0.10450100 16843.77413037 0 511.43732677 0 6433.40825100 0 -189.40429558 0 -914.98813497 0 12093
0.10550000 0.10551000 16193.27504727 0 445.82272989 0 6059.21903376 0 -387.76056578 0 119.53128258 0 12067
0.10650000 0.10649700 16174.89498807 0 231.87884082 0 6271.84088725 0 637.94860291 0 -321.11292100 0 12054
0.10750000 0.10749900 15950.23751750 0 -246.27950648 0 6394.93192226 0 601.70113315 0 -139.01193087 0 12807
0.10850000 0.10850100 16243.21123220 0 -63.44885014 0 5600.53690582 0 1018.90633232 0 -828.30290396 0 12736
0.10950000 0.10950300 16227.59925421 0 31.33977251 0 5464.39159985 0 169.64019578 0 -651.97502399 0 12933
0.11050000 0.11050200 16115.76877354 0 148.23407021 0 5136.03073503 0 175.53177981 0 -595.71100543 0 13428
0.11150000 0.11150900 15977.69688305 0 115.54856734 0 5124.51551722 0 104.07918896 0 -1047.06546880 0 13453
0.11250000 0.11250000 15601.12711597 0 384.39790073 0 5098.30732437 0 -226.64827457 0 -574.01478495 0 13668
0.11350000 0.11349100 15554.84479823 0 300.39992296 0 4895.66163554 0 -76.59391417 0 -764.34583411 0 13791
0.11450000 0.11448600 15292.31997678 0 201.22510956 0 5184.47215611 0 367.55357298 0 -221.49189290 0 14205
0.11550000 0.11549300 15149.81915636 0 262.49271171 0 4646.16894040 0 561.58056417 0 -637.19457759 0 14776
0.11650000 0.11649800 14840.79057067 0 422.35383021 0 4719.66703255 0 593.95714918 0 -182.75647176 0 14553
0.11750000 0.11747300 14404.98386581 0 443.00593046 0 4477.47099946 0 188.97136768 0 106.78116838 0 14568
0.11850000 0.11849100 14179.99422550 0 343.50780517 0 4510.37794882 0 545.64195260 0 282.11951468 0 16015
0.11950000 0.11950300 13785.70873870 0 94.54713524 0 4314.50852278 0 300.63244178 0 933.76790509 0 15270
0.12050000 0.12050700 13806.74615586 0 -189.35004119 0 3846.44813572 0 719.29475889 0 492.43389568 0 15999
0.12150000 0.12150000 13937.84248171 0 -72.67685781 0 4273.59628258 0 462.12008479 0 808.18116807 0 15670
0.12250000 0.12250700 14106.25254220 0 58.49498129 0 3740.45277024 0 568.28485685 0 216.55695773 0 16887
0.12350000 0.12352200 13772.42194892 0 285.55193538 0 3708.71948730 0 84.44884284 0 1047.99886578 0 16407
0.12450000 0.12449800 13585.85327573 0 380.75178417 0 3725.31690221 0 -2.08159707 0 1183.77546334 0 16306
0.12550000 0.12549900 13541.34252996 0 160.34830079 0 3851.26459702 0 276.03416496 0 1863.90408765 0 17523
0.12650000 0.12650100 13339.38332526 0 289.38628146 0 3842.39566484 0 514.63501418 0 1727.36017798 0 17154
0.12750000 0.12750600 13327.64666096 0 -94.12472605 0 3716.85764605 0 119.69958192 0 2070.36972854 0 18007
0.12850000 0.12850300 13178.05955266 0 66.02128337 0 3453.72384673 0 369.34064621 0 2002.50744973 0 17496
0.12950000 0.12949900 13243.49699233 0 -31.71866746 0 3379.74964462 0 187.09571586 0 1787.54933570 0 18405
0.13050000 0.13049000 13066.33979524 0 180.98268532 0 3346.56588714 0 -162.22616708 0 1529.67489067 0 18100
0.13150000 0.13148800 12952.51629610 0 129.71892865 0 3263.60095727 0 -0.55625035 0 1431.02047654 0 19059
0.13250000 0.13249300 12783.66334262 0 254.35676743 0 3585.53987370 0 -216.22589522 0 1338.14581596 0 18957
0.13350000 0.13349100 12783.66334262 0 -25.88643109 0 3133.60079157 0 123.84173863 0 500.57537612 0 19468
0.13450000 0.13450700 12629.75802764 0 98.75882616 0 3566.27402851 0 -100.30972669 0 654.37439678 0 19953
0.13550000 0.13551000 12669.50767374 0 277.71937280 0 3403.78766180 0 -445.62232081 0 177.47497282 0 19956
0.13650000 0.13649900 12427.02376021 0 255.14179526 0 3853.81123173 0 -43.46861856 0 579.89308219 0 19723
0.13750000 0.13749600 12260.05310194 0 317.00287402 0 3564.35851632 0 -70.08947695 0 311.81770431 0 20946
0.13850000 0.13851100 12133.82859901 0 99.17625280 0 3487.32835256 0 397.50199715 0 321.66100107 0 20955
0.13950000 0.13949800 11876.83993997 0 157.76734188 0 3159.44359770 0 293.32138570 0 73.70636258 0 20506
0.14050000 0.14048300 11894.00204344 0 123.32244660 0 3445.65212194 0 148.40790571 0 -30.32964431 0 21447
0.14150000 0.14148400 11665.69070568 0 209.16285922 0 3223.60772003 0 124.75077650 0 106.44158018 0 21771
0.14250000 0.14249400 11476.79684427 0 295.87687827 0 3269.43607245 0 -150.51386189 0 -32.23397346 0 22470
0.14350000 0.14350900 11312.37282071 0 268.87590697 0 3388.19782845 0 -330.37159901 0 -87.14484321 0 22519
0.14450000 0.14449900 11241.62066512 0 40.98941431 0 3755.38933642 0 -57.28743355 0 -233.25845249 0 22218
0.14550000 0.14550500 11129.56873796 0 108.93551062 0 3928.48299031 0 -260.80196771 0 21.74349931 0 23559
0.14650000 0.14650700 11015.32449048 0 278.84432100 0 3827.31515844 0 53.58329800 0 -49.31115220 0 23044
0.14750000 0.14750500 10900.63735001 0 306.02244950 0 3971.83114197 0 270.72719968 0 200.08133840 0 23649
0.14850000 0.14849900 10624.30533951 0 149.87277428 0 3676.62081766 0 393.35541151 0 390.57072182 0 23640
0.14950000 0.14949500 10534.82988265 0 55.76974999 0 3580.03692826 0 495.71905446 0 419.05206295 0 24457
0.15050000 0.15050000 10385.13205110 0 38.98532352 0 3267.11088424 0 261.53938454 0 -29.86261365 0 24591
0.15150000 0.15149900 10418.02792814 0 188.79531772 0 3441.51107246 0 80.72079107 0 157.60679317 0 25020
0.15250000 0.15250500 10257.40171199 0 272.78665209 0 3398.89369423 0 -456.88951855 0 693.38551882 0 25297
0.15350000 0.15350100 10158.02759675 0 102.93320334 0 3472.21462918 0 207.67473876 0 578.37506646 0 25452
0.15450000 0.15450400 10011.65146264 0 138.96985603 0 3554.29377306 0 92.23645178 0 565.82015735 0 26061
0.15550000 0.15549900 10017.04368483 0 116.08225340 0 3593.12441620 0 163.42862156 0 300.47632200 0 26128
0.15650000 0.15649500 9774.41583108 0 183.28794335 0 3509.92696751 0 378.36348370 0 616.05972398 0 26331
0.15750000 0.15749700 9657.14883893 0 148.33261390 0 3163.40748999 0 381.60656764 0 548.33252753 0 27345
0.15850000 0.15849900 9504.04073133 0 72.33217634 0 2983.82545375 0 263.56783445 0 383.94614988 0 26980
0.15950000 0.15949700 9296.81110003 0 216.02327168 0 2648.71047079 0 274.91696739 0 620.11883826 0 27777
0.16050000 0.16050000 9218.80657168 0 132.59219694 0 2590.90186291 0 379.07986312 0 764.95702644 0 28224
0.16150000 0.16150500 9197.18232131 0 -86.53409377 0 2336.99131017 0 367.11400169 0 668.70973572 0 28075
0.16250000 0.16249700 9081.88620297 0 77.26312548 0 2294.29642567 0 184.83806883 0 508.25514062 0 28590
0.16350000 0.16349900 9034.71809925 0 271.61852182 0 2517.59200029 0 -196.37100236 0 565.46252126 0 29163
0.16450000 0.16449100 8794.23827651 0 201.38233657 0 2475.53931063 0 -146.85224407 0 825.91349627 0 28996
0.16550000 0.16550500 8733.53979185 0 145.49034812 0 2672.50489683 0 10.56121523 0 967.29379741 0 30777
0.16650000 0.16650700 8663.81736247 0 124.17833731 0 2570.15232620 0 -144.14395342 0 689.54674380 0 29211
0.16750000 0.16749900 8567.72065537 0 240.78874060 0 2751.68309161 0 -109.88795200 0 481.61401987 0 30922
0.16850000 0.16850800 8376.35766553 0 203.71195371 0 2798.90655696 0 -228.59368204 0 408.00631171 0 30867
0.16950000 0.16949900 8192.28026542 0 184.66755502 0 2550.66503452 0 -45.81207611 0 282.94108118 0 30852
0.17050000 0.17049200 8154.46827616 0 -32.37315258 0 2534.77624841 0 354.06194519 0 241.80185832 0 31257
0.17150000 0.17149500 8256.84299144 0 -71.86946389 0 2477.72055862 0 250.47481035 0 -27.20536642 0 32608
0.17250000 0.17250900 8236.22632262 0 -3.73083092 0 2193.75971632 0 311.85977914 0 181.09340857 0 32361
0.17350000 0.17350400 8232.48387684 0 76.01892834 0 2331.75410053 0 182.55384821 0 286.97362188 0 32508
0.17450000 0.17449800 8193.89682484 0 112.17372274 0 2201.48819904 0 238.11034522 0 879.50022669 0 32791
0.17550000 0.17549800 8108.76171931 0 36.45850827 0 2064.83356613 0 227.72893348 0 908.74887993 0 33633
0.17650000 0.17650100 8142.70946721 0 35.84620871 0 2163.69835444 0 119.29212036 0 896.69222544 0 33984
0.17750000 0.17750300 8103.77917314 0 76.53456650 0 2212.97019988 0 35.11133851 0 753.32112029 0 34069
0.17850000 0.17849800 8000.59617816 0 138.89234976 0 2041.41559914 0 28.52574115 0 690.24540750 0 34536
