### header ###
fiducial parameters:
Omega_m = 0.31
Omega_nu = 0
Omega_de = 0.69
Omega_k = 0
H_0 = 100
w_de = -1
zeff = 0
beta = 0
fgrowth = 0
b_1 = 2
gamma = 0.55
Lx = 3500 Ly = 3500 Lz = 3500
nx = 700 ny = 700 nz = 700
xoffset = -685.467585 yoffset = -31.7331281 zoffset = 572.489161
bins = 400 dk = 0.001
kx_ny = 0.628318531 ky_ny = 0.628318531 kz_ny = 0.628318531
############################
A(data) = 8.0571356 (not used)
A(ran) = 8.05648518 (used)
Ngal = 479220
weighted Ngal = 0
Nran = 23820508
weighted Nran = 0
SN(data) = 3487.10433
SN(ran) = 70.1749078
SN(data+ran) = 3557.27924
############################
13 columns: k_central k_mean P_0(k) sigma^{lin}_{P_0(k)} P^img_1(k) sigma^{lin}_{P_1(k)} P_2(k) sigma^{lin}_{P_2(k)} P^img_3(k) sigma^{lin}_{P_3(k)} P_4(k) sigma^{lin}_{P_4(k)} N_modes
### header ###
0.00050000 0 0 0 0 0 0 0 0 0 0 0 0
0.00150000 0.00179520 8572.04993437 0 -8937.43665339 0 8173.12514348 0 24773.10882599 0 -34256.55503316 0 3
0.00250000 0.00253879 22542.36754478 0 -13664.79895168 0 8706.94406764 0 -6138.10934809 0 32205.07469076 0 6
0.00350000 0.00331552 26613.10776435 0 -9363.02360244 0 497.80397322 0 2861.04444384 0 13526.39489145 0 7
0.00450000 0.00420575 34615.07691079 0 -4517.03241604 0 14.41218088 0 -8988.03717781 0 -10720.54598683 0 24
0.00550000 0.00557378 40346.77657641 0 2324.26920896 0 -3274.66220976 0 -11431.40031252 0 -6209.99088081 0 45
0.00650000 0.00659388 42983.20783898 0 3243.48254307 0 9296.25748379 0 -22443.71313064 0 251.10150393 0 40
0.00750000 0.00754703 39263.68176265 0 -1181.38384118 0 -2479.48105826 0 -18119.85956571 0 -10648.16619949 0 57
0.00850000 0.00846663 51609.65610519 0 -11305.95087232 0 17260.97932953 0 -7601.04026475 0 -12276.55086592 0 75
0.00950000 0.00948925 60551.44418223 0 -7990.58679652 0 9971.19318776 0 7029.37613437 0 -28572.79853401 0 112
0.01050000 0.01054430 58721.29961295 0 -2561.15052613 0 14766.27382464 0 768.06059909 0 -4788.89120731 0 105
0.01150000 0.01145670 67682.57498168 0 2825.01509888 0 17707.96908246 0 -10672.74676059 0 -24538.70770958 0 144
0.01250000 0.01249090 62038.45740537 0 1792.83083464 0 18005.26100384 0 5003.07425860 0 1682.70549199 0 169
0.01350000 0.01339930 62271.19767306 0 1329.39867935 0 20461.10264862 0 -3528.28488206 0 -11874.62547501 0 180
0.01450000 0.01448870 64267.09494487 0 3510.03769076 0 31460.46084671 0 -897.30563223 0 4207.21769529 0 267
0.01550000 0.01550050 62810.08772198 0 2478.83886342 0 32934.18728007 0 -2226.26806199 0 -1517.25174222 0 238
0.01650000 0.01653350 67427.35789461 0 -3027.15146077 0 43298.65837306 0 -9854.04799118 0 8339.71934270 0 315
0.01750000 0.01747870 69189.85055924 0 520.12135112 0 52111.45386597 0 -6977.66837746 0 -1228.50765560 0 297
0.01850000 0.01844180 72902.95468717 0 4260.61951789 0 50484.15428737 0 2920.70212996 0 -1886.91237862 0 388
0.01950000 0.01947590 74149.58773850 0 -609.49937152 0 54357.36423218 0 9641.51471628 0 1202.52090925 0 399
0.02050000 0.02045430 72403.81428435 0 -2178.74564386 0 47330.75617902 0 9059.77477031 0 -10776.30621462 0 462
0.02150000 0.02154770 72692.46979237 0 2211.06576001 0 41627.40166493 0 17544.65229139 0 -13296.75487471 0 571
0.02250000 0.02255340 73532.52707636 0 136.26820878 0 34881.69849242 0 11952.79608823 0 9222.26113702 0 510
0.02350000 0.02348930 68307.82916419 0 3548.14863278 0 29340.33209043 0 14580.03732119 0 4650.56465335 0 555
0.02450000 0.02439640 68068.55622485 0 1062.60658392 0 25793.53428128 0 2150.87660230 0 2467.37900724 0 592
0.02550000 0.02547300 66006.11428089 0 1927.63638930 0 27897.27599682 0 7306.30605040 0 7102.40918887 0 837
0.02650000 0.02652900 62731.36349252 0 4640.32275290 0 23042.28301034 0 4843.26739450 0 12300.02419454 0 723
0.02750000 0.02749970 58169.56566724 0 2857.39057665 0 29253.19289411 0 7141.05160249 0 17860.43499521 0 826
0.02850000 0.02848090 57242.59063342 0 132.10280018 0 22501.95355919 0 4639.19337576 0 15527.49615593 0 831
0.02950000 0.02946900 56466.86355663 0 1136.14232197 0 20325.57739284 0 13651.95505489 0 7860.39840130 0 996
0.03050000 0.03053250 53627.25513364 0 2671.79626804 0 9758.41632172 0 1555.57305842 0 4971.38526497 0 1041
0.03150000 0.03150510 52112.11820546 0 1874.51137482 0 10916.89152284 0 217.10282335 0 8364.87566469 0 1036
0.03250000 0.03246190 50644.48155074 0 936.11523795 0 10090.61928325 0 -3098.90012559 0 -2026.65619016 0 1059
0.03350000 0.03345080 51519.52738116 0 -246.41569607 0 10165.11388463 0 -5008.12323872 0 -3689.17683400 0 1302
0.03450000 0.03451200 50611.15385304 0 2140.72328044 0 14683.89572799 0 -8151.11336174 0 -9010.60257579 0 1339
0.03550000 0.03553350 50591.77728461 0 2378.66754079 0 21115.14487565 0 -5019.15127424 0 -1928.86541736 0 1365
0.03650000 0.03647120 50883.31159708 0 973.95047909 0 28643.21851985 0 -2632.31235774 0 -4771.41907875 0 1308
0.03750000 0.03744890 49285.24295601 0 522.15865889 0 27974.56082405 0 4913.18912573 0 -2530.75699450 0 1579
0.03850000 0.03847530 49602.24361556 0 -974.72222013 0 23964.60766773 0 7635.71878608 0 -3838.08853049 0 1662
0.03950000 0.03950240 49935.18842286 0 -1145.60915969 0 20016.10591416 0 8076.38624154 0 -5444.80465724 0 1683
0.04050000 0.04050350 51214.04193941 0 -431.31909161 0 20381.27118668 0 438.88591839 0 -3385.15293913 0 1822
0.04150000 0.04152450 50664.52245867 0 1307.01043857 0 16666.06331703 0 -847.46245483 0 -7369.47366350 0 1887
0.04250000 0.04250150 47689.38877990 0 3660.39986180 0 14332.01724526 0 378.04570798 0 -2572.58823766 0 1920
0.04350000 0.04349210 44425.37814661 0 2184.53646974 0 12546.38342175 0 3315.38622045 0 -4581.24082766 0 2005
0.04450000 0.04448520 43944.72852623 0 493.69503348 0 12827.95264189 0 3212.05928524 0 -4133.04419133 0 2151
0.04550000 0.04548030 44539.53381549 0 -704.28068644 0 11613.31860929 0 4061.14051396 0 -7112.01996681 0 2274
0.04650000 0.04648670 43044.76996497 0 1814.12291526 0 12202.03411989 0 794.89105659 0 442.43792020 0 2311
0.04750000 0.04749250 41966.43625088 0 1629.50297124 0 11757.36955518 0 267.67345249 0 857.81286407 0 2568
0.04850000 0.04851840 39525.09935162 0 1173.87680495 0 10663.94426236 0 -288.87252559 0 1231.89578700 0 2493
0.04950000 0.04949480 40030.99387258 0 832.12617772 0 15376.58036865 0 -1083.26754203 0 1156.69255683 0 2644
0.05050000 0.05050630 39247.73761491 0 1502.93522623 0 12958.27390501 0 -303.95413922 0 446.81370296 0 2829
0.05150000 0.05149060 37171.34454167 0 1578.83601287 0 14361.13745953 0 -272.95384420 0 2996.44790405 0 2784
0.05250000 0.05249300 37131.37344907 0 1800.61467898 0 15424.85570486 0 -286.60823516 0 807.38285345 0 3055
0.05350000 0.05348950 36384.43441681 0 -215.43090230 0 17136.08350558 0 1830.44352204 0 3828.10129350 0 3009
0.05450000 0.05448610 35298.46079860 0 1551.34343034 0 15714.06482912 0 2709.76326984 0 883.03340554 0 3336
0.05550000 0.05550870 34969.16985849 0 1163.04807128 0 15506.12656903 0 2977.81318138 0 2853.68134783 0 3349
0.05650000 0.05647670 32955.33542047 0 468.09581850 0 13063.46099078 0 1452.23505089 0 3178.54335801 0 3324
0.05750000 0.05747970 33366.45084099 0 758.01135708 0 14310.09404211 0 482.30604017 0 458.41971384 0 3639
0.05850000 0.05849280 33526.99955086 0 -82.86461460 0 14308.76536314 0 -661.10304857 0 -652.17211138 0 3846
0.05950000 0.05951020 32734.88543334 0 1514.51687799 0 12903.57662040 0 -1495.58320255 0 -1147.48038258 0 3787
0.06050000 0.06049470 31856.51790547 0 1311.82689986 0 13256.34088912 0 -898.22463519 0 -670.02955684 0 3930
0.06150000 0.06148310 31624.99559351 0 -961.04347005 0 12908.33772007 0 1658.47924529 0 -2292.00445443 0 4083
0.06250000 0.06249100 31555.79356340 0 -56.68864222 0 11622.17646914 0 3427.16133949 0 -2048.54617632 0 4303
0.06350000 0.06350600 31416.28227068 0 148.45219501 0 11342.48954422 0 3529.73535661 0 -2400.19214024 0 4470
0.06450000 0.06451750 31414.51069871 0 -13.26852045 0 9284.05578184 0 2475.20714088 0 -314.81055371 0 4479
0.06550000 0.06550280 31260.05176749 0 512.28878855 0 10519.35077255 0 1523.04256810 0 1495.19567119 0 4636
0.06650000 0.06648880 30429.84885259 0 233.45111094 0 9068.42225599 0 1705.82450621 0 3755.63292756 0 4653
0.06750000 0.06749660 30912.49149143 0 -283.73164518 0 8617.72327425 0 1097.71692592 0 3667.86260872 0 5220
0.06850000 0.06852730 30375.37301448 0 274.92139632 0 8346.61740107 0 -895.16424461 0 3070.64355266 0 5029
0.06950000 0.06949320 29468.32816534 0 1467.14947242 0 9028.01934273 0 -482.09123707 0 3112.92876114 0 5040
0.07050000 0.07048030 29009.38030161 0 579.55648352 0 7960.63615789 0 -369.82893573 0 2891.94730241 0 5475
0.07150000 0.07148790 28597.26837186 0 -307.42199136 0 7466.14613149 0 568.20181442 0 1035.60450538 0 5509
0.07250000 0.07249820 29104.60229505 0 -477.97233224 0 7925.83584098 0 461.41699217 0 -1557.86502966 0 5916
0.07350000 0.07351270 28958.33688419 0 275.15502237 0 6523.54804735 0 81.51091217 0 -1807.28021852 0 5721
0.07450000 0.07449140 28709.43102227 0 1430.15683520 0 6546.43454275 0 -826.35306756 0 -1814.57688058 0 6028
0.07550000 0.07549160 28377.59344745 0 562.70994131 0 6243.27428922 0 -53.41499867 0 -855.65708243 0 6183
0.07650000 0.07648840 27222.19635263 0 638.31620410 0 6483.23371269 0 406.28567243 0 -3287.32894936 0 6330
0.07750000 0.07749960 26712.31579473 0 1123.29842518 0 6559.99814065 0 105.56354482 0 -1974.52768491 0 6583
0.07850000 0.07848650 26052.29451229 0 327.93125862 0 6900.63821370 0 480.33073742 0 -2282.10579605 0 6549
0.07950000 0.07947320 25294.72604820 0 635.00004281 0 6367.89330505 0 112.44056577 0 -2026.37938203 0 6828
0.08050000 0.08048110 25198.72899202 0 515.63595234 0 6937.55334464 0 209.96228107 0 -1427.44411562 0 7147
0.08150000 0.08149960 24228.12899842 0 668.76952628 0 7508.51991857 0 -335.23567130 0 -214.02028812 0 7386
0.08250000 0.08250610 24154.16586863 0 907.97381720 0 7747.01779516 0 -79.04565905 0 401.11489674 0 7227
0.08350000 0.08350160 22898.78568069 0 618.69715175 0 7550.43974033 0 1230.95463939 0 2.08377831 0 7798
0.08450000 0.08449610 23080.59325421 0 245.36493245 0 6964.86876997 0 1345.63070753 0 320.16845169 0 7371
0.08550000 0.08548940 22245.51851639 0 491.63336660 0 6284.96159216 0 759.01229525 0 1286.57092695 0 8256
0.08650000 0.08650700 22080.76232309 0 175.75101185 0 6427.59528047 0 634.82177838 0 586.49993841 0 8037
0.08750000 0.08749060 21942.13681636 0 118.30336176 0 5332.96310425 0 577.55128549 0 1775.03760865 0 8155
0.08850000 0.08849210 21410.88667156 0 336.85555242 0 5642.09134086 0 662.66978254 0 863.39331578 0 8718
0.08950000 0.08949900 21401.80736521 0 560.13784025 0 4987.03045994 0 499.82910143 0 798.27365182 0 8571
0.09050000 0.09049190 20559.75706275 0 737.74678820 0 5166.69000245 0 166.94851362 0 54.54038976 0 8932
0.09150000 0.09150830 19909.25797966 0 914.87187556 0 4974.96162589 0 -1.97163781 0 879.43379274 0 9285
0.09250000 0.09250820 19312.12750219 0 420.34309602 0 5351.23244020 0 -80.72499856 0 1049.86233805 0 9204
0.09350000 0.09350330 18961.57769843 0 91.63057416 0 5222.20663909 0 530.58137638 0 264.32850316 0 9349
0.09450000 0.09448040 18878.20309254 0 202.90035230 0 5425.57202903 0 514.55086451 0 1264.07196292 0 9564
0.09550000 0.09549270 18695.39900979 0 210.19701436 0 5390.76063980 0 352.24497669 0 1025.04482920 0 10155
0.09650000 0.09649430 18544.92611550 0 335.95426518 0 5196.04273554 0 1060.42755039 0 1175.49336437 0 9913
0.09750000 0.09749140 18140.67553637 0 721.37857042 0 4760.84500855 0 133.11813236 0 876.99898852 0 10476
0.09850000 0.09850240 17792.45092083 0 611.52339250 0 5409.55037502 0 -250.06513433 0 620.47647435 0 10575
0.09950000 0.09950330 17230.75188278 0 466.82582284 0 5455.58910162 0 -749.87762727 0 426.67203689 0 10882
0.10050000 0.10051200 16834.80554726 0 415.63292904 0 5747.24520967 0 -676.74160015 0 856.99683373 0 10875
0.10150000 0.10150300 16918.40159964 0 241.07108488 0 5797.45820272 0 -299.63925424 0 416.29283960 0 11118
0.10250000 0.10250800 16878.09833730 0 -191.18693988 0 6039.89782695 0 589.50607460 0 -107.77535243 0 11575
0.10350000 0.10349800 16774.46137700 0 -188.16973136 0 6054.12576434 0 432.47836402 0 61.09210580 0 11364
0.10450000 0.10450100 17013.73431633 0 192.48129465 0 5360.64391630 0 896.66786632 0 -165.23119604 0 12093
0.10550000 0.10551000 16736.81547262 0 233.91836305 0 5431.11926377 0 210.71409193 0 -91.63688539 0 12067
0.10650000 0.10649700 16423.91157324 0 439.12950954 0 5145.13218603 0 250.98413729 0 1223.74655593 0 12054
0.10750000 0.10749900 16533.30614245 0 -85.47657603 0 4535.87751288 0 857.57038016 0 713.89589331 0 12807
0.10850000 0.10850100 16588.33559680 0 -246.91173622 0 4769.62536213 0 183.02663648 0 699.85839990 0 12736
0.10950000 0.10950300 16636.83237951 0 -126.58988965 0 4511.59590455 0 445.18607122 0 80.00430093 0 12933
0.11050000 0.11050200 16446.49911587 0 471.59024421 0 4390.27644152 0 -218.74817081 0 273.03688663 0 13428
0.11150000 0.11150900 16209.32991826 0 491.67987036 0 3959.56300607 0 -266.86074385 0 -206.19215447 0 13453
0.11250000 0.11250000 15793.12122832 0 197.62992569 0 4753.82515461 0 -435.37156250 0 -60.22558566 0 13668
0.11350000 0.11349100 15458.40484906 0 577.00652711 0 4058.79318110 0 55.63068159 0 -142.94039171 0 13791
0.11450000 0.11448600 15083.05303770 0 340.74636736 0 4033.08324287 0 594.75214210 0 -195.66901696 0 14205
0.11550000 0.11549300 14804.80551501 0 81.04664959 0 4182.45997700 0 506.70944407 0 -162.85950406 0 14776
0.11650000 0.11649800 14785.42894658 0 27.82740963 0 3862.44764509 0 1102.54556677 0 -313.33572004 0 14553
0.11750000 0.11747300 14580.48021419 0 363.10028394 0 3897.03758782 0 56.69561779 0 51.09136058 0 14568
0.11850000 0.11849100 14393.13647825 0 200.60948830 0 3992.32601521 0 -255.46067822 0 406.83818144 0 16015
0.11950000 0.11950300 14506.73853089 0 -50.91453555 0 4273.72915048 0 134.02606300 0 1359.30502869 0 15270
0.12050000 0.12050700 14407.86267026 0 -70.86254667 0 4277.37194534 0 -43.56162609 0 723.11471095 0 15999
0.12150000 0.12150000 14492.45523188 0 -1.91429424 0 4259.39048984 0 466.07511922 0 1113.05652472 0 15670
0.12250000 0.12250700 14559.33207378 0 196.36325173 0 3988.25139968 0 47.16422841 0 328.78382763 0 16887
0.12350000 0.12352200 14191.06655031 0 606.02487600 0 3668.20585079 0 133.41819237 0 1073.72430527 0 16407
0.12450000 0.12449800 13645.97599949 0 567.92611353 0 3633.32802761 0 -121.19988193 0 719.41876893 0 16306
0.12550000 0.12549900 13504.91458130 0 139.00307301 0 3178.86445543 0 524.46391692 0 1107.62001323 0 17523
0.12650000 0.12650100 13391.20180542 0 -195.94139615 0 3408.39374892 0 337.83102424 0 365.80636013 0 17154
0.12750000 0.12750600 13433.27663973 0 -84.11224416 0 2905.26730916 0 533.19223057 0 193.90630285 0 18007
0.12850000 0.12850300 13540.56746722 0 21.14802968 0 3093.34181853 0 252.54090616 0 -9.35444255 0 17496
0.12950000 0.12949900 13592.16450087 0 156.16739094 0 3045.08862697 0 -189.35336289 0 40.53013428 0 18405
0.13050000 0.13049000 13226.22416562 0 444.59702354 0 3182.16400823 0 -484.20937281 0 462.35038915 0 18100
0.13150000 0.13148800 12836.58905525 0 654.68995804 0 3735.32628384 0 -404.11328230 0 607.18525564 0 19059
0.13250000 0.13249300 12567.53156216 0 315.73066390 0 3834.71147142 0 26.69061404 0 1024.44470920 0 18957
0.13350000 0.13349100 12224.17876953 0 170.22813623 0 4185.38307075 0 120.37277927 0 703.83779344 0 19468
0.13450000 0.13450700 12148.33334452 0 247.87945741 0 4126.19042227 0 147.01057831 0 855.94717734 0 19953
0.13550000 0.13551000 11924.56165994 0 119.97528280 0 4148.56759073 0 100.64366801 0 855.87077830 0 19956
0.13650000 0.13649900 11893.66987369 0 200.79882505 0 4053.76634563 0 -15.80220053 0 802.71033238 0 19723
0.13750000 0.13749600 11704.22239605 0 66.24970543 0 4023.56104352 0 414.86008077 0 834.70049324 0 20946
0.13850000 0.13851100 11517.65372285 0 148.39572615 0 3606.61050783 0 360.97218311 0 699.71556691 0 20955
0.13950000 0.13949800 11313.25860670 0 279.98255599 0 3421.31515199 0 443.47650426 0 1040.63134085 0 20506
0.14050000 0.14048300 11315.58379491 0 212.18560389 0 3056.00593925 0 521.42013482 0 756.73361080 0 21447
0.14150000 0.14148400 10947.52864562 0 -10.19175390 0 2811.77259840 0 549.84057817 0 973.91947658 0 21771
0.14250000 0.14249400 11176.62611844 0 -84.56576659 0 3139.26982188 0 163.10752414 0 555.86060117 0 22470
0.14350000 0.14350900 11140.64106278 0 57.87803135 0 3069.90170689 0 -109.01500991 0 730.22092902 0 22519
0.14450000 0.14449900 11120.71087810 0 174.61166962 0 3067.32185521 0 -514.25191174 0 872.66528058 0 22218
0.14550000 0.14550500 10890.82727022 0 309.22678030 0 2701.03827788 0 367.84145343 0 1045.47437572 0 23559
0.14650000 0.14650700 10887.60522370 0 117.64677290 0 2931.95161198 0 -55.18125592 0 931.59662220 0 23044
0.14750000 0.14750500 10585.23110522 0 231.41712487 0 2825.12582213 0 36.41034366 0 568.08666224 0 23649
0.14850000 0.14849900 10470.36680756 0 297.94961747 0 2683.42220910 0 191.58886527 0 130.65675456 0 23640
0.14950000 0.14949500 10098.19275343 0 153.84220273 0 2765.83352272 0 24.52918551 0 387.78271043 0 24457
0.15050000 0.15050000 10091.71544341 0 88.13426615 0 2400.02605536 0 -37.79704162 0 299.57835646 0 24591
0.15150000 0.15149900 10002.19569725 0 82.62091273 0 2779.62963945 0 210.95436137 0 -114.46790844 0 25020
0.15250000 0.15250500 9756.89941322 0 186.60078294 0 2435.21390364 0 123.02460106 0 289.12608183 0 25297
0.15350000 0.15350100 9733.84683294 0 174.88515605 0 2456.19595917 0 286.59051944 0 67.85176010 0 25452
0.15450000 0.15450400 9659.76190758 0 114.62070652 0 2375.20190312 0 110.39871835 0 368.49472059 0 26061
0.15550000 0.15549900 9546.44773539 0 17.77650677 0 2172.64479289 0 96.39997808 0 195.79967040 0 26128
0.15650000 0.15649500 9530.11605628 0 109.38681858 0 2445.50009340 0 35.41593816 0 256.36971608 0 26331
0.15750000 0.15749700 9541.99666081 0 175.82962535 0 2431.62647040 0 -238.43033541 0 346.09097855 0 27345
0.15850000 0.15849900 9200.81404385 0 99.40423197 0 2417.34317138 0 44.73883566 0 360.24694583 0 26980
0.15950000 0.15949700 9396.01913040 0 -79.79935220 0 2450.79266466 0 352.65797440 0 312.66362993 0 27777
0.16050000 0.16050000 9404.16836147 0 16.23047806 0 2629.75465070 0 -34.53967438 0 35.36101943 0 28224
0.16150000 0.16150500 9299.80062773 0 316.93754731 0 2508.00336700 0 -56.86480291 0 -203.24248714 0 28075
0.16250000 0.16249700 9129.84044176 0 217.87345715 0 2654.77810479 0 -314.50495754 0 530.04215416 0 28590
0.16350000 0.16349900 8952.69431699 0 100.31426635 0 2588.75383190 0 -168.24840455 0 35.98804519 0 29163
0.16450000 0.16449100 8918.81300304 0 165.15036807 0 2831.07166055 0 211.88997282 0 201.36019192 0 28996
0.16550000 0.16550500 8848.80269322 0 165.66744563 0 2670.93262670 0 33.53408584 0 131.87360306 0 30777
0.16650000 0.16650700 8706.87763369 0 -16.54039243 0 2427.97260321 0 413.04532673 0 177.78499792 0 29211
0.16750000 0.16749900 8638.18493052 0 75.10302563 0 2530.70163287 0 275.94115743 0 464.07102843 0 30922
0.16850000 0.16850800 8613.41613990 0 117.75528168 0 2324.45743848 0 349.30638168 0 329.92981325 0 30867
0.16950000 0.16949900 8502.22785407 0 159.10820041 0 2275.32953326 0 331.56408839 0 525.42278025 0 30852
0.17050000 0.17049200 8248.57196480 0 183.44738483 0 2098.20555313 0 20.33421381 0 386.18608119 0 31257
0.17150000 0.17149500 8117.02167363 0 220.77883519 0 2085.32843937 0 26.57059004 0 395.27756710 0 32608
0.17250000 0.17250900 7989.82280611 0 120.27202111 0 1973.81905612 0 -115.44116579 0 418.38772346 0 32361
0.17350000 0.17350400 7817.00596034 0 158.35971125 0 2017.01219524 0 40.30237655 0 578.34960011 0 32508
0.17450000 0.17449800 7898.58684960 0 -21.56313114 0 2032.04841234 0 81.74309882 0 375.67512324 0 32791
0.17550000 0.17549800 7831.38891028 0 9.90327555 0 2054.46987010 0 121.82103935 0 373.75075318 0 33633
0.17650000 0.17650100 7916.72331766 0 53.55085609 0 1894.03188348 0 -89.65338912 0 142.88503009 0 33984
0.17750000 0.17750300 7960.29291582 0 -36.25333809 0 2190.63732072 0 110.67851599 0 611.54332269 0 34069
0.17850000 0.17849800 7914.25418922 0 68.36075488 0 2162.36967546 0 11.20319970 0 455.56637573 0 34536
