### header ###
fiducial parameters:
Omega_m = 0.31
Omega_nu = 0
Omega_de = 0.69
Omega_k = 0
H_0 = 100
w_de = -1
zeff = 0
beta = 0
fgrowth = 0
b_1 = 2
gamma = 0.55
Lx = 3500 Ly = 3500 Lz = 3500
nx = 700 ny = 700 nz = 700
xoffset = -685.467585 yoffset = -31.7331281 zoffset = 572.489161
bins = 400 dk = 0.001
kx_ny = 0.628318531 ky_ny = 0.628318531 kz_ny = 0.628318531
############################
A(data) = 7.98326429 (not used)
A(ran) = 7.97729938 (used)
Ngal = 474474
weighted Ngal = 0
Nran = 23820508
weighted Nran = 0
SN(data) = 3487.78231
SN(ran) = 69.4851707
SN(data+ran) = 3557.26748
############################
13 columns: k_central k_mean P_0(k) sigma^{lin}_{P_0(k)} P^img_1(k) sigma^{lin}_{P_1(k)} P_2(k) sigma^{lin}_{P_2(k)} P^img_3(k) sigma^{lin}_{P_3(k)} P_4(k) sigma^{lin}_{P_4(k)} N_modes
### header ###
0.00050000 0 0 0 0 0 0 0 0 0 0 0 0
0.00150000 0.00179520 33513.60203783 0 -29603.18908163 0 5796.35097024 0 4698.52996447 0 31414.39997546 0 3
0.00250000 0.00253879 56131.48283787 0 -21418.30512919 0 -2734.98602578 0 -19167.30149356 0 -21366.04375605 0 6
0.00350000 0.00331552 61097.30979579 0 -5502.58004815 0 -1295.31806356 0 -20449.80887730 0 18875.76718108 0 7
0.00450000 0.00420575 58586.10652692 0 8990.51737857 0 -5906.34344498 0 -1412.98365941 0 12914.31677548 0 24
0.00550000 0.00557378 47243.50625945 0 2587.63552709 0 4667.09563431 0 15971.71782765 0 -9033.40049259 0 45
0.00650000 0.00659388 36899.29752088 0 -3163.66215346 0 9487.91942640 0 18249.73793584 0 535.81304986 0 40
0.00750000 0.00754703 50597.86706326 0 -10744.97153538 0 12567.53156216 0 17683.38852136 0 -9128.64463068 0 57
0.00850000 0.00846663 50945.53806256 0 -14381.95343019 0 20059.95232044 0 3528.34024368 0 15173.18176173 0 75
0.00950000 0.00948925 68324.32692817 0 -5090.22452725 0 3678.03807523 0 -1458.15874467 0 7935.40232963 0 112
0.01050000 0.01054430 75562.08421562 0 -6566.08791930 0 7120.42386135 0 -20971.09392976 0 15263.86410199 0 105
0.01150000 0.01145670 80207.47809328 0 -2334.83220683 0 18146.10097553 0 -28421.55057698 0 8947.84463872 0 144
0.01250000 0.01249090 88648.57564202 0 -1570.09994858 0 34067.21827876 0 -35497.87336858 0 -5751.50805472 0 169
0.01350000 0.01339930 87648.52326440 0 353.91246881 0 31110.02176620 0 -25627.33868575 0 -6507.44888706 0 180
0.01450000 0.01448870 98437.06439795 0 4372.62715576 0 67655.33706262 0 -22897.01410872 0 -6252.63040369 0 267
0.01550000 0.01550050 96171.11312381 0 7980.89851231 0 71118.09592641 0 1003.28992540 0 -17565.35753880 0 238
0.01650000 0.01653350 87597.47984699 0 13993.97916854 0 79766.91028875 0 6375.13460548 0 -25980.54584746 0 315
0.01750000 0.01747870 86727.63800924 0 13099.77821619 0 80391.27868527 0 21876.47793019 0 -27295.38441968 0 297
0.01850000 0.01844180 71738.58900924 0 -682.22461540 0 58011.23142233 0 20061.94533891 0 -35378.62443028 0 388
0.01950000 0.01947590 74337.70653717 0 -2949.03620917 0 56585.66960193 0 25466.67925263 0 -32015.18432012 0 399
0.02050000 0.02045430 77373.73800245 0 -312.71677709 0 39026.06967204 0 16521.12658515 0 -31763.17820725 0 462
0.02150000 0.02154770 71023.87044220 0 5190.00831852 0 30716.51134214 0 5728.57727002 0 -22581.12068164 0 571
0.02250000 0.02255340 64866.43988730 0 -499.92543065 0 18332.00530924 0 12836.03543901 0 -6944.08601629 0 510
0.02350000 0.02348930 70087.15176254 0 -6071.34322943 0 16480.15898332 0 19915.12631181 0 -361.39514592 0 555
0.02450000 0.02439640 65935.69429504 0 -855.51646390 0 18381.16643143 0 17088.36178561 0 3891.66751028 0 592
0.02550000 0.02547300 76983.43855259 0 -830.29149350 0 13370.16438826 0 6063.88048250 0 5045.41482871 0 837
0.02650000 0.02652900 69554.79438526 0 6623.25433234 0 20168.57182691 0 -9116.00003574 0 15834.97461614 0 723
0.02750000 0.02749970 67262.26953156 0 8458.30394151 0 24912.62011871 0 -10698.42348185 0 20250.61775382 0 826
0.02850000 0.02848090 64282.04258337 0 4701.18732242 0 33031.73446172 0 -12050.45399313 0 16060.85004244 0 831
0.02950000 0.02946900 60714.87169655 0 5618.64015690 0 39806.77929500 0 -4566.97967330 0 10522.72783162 0 996
0.03050000 0.03053250 54688.20529776 0 3114.99928588 0 33934.68255068 0 4629.67117642 0 1387.30693815 0 1041
0.03150000 0.03150510 53878.04329078 0 3020.92881422 0 27815.67296291 0 12081.56722587 0 -1395.84370059 0 1036
0.03250000 0.03246190 52015.89970278 0 -1567.34293970 0 21815.13725069 0 9366.89891613 0 -1168.91640343 0 1059
0.03350000 0.03345080 52603.84015065 0 -1518.52505958 0 18631.95458858 0 10152.31427714 0 -3623.44044155 0 1302
0.03450000 0.03451200 50982.18745771 0 1390.54005700 0 14044.46896972 0 5808.72982938 0 -3411.69330172 0 1339
0.03550000 0.03553350 50175.56859467 0 2057.73620592 0 13874.95167674 0 1430.19005217 0 265.17221431 0 1365
0.03650000 0.03647120 46768.94641772 0 89.81017324 0 15159.56280220 0 -2317.81404359 0 2058.88772770 0 1308
0.03750000 0.03744890 48830.72402220 0 966.18767216 0 17836.62949685 0 -4100.77943681 0 4299.95948797 0 1579
0.03850000 0.03847530 48379.63750909 0 336.66178674 0 18959.80612646 0 2770.11851243 0 5232.79178162 0 1662
0.03950000 0.03950240 46755.88107444 0 2055.06777564 0 20902.77768563 0 -1773.45426620 0 2684.67338180 0 1683
0.04050000 0.04050350 46956.40087690 0 3747.35082860 0 20002.15478488 0 1759.31490741 0 1888.30749155 0 1822
0.04150000 0.04152450 42939.02926295 0 993.17092775 0 21561.80245884 0 2690.58600326 0 2045.09161098 0 1887
0.04250000 0.04250150 43071.56499103 0 1293.62399786 0 18843.87888561 0 315.66755165 0 -983.59890294 0 1920
0.04350000 0.04349210 42335.91973008 0 81.26333499 0 19884.89886506 0 1925.84267268 0 -5804.52234595 0 2005
0.04450000 0.04448520 41673.35181293 0 182.16853131 0 18220.50699832 0 1243.21170296 0 -2239.63235804 0 2151
0.04550000 0.04548030 40161.64730544 0 1527.53793198 0 13732.34013308 0 3723.12458189 0 -2988.86336155 0 2274
0.04650000 0.04648670 40844.58830026 0 3.48994142 0 14668.61591974 0 3066.44714155 0 -1421.06645652 0 2311
0.04750000 0.04749250 39864.02321432 0 -359.02899010 0 11047.88819777 0 3682.99847675 0 -3087.44026941 0 2568
0.04850000 0.04851840 40337.14365382 0 1982.15651671 0 11959.99309936 0 -528.58835791 0 -2108.71318939 0 2493
0.04950000 0.04949480 38638.64902664 0 1124.67139345 0 10506.77261156 0 -755.36174976 0 1015.81715370 0 2644
0.05050000 0.05050630 36417.65139127 0 1693.15776662 0 13810.51074630 0 827.01187089 0 1130.42900236 0 2829
0.05150000 0.05149060 37772.46105607 0 499.64197914 0 11213.93985308 0 -957.65533866 0 846.28103777 0 2784
0.05250000 0.05249300 36734.87349732 0 37.47760505 0 15211.27055910 0 1163.40238567 0 -1589.27721517 0 3055
0.05350000 0.05348950 36121.24525587 0 421.86111175 0 14917.30033517 0 -975.62793630 0 1019.89066200 0 3009
0.05450000 0.05448610 36696.12036045 0 516.78083073 0 17009.19466316 0 218.48686395 0 -641.31126796 0 3336
0.05550000 0.05550870 35914.30350501 0 217.13493309 0 14921.28637210 0 -269.25900940 0 419.22036228 0 3349
0.05650000 0.05647670 37128.49464462 0 906.13802574 0 17245.36735154 0 1052.36136176 0 1091.60943155 0 3324
0.05750000 0.05747970 35829.60022015 0 915.55725246 0 15886.79309629 0 2513.26272129 0 334.25687779 0 3639
0.05850000 0.05849280 34658.25897758 0 1592.26674287 0 17096.11241298 0 1290.21372182 0 1718.36945023 0 3846
0.05950000 0.05951020 34064.67164405 0 1416.67074357 0 15515.42732187 0 1612.61767589 0 1990.54933892 0 3787
0.06050000 0.06049470 32118.04621769 0 279.91390758 0 14293.92844788 0 3819.07734877 0 4019.55286194 0 3930
0.06150000 0.06148310 31793.07348426 0 658.82214966 0 11944.93473760 0 3250.73491583 0 4557.73428207 0 4083
0.06250000 0.06249100 31368.33910422 0 -91.17395149 0 9132.15455765 0 4346.07572084 0 5269.29723654 0 4303
0.06350000 0.06350600 31797.61313744 0 -1222.84969762 0 8891.39792679 0 2937.04488139 0 1696.62340429 0 4470
0.06450000 0.06451750 31398.78799747 0 343.59084761 0 7218.40286367 0 -49.94471062 0 3265.64933736 0 4479
0.06550000 0.06550280 30586.63297202 0 1656.63016704 0 8337.62667331 0 -860.36171324 0 2902.34421541 0 4636
0.06650000 0.06648880 29798.72633793 0 1005.21650992 0 9246.38773280 0 -1799.04240886 0 3684.84755500 0 4653
0.06750000 0.06749660 29570.30427692 0 138.93885352 0 9025.55021430 0 557.58456215 0 3361.85676771 0 5220
0.06850000 0.06852730 29567.31474922 0 -784.13207856 0 9249.84229815 0 496.34353358 0 3296.79578708 0 5029
0.06950000 0.06949320 30494.40050628 0 -131.84260055 0 9474.59941964 0 2157.23211674 0 1551.49844289 0 5040
0.07050000 0.07048030 29800.60863315 0 1135.43369318 0 9085.77258898 0 -976.81378229 0 1868.49910245 0 5475
0.07150000 0.07148790 29043.92595504 0 1399.20968733 0 9283.00391098 0 -1176.57845220 0 2440.25181143 0 5509
0.07250000 0.07249820 28293.55450208 0 744.19641741 0 11164.11439139 0 -1395.15721645 0 2300.61872314 0 5916
0.07350000 0.07351270 27217.32452971 0 558.77483707 0 9893.28831033 0 1323.39747930 0 1816.74705624 0 5721
0.07450000 0.07449140 27087.77832933 0 256.63545188 0 10185.34302207 0 1963.11211802 0 2237.34038680 0 6028
0.07550000 0.07549160 27391.93509210 0 256.63655911 0 8931.44652566 0 2086.98928809 0 1870.89072461 0 6183
0.07650000 0.07648840 26648.64992702 0 -402.00400442 0 7636.31669162 0 1486.16065413 0 3411.42756592 0 6330
0.07750000 0.07749960 26893.68047526 0 211.42050625 0 7469.04708059 0 850.96241670 0 2146.89056536 0 6583
0.07850000 0.07848650 26840.09042314 0 344.86305773 0 6174.38228419 0 686.89935094 0 3182.30794845 0 6549
0.07950000 0.07947320 25896.72834859 0 645.86088623 0 6456.93694124 0 -891.35093595 0 1386.11112707 0 6828
0.08050000 0.08048110 25452.94956986 0 873.70386465 0 6362.54537216 0 -373.57802492 0 2190.28300633 0 7147
0.08150000 0.08149960 25086.23417186 0 192.22330948 0 7667.54064761 0 265.69704251 0 1957.89705303 0 7386
0.08250000 0.08250610 24974.95730744 0 196.42414952 0 6514.74554912 0 881.21865150 0 469.00485637 0 7227
0.08350000 0.08350160 24426.98795216 0 550.88026947 0 7717.70935137 0 422.01944600 0 1735.45404742 0 7798
0.08450000 0.08449610 23709.50130391 0 1343.03978353 0 7414.84805060 0 247.65801092 0 652.98482002 0 7371
0.08550000 0.08548940 22830.58015981 0 1008.67882589 0 7437.73454600 0 -195.23166013 0 1685.29641600 0 8256
0.08650000 0.08650700 21740.95267440 0 820.78590264 0 7707.73318670 0 -1030.31636305 0 702.05625638 0 8037
0.08750000 0.08749060 21173.05313446 0 969.02993794 0 7715.91563475 0 -345.04907279 0 731.28387220 0 8155
0.08850000 0.08849210 20847.30533829 0 -118.22917718 0 7800.91787238 0 71.72862392 0 -743.17333460 0 8718
0.08950000 0.08949900 20894.58416527 0 -175.27822358 0 7332.69140045 0 489.32810857 0 -1545.95120815 0 8571
0.09050000 0.09049190 20617.44387506 0 869.55617177 0 7813.48496105 0 11.03100290 0 -1101.17038403 0 8932
0.09150000 0.09150830 19766.31426625 0 1200.82684356 0 7121.87433590 0 112.90228171 0 593.06582703 0 9285
0.09250000 0.09250820 19166.30498432 0 221.22062095 0 7293.15212852 0 1687.24514516 0 1332.67608750 0 9204
0.09350000 0.09350330 18846.20407382 0 -408.34623208 0 6819.23448163 0 1864.42448691 0 875.78546172 0 9349
0.09450000 0.09448040 19196.42170783 0 103.30888732 0 6667.41076372 0 1273.51665599 0 236.93003540 0 9564
0.09550000 0.09549270 18845.31828783 0 991.43810891 0 6920.60161535 0 -237.59548212 0 1146.22920988 0 10155
0.09650000 0.09649430 17945.80261957 0 908.24619639 0 6812.84575021 0 -605.28524470 0 1940.28098425 0 9913
0.09750000 0.09749140 17243.15288657 0 785.74420906 0 7048.23230353 0 -488.11126007 0 2237.63933957 0 10476
0.09850000 0.09850240 16702.71271218 0 659.22518229 0 6982.25231994 0 335.07622982 0 1773.96359314 0 10575
0.09950000 0.09950330 16477.72307186 0 55.37424654 0 6448.40017881 0 1378.40478900 0 886.30084860 0 10882
0.10050000 0.10051200 16561.09767775 0 -330.74805805 0 6385.05540852 0 673.58155864 0 752.85940435 0 10875
0.10150000 0.10150300 16601.62238658 0 -71.33212397 0 6037.38440921 0 330.02724971 0 678.12564075 0 11118
0.10250000 0.10250800 16452.25672478 0 461.55207453 0 5911.84639042 0 -595.67225229 0 969.90575884 0 11575
0.10350000 0.10349800 16322.71052440 0 125.43061724 0 6082.61485610 0 -263.27441784 0 1775.35870607 0 11364
0.10450000 0.10450100 16274.65663469 0 -108.32265744 0 6019.48045998 0 326.72548245 0 1503.36704690 0 12093
0.10550000 0.10551000 16625.09571520 0 -88.58291676 0 6128.07782180 0 547.83316568 0 1830.95284899 0 12067
0.10650000 0.10649700 16611.69820217 0 -116.09111126 0 6265.87290417 0 1052.68245918 0 878.53693443 0 12054
0.10750000 0.10749900 16382.05818543 0 350.01611770 0 5271.68885870 0 853.26656750 0 2038.92432605 0 12807
0.10850000 0.10850100 16236.78928381 0 336.81458482 0 4935.93168090 0 773.69198349 0 1679.39486687 0 12736
0.10950000 0.10950300 15799.87534646 0 301.61787869 0 4649.21382973 0 833.95975471 0 1473.43855292 0 12933
0.11050000 0.11050200 15439.24972712 0 518.53357974 0 4499.03988821 0 405.14411574 0 1586.91880998 0 13428
0.11150000 0.11150900 14837.69031972 0 622.92345813 0 3961.03562527 0 332.68903659 0 1809.81578091 0 13453
0.11250000 0.11250000 14260.60075018 0 382.26979990 0 4082.31079901 0 -178.45930250 0 2223.23424499 0 13668
0.11350000 0.11349100 14109.13134666 0 171.06188229 0 4094.00317402 0 349.90207276 0 1754.46522914 0 13791
0.11450000 0.11448600 13941.82851865 0 -40.27857106 0 4176.91274226 0 48.88553203 0 1522.53324116 0 14205
0.11550000 0.11549300 13990.21457810 0 212.83554936 0 4083.98272006 0 -17.46581734 0 1254.08472593 0 14776
0.11650000 0.11649800 13768.21446549 0 128.86746687 0 4157.63582475 0 143.03007754 0 1180.37625962 0 14553
0.11750000 0.11747300 13877.83048119 0 236.39634934 0 3961.48959059 0 -285.65601523 0 1590.70554507 0 14568
0.11850000 0.11849100 13775.96509286 0 -44.68801369 0 4236.68115163 0 32.60046741 0 1225.00880096 0 16015
0.11950000 0.11950300 13677.08923223 0 98.97595445 0 3966.61607698 0 281.37323999 0 1780.55162641 0 15270
0.12050000 0.12050700 13763.89625881 0 56.71765171 0 4151.39103355 0 360.96221802 0 1249.29040929 0 15999
0.12150000 0.12150000 13672.10668606 0 -83.28580584 0 3919.16009281 0 188.06232981 0 1503.85422919 0 15670
0.12250000 0.12250700 13686.94360132 0 -10.17791349 0 3617.33959058 0 709.06282353 0 415.26200616 0 16887
0.12350000 0.12352200 13716.39598534 0 -177.11955119 0 3467.42031253 0 -223.09405831 0 539.35287210 0 16407
0.12450000 0.12449800 13792.90574984 0 91.86497528 0 3435.17770266 0 -97.47521154 0 258.24093898 0 16306
0.12550000 0.12549900 13633.24282595 0 370.08802813 0 3379.50605347 0 -73.18740271 0 87.35100990 0 17523
0.12650000 0.12650100 13404.48859520 0 467.93526979 0 3555.30135462 0 -295.69529214 0 204.23678191 0 17154
0.12750000 0.12750600 12948.08736617 0 479.59996398 0 3422.63275864 0 93.42628380 0 -111.34662007 0 18007
0.12850000 0.12850300 12426.47014397 0 494.00616581 0 3848.60723906 0 -38.28621693 0 195.42542582 0 17496
0.12950000 0.12949900 12308.10699166 0 322.72615872 0 3558.64519671 0 412.36327152 0 412.95564090 0 18405
0.13050000 0.13049000 11951.68885574 0 -32.76810241 0 3213.27724097 0 546.46573356 0 477.24820219 0 18100
0.13150000 0.13148800 12178.89296102 0 -224.83462777 0 3295.50032507 0 452.74071844 0 165.42274726 0 19059
0.13250000 0.13249300 12179.00368427 0 -195.96907697 0 2725.65205596 0 395.72821072 0 477.48514994 0 18957
0.13350000 0.13349100 12270.68253377 0 -5.86047080 0 2501.59249093 0 456.05245079 0 170.87586723 0 19468
0.13450000 0.13450700 12335.89852695 0 -35.99557437 0 2494.28475655 0 113.25770334 0 152.61649637 0 19953
0.13550000 0.13551000 12141.57922638 0 332.58052781 0 2394.93278595 0 -27.10062223 0 297.61634050 0 19956
0.13650000 0.13649900 11871.08233106 0 571.26884839 0 2805.70496440 0 -374.07295784 0 611.26540733 0 19723
0.13750000 0.13749600 11535.70161231 0 394.80699329 0 3149.64459024 0 -288.87031112 0 1287.93282290 0 20946
0.13850000 0.13851100 11401.61575875 0 34.28047125 0 3295.51139740 0 -426.85251578 0 605.72260153 0 20955
0.13950000 0.13949800 11519.53601807 0 192.40157391 0 3847.57751286 0 -309.66635160 0 928.30149833 0 20506
0.14050000 0.14048300 11471.48212836 0 136.71220900 0 4040.62349607 0 -428.97618768 0 1003.29989049 0 21447
0.14150000 0.14148400 11296.76084272 0 139.41496349 0 4122.30403626 0 192.93747443 0 1035.65100914 0 21771
0.14250000 0.14249400 11225.45507089 0 94.80334884 0 4010.62856813 0 624.24549372 0 883.15630835 0 22470
0.14350000 0.14350900 11085.39016193 0 147.33721190 0 3756.95053421 0 770.08129837 0 417.02804197 0 22519
0.14450000 0.14449900 10737.84095820 0 184.81813864 0 3126.31520184 0 729.99173190 0 308.09075978 0 22218
0.14550000 0.14550500 10592.11809126 0 171.56456583 0 2533.81295615 0 458.51272137 0 493.44812064 0 23559
0.14650000 0.14650700 10408.62752437 0 70.41777138 0 2330.75759130 0 244.40496188 0 220.70797231 0 23044
0.14750000 0.14750500 10473.79922825 0 61.77393957 0 2267.23566381 0 -221.73659128 0 -43.26876310 0 23649
0.14850000 0.14849900 10316.63864977 0 139.09829500 0 2374.01716437 0 -495.89842612 0 -201.73775820 0 23640
0.14950000 0.14949500 10170.65004704 0 318.20089957 0 2762.01357066 0 -632.81325866 0 247.11657423 0 24457
0.15050000 0.15050000 10085.44850756 0 170.46951291 0 2883.33303370 0 -276.41948187 0 107.18707981 0 24591
0.15150000 0.15149900 10053.26125931 0 121.95169279 0 3128.66253471 0 79.75196265 0 458.91353953 0 25020
0.15250000 0.15250500 10022.61306421 0 118.72078840 0 3086.01193950 0 175.10549531 0 459.67752994 0 25297
0.15350000 0.15350100 9876.72411240 0 184.95986440 0 3434.28084435 0 331.54415821 0 706.77085229 0 25452
0.15450000 0.15450400 9817.62004252 0 45.84418585 0 3260.79965909 0 306.23835983 0 480.16354532 0 26061
0.15550000 0.15549900 9536.88124675 0 169.79742279 0 2975.73158431 0 346.94576203 0 506.69062112 0 26128
0.15650000 0.15649500 9616.93415518 0 91.07972600 0 2796.45957317 0 0.78580289 0 479.92991926 0 26331
0.15750000 0.15749700 9321.63525227 0 30.08284219 0 2799.21658205 0 80.80959112 0 137.77515218 0 27345
0.15850000 0.15849900 9507.69459852 0 64.11551482 0 2708.95499013 0 -153.46795815 0 -240.40895986 0 26980
0.15950000 0.15949700 9278.19852201 0 138.87463404 0 2801.84072303 0 -162.80303520 0 -449.40573420 0 27777
0.16050000 0.16050000 9122.36662251 0 318.03038577 0 2750.49835285 0 -89.68671682 0 -388.66960364 0 28224
0.16150000 0.16150500 9023.10323051 0 235.17950085 0 3178.95303403 0 44.25652519 0 -175.57164018 0 28075
0.16250000 0.16249700 8865.35581882 0 48.21510276 0 2611.49638708 0 436.75781756 0 -133.80129481 0 28590
0.16350000 0.16349900 8760.29052862 0 16.35293797 0 2634.53789502 0 285.56522217 0 -171.79819189 0 29163
0.16450000 0.16449100 8777.28654721 0 134.43131009 0 2477.70948629 0 240.26501963 0 19.12533738 0 28996
0.16550000 0.16550500 8659.22234767 0 106.15015659 0 2549.21455997 0 162.96136945 0 -297.21220064 0 30777
0.16650000 0.16650700 8462.12389357 0 259.78995722 0 2349.75770069 0 -78.31754297 0 -188.74438502 0 29211
0.16750000 0.16749900 8311.57349301 0 303.75815907 0 2467.06898214 0 -288.26022603 0 -288.02992167 0 30922
0.16850000 0.16850800 8092.49647415 0 172.13811226 0 2462.52932897 0 -81.13046709 0 -13.25202268 0 30867
0.16950000 0.16949900 8069.94214850 0 -63.79408523 0 2466.13890686 0 125.03312078 0 -53.05957704 0 30852
0.17050000 0.17049200 8211.07000064 0 -256.22023970 0 2444.27106534 0 249.55027123 0 126.58546072 0 31257
0.17150000 0.17149500 8479.03133357 0 -125.45386913 0 2322.18761189 0 574.37574273 0 -49.22268432 0 32608
0.17250000 0.17250900 8396.56465832 0 83.10543767 0 2157.87431158 0 137.57806480 0 184.48043273 0 32361
0.17350000 0.17350400 8391.13921916 0 121.05151278 0 2033.87534594 0 20.90333130 0 208.33354209 0 32508
0.17450000 0.17449800 8173.81162762 0 166.35725147 0 2238.86836763 0 -69.80713267 0 186.53324175 0 32791
0.17550000 0.17549800 8118.97040279 0 313.36672255 0 2286.33542413 0 -262.09189355 0 360.10632731 0 33633
0.17650000 0.17650100 7863.58723085 0 173.30845699 0 2286.28006250 0 -90.96147357 0 385.00687859 0 33984
0.17750000 0.17750300 7834.48916123 0 72.39916391 0 2301.08376079 0 258.54321345 0 157.14175552 0 34069
0.17850000 0.17849800 7886.66195577 0 7.41341972 0 2226.05768781 0 341.73955490 0 240.93046636 0 34536
