### header ###
fiducial parameters:
Omega_m = 0.31
Omega_nu = 0
Omega_de = 0.69
Omega_k = 0
H_0 = 100
w_de = -1
zeff = 0
beta = 0
fgrowth = 0
b_1 = 2
gamma = 0.55
Lx = 3500 Ly = 3500 Lz = 3500
nx = 700 ny = 700 nz = 700
xoffset = -685.467585 yoffset = -31.7331281 zoffset = 572.489161
bins = 400 dk = 0.001
kx_ny = 0.628318531 ky_ny = 0.628318531 kz_ny = 0.628318531
############################
A(data) = 8.02627304 (not used)
A(ran) = 8.01771132 (used)
Ngal = 476444
weighted Ngal = 0
Nran = 23820508
weighted Nran = 0
SN(data) = 3495.61175
SN(ran) = 69.8371734
SN(data+ran) = 3565.44892
############################
13 columns: k_central k_mean P_0(k) sigma^{lin}_{P_0(k)} P^img_1(k) sigma^{lin}_{P_1(k)} P_2(k) sigma^{lin}_{P_2(k)} P^img_3(k) sigma^{lin}_{P_3(k)} P_4(k) sigma^{lin}_{P_4(k)} N_modes
### header ###
0.00050000 0 0 0 0 0 0 0 0 0 0 0 0
0.00150000 0.00179520 25858.08593497 0 -46914.65821233 0 -436.29056546 0 -110590.82318163 0 -56270.44051435 0 3
0.00250000 0.00253879 36612.63503132 0 -38020.37040876 0 -32429.95360783 0 5203.09580645 0 18573.49271353 0 6
0.00350000 0.00331552 64390.10847360 0 -41816.29552634 0 -7803.37592849 0 -44114.91015869 0 -22139.88853762 0 7
0.00450000 0.00420575 76913.90435273 0 -29458.14162650 0 -25999.47952290 0 -27872.80615897 0 34225.55252367 0 24
0.00550000 0.00557378 99205.37301711 0 -3160.67262576 0 -4484.77873384 0 -42693.66654497 0 -582.59362222 0 45
0.00650000 0.00659388 82966.92288458 0 15530.92857662 0 -28117.83670721 0 -61431.91545181 0 48902.25124053 0 40
0.00750000 0.00754703 85402.17000520 0 23584.27331021 0 10704.59076677 0 -23277.90208248 0 7476.07800685 0 57
0.00850000 0.00846663 60594.18335603 0 21104.29399733 0 10574.14770808 0 -29185.43026622 0 20794.26890241 0 75
0.00950000 0.00948925 53908.49218403 0 15420.20532843 0 27096.08257294 0 4767.65448831 0 13838.74517459 0 112
0.01050000 0.01054430 47469.71385549 0 1327.94820480 0 25874.58369895 0 2258.33351466 0 14640.71366120 0 105
0.01150000 0.01145670 47610.66455043 0 -1946.57006474 0 39332.10873003 0 16450.70659930 0 15356.87163047 0 144
0.01250000 0.01249090 57863.63733250 0 -3891.32426821 0 39290.14461897 0 7295.93128205 0 24201.77686535 0 169
0.01350000 0.01339930 62569.92899667 0 -6749.96601757 0 44037.18243846 0 13803.86735141 0 28601.91874828 0 180
0.01450000 0.01448870 68991.54522174 0 -1451.94717044 0 46991.94303957 0 13126.46251900 0 32468.70674469 0 267
0.01550000 0.01550050 68712.96552930 0 2784.71183654 0 45645.32689512 0 18669.37904646 0 29739.04650715 0 238
0.01650000 0.01653350 79232.78133950 0 -1808.27672776 0 56949.83836522 0 27330.48368935 0 37241.43235777 0 315
0.01750000 0.01747870 73367.54943656 0 -4957.73308847 0 36460.94418131 0 24544.79748823 0 24866.66997071 0 297
0.01850000 0.01844180 72681.50819080 0 2741.68478229 0 30231.87568483 0 30830.22411803 0 29172.80781593 0 388
0.01950000 0.01947590 77062.27350530 0 -4570.35673237 0 20991.35628418 0 20362.66968098 0 26415.02387335 0 399
0.02050000 0.02045430 74372.47363710 0 432.32556594 0 13384.89058027 0 2697.27368745 0 15323.10103977 0 462
0.02150000 0.02154770 71776.23491363 0 7650.63320762 0 8334.28283122 0 -1547.80028640 0 17113.71740944 0 571
0.02250000 0.02255340 67612.26571908 0 3433.53899859 0 16934.12430089 0 -5206.29570833 0 5745.82795209 0 510
0.02350000 0.02348930 67983.85293999 0 3913.44677320 0 20484.24380749 0 -16306.43420692 0 9038.01765204 0 555
0.02450000 0.02439640 65640.94900837 0 853.76703658 0 24610.78854415 0 -7119.58236466 0 8015.88705873 0 592
0.02550000 0.02547300 67433.00478026 0 -866.10824982 0 28412.80344038 0 -3964.24659947 0 4619.68393943 0 837
0.02650000 0.02652900 68447.67262665 0 -720.28241026 0 29107.25965300 0 182.76200792 0 1424.59852814 0 723
0.02750000 0.02749970 70515.87217952 0 887.46676440 0 29873.68597695 0 11662.36900823 0 -6989.91436871 0 826
0.02850000 0.02848090 68127.23954639 0 2629.86537395 0 24757.71829449 0 1661.61271321 0 -8628.89524999 0 831
0.02950000 0.02946900 65511.40280799 0 3050.30369196 0 21218.67111271 0 3257.57761257 0 -8224.05783765 0 996
0.03050000 0.03053250 59211.91432567 0 4272.14580803 0 20296.23573207 0 5339.09717220 0 -11817.82444869 0 1041
0.03150000 0.03150510 55476.33337835 0 3115.90721651 0 12990.71581672 0 2037.60671940 0 -11841.96211679 0 1036
0.03250000 0.03246190 53023.92415427 0 2918.93055799 0 18750.87135713 0 1743.22681945 0 -11464.39584047 0 1059
0.03350000 0.03345080 50641.60274629 0 1456.35395572 0 14170.25057966 0 2449.44184103 0 -8456.32199537 0 1302
0.03450000 0.03451200 50745.68259959 0 704.87748474 0 17150.92042083 0 -1440.42088031 0 -5851.84546223 0 1339
0.03550000 0.03553350 48426.36271982 0 2227.87354908 0 17961.08242782 0 -924.44943653 0 -259.26070009 0 1365
0.03650000 0.03647120 49185.92420238 0 564.89672546 0 20199.90650615 0 3223.68522630 0 1143.25075450 0 1308
0.03750000 0.03744890 48907.45523319 0 670.87880416 0 18082.32438458 0 1868.14478805 0 3941.03900665 0 1579
0.03850000 0.03847530 47700.46110471 0 1173.83251565 0 19199.41123553 0 1704.79478000 0 3013.17818685 0 1662
0.03950000 0.03950240 48015.02585281 0 106.63601020 0 19272.93147233 0 444.50180154 0 -1076.00852588 0 1683
0.04050000 0.04050350 46793.63770207 0 107.41063005 0 19218.78780397 0 799.79720372 0 -2287.59766916 0 1822
0.04150000 0.04152450 47243.61698270 0 1141.15808511 0 15306.93544554 0 -280.88162877 0 -5925.38784367 0 1887
0.04250000 0.04250150 43940.96393579 0 1070.86985993 0 16421.14349204 0 1160.49036424 0 -6989.61541594 0 1920
0.04350000 0.04349210 44798.18332325 0 1258.62437911 0 13007.43502720 0 3587.85398958 0 -12385.94543513 0 2005
0.04450000 0.04448520 42143.81489448 0 902.77536069 0 14608.16102623 0 -211.27102986 0 -10353.67557629 0 2151
0.04550000 0.04548030 43213.29074871 0 2456.71635844 0 12831.49578583 0 -1649.97569983 0 -11203.86403749 0 2274
0.04650000 0.04648670 41044.99737947 0 1886.75736607 0 12625.32909771 0 -1597.81397760 0 -6544.68511543 0 2311
0.04750000 0.04749250 40654.69792962 0 121.28735330 0 15286.45164462 0 137.02555579 0 -3642.85022696 0 2568
0.04850000 0.04851840 40790.44463189 0 -971.34737553 0 14850.09132352 0 -184.42174941 0 -3669.98849509 0 2493
0.04950000 0.04949480 41145.20191908 0 1236.53509110 0 16863.48286854 0 4091.52297326 0 -3437.69112039 0 2644
0.05050000 0.05050630 39414.37610343 0 2019.04950300 0 15825.78458654 0 3387.37847642 0 -718.59498796 0 2829
0.05150000 0.05149060 37405.85638133 0 1397.18345189 0 15405.70058292 0 1190.76210030 0 -237.10165643 0 2784
0.05250000 0.05249300 36583.62554030 0 -38.95598186 0 12403.77187809 0 3064.25482124 0 149.65797118 0 3055
0.05350000 0.05348950 37004.70605315 0 359.22497025 0 13836.19853988 0 1677.13611261 0 457.77530453 0 3009
0.05450000 0.05448610 36329.95857870 0 394.72505809 0 11457.64172234 0 1788.72300213 0 -1564.63022012 0 3336
0.05550000 0.05550870 34959.31548940 0 1256.67564994 0 12252.63464431 0 -320.33453656 0 -699.30921259 0 3349
0.05650000 0.05647670 34493.05989129 0 1221.56530794 0 10866.06955192 0 -1671.66638414 0 -1836.63295162 0 3324
0.05750000 0.05747970 33809.45455698 0 756.19771028 0 13619.62386642 0 -1249.27933696 0 893.86988984 0 3639
0.05850000 0.05849280 33764.83308797 0 921.66253237 0 15377.35543138 0 -1301.03138317 0 176.13300705 0 3846
0.05950000 0.05951020 32774.41363294 0 72.09412136 0 15241.60872911 0 1443.08931059 0 1162.93734803 0 3787
0.06050000 0.06049470 33183.64675823 0 4.90364478 0 16476.94800912 0 958.40825674 0 3270.93083630 0 3930
0.06150000 0.06148310 33714.34328679 0 -41.88505466 0 14051.44453435 0 586.69591856 0 307.35777187 0 4083
0.06250000 0.06249100 33511.60901936 0 1024.59972174 0 15359.52898843 0 397.51196224 0 1135.45583783 0 4303
0.06350000 0.06350600 31746.79116652 0 1363.10283610 0 12565.42782044 0 455.69149300 0 34.43404440 0 4470
0.06450000 0.06451750 32569.57562379 0 -194.98806899 0 13055.26747042 0 5.95074347 0 -1054.06207085 0 4479
0.06550000 0.06550280 31234.91759015 0 148.99473892 0 13576.88469262 0 291.12242199 0 822.05146937 0 4636
0.06650000 0.06648880 31799.16326291 0 -120.70162731 0 13246.26507354 0 1601.75572524 0 -2850.01640832 0 4653
0.06750000 0.06749660 31285.85028432 0 -292.36473684 0 12449.83274933 0 2015.78316718 0 -785.22602426 0 5220
0.06850000 0.06852730 32503.36312138 0 -220.90616692 0 13296.97632121 0 3381.38834869 0 -3798.84821133 0 5029
0.06950000 0.06949320 31546.04991756 0 1080.71537116 0 12442.96790795 0 696.26543050 0 -545.20459577 0 5040
0.07050000 0.07048030 30576.77860293 0 1908.48126737 0 12467.88063879 0 -123.57157391 0 -19.67009576 0 5475
0.07150000 0.07148790 28474.69773611 0 1884.27716531 0 10836.41786606 0 -1.95818493 0 3899.50671625 0 5509
0.07250000 0.07249820 28307.39490810 0 512.99741734 0 11088.71185938 0 1543.74781551 0 1850.65051484 0 5916
0.07350000 0.07351270 26641.23146939 0 181.36910946 0 10481.22875820 0 1926.80596494 0 2324.97783774 0 5721
0.07450000 0.07449140 27191.19384314 0 -60.26998569 0 10238.54554283 0 1833.23374790 0 245.90969083 0 6028
0.07550000 0.07549160 26979.82316235 0 -475.96934868 0 8383.47717039 0 1182.51321831 0 -544.29998683 0 6183
0.07650000 0.07648840 27589.02247387 0 -385.19178642 0 8878.93048905 0 946.06150734 0 -543.74415612 0 6330
0.07750000 0.07749960 27352.40689249 0 633.03802686 0 8179.76853837 0 -676.48250775 0 388.30089523 0 6583
0.07850000 0.07848650 27286.30511333 0 712.19186252 0 9099.64621198 0 25.08579128 0 777.78542198 0 6549
0.07950000 0.07947320 25971.24509462 0 1076.85002256 0 7694.97786851 0 376.43468472 0 952.52331610 0 6828
0.08050000 0.08048110 25861.85052541 0 497.64342451 0 8591.45971978 0 805.15399446 0 2247.20582822 0 7147
0.08150000 0.08149960 24715.64346018 0 897.89025098 0 7799.48954248 0 1161.64188602 0 281.52160914 0 7386
0.08250000 0.08250610 24777.53775592 0 525.33087995 0 7526.32421688 0 541.52747670 0 2169.43381869 0 7227
0.08350000 0.08350160 23456.72012830 0 624.96187313 0 7889.45218163 0 -551.00317228 0 748.12044932 0 7798
0.08450000 0.08449610 23309.56893146 0 1203.90494986 0 7861.87102051 0 -1823.56760833 0 1013.56947176 0 7371
0.08550000 0.08548940 22870.55125240 0 310.14356880 0 9312.14626990 0 -597.59219341 0 2626.13400049 0 8256
0.08650000 0.08650700 22660.17708085 0 157.40638409 0 9090.22366356 0 -163.45740960 0 498.62332526 0 8037
0.08750000 0.08749060 22243.41477467 0 685.20971417 0 9955.81372858 0 1233.46805712 0 1596.38564770 0 8155
0.08850000 0.08849210 21564.01692380 0 784.40002882 0 8329.21170645 0 813.17700103 0 1120.36425910 0 8718
0.08950000 0.08949900 20906.43155282 0 697.86205974 0 8416.43948137 0 1988.15771676 0 2081.32025779 0 8571
0.09050000 0.09049190 20536.83735038 0 51.81958738 0 6769.11006718 0 2089.91238184 0 2164.19660905 0 8932
0.09150000 0.09150830 20101.25209201 0 -50.72132348 0 6859.63739490 0 1585.49048008 0 1240.00072877 0 9285
0.09250000 0.09250820 19949.33979550 0 286.82857443 0 6143.47942563 0 332.01694648 0 1410.52560330 0 9204
0.09350000 0.09350330 19860.65047370 0 123.04231678 0 5701.39471259 0 249.07526849 0 1180.76379099 0 9349
0.09450000 0.09448040 19575.75955612 0 364.07021959 0 5802.39645959 0 -463.55062916 0 1960.42154309 0 9564
0.09550000 0.09549270 19621.70970412 0 233.25734526 0 6235.98869949 0 -142.43660093 0 2234.50587165 0 10155
0.09650000 0.09649430 19112.60420895 0 463.26164148 0 6475.71560413 0 260.14427161 0 2724.71090835 0 9913
0.09750000 0.09749140 18861.92677506 0 578.55886705 0 6832.46590979 0 -648.88141644 0 1810.64620527 0 10476
0.09850000 0.09850240 18616.23188733 0 441.83890742 0 7153.38617233 0 42.59014031 0 1762.81376205 0 10575
0.09950000 0.09950330 18192.60473977 0 334.95664872 0 7531.49499257 0 -310.27090053 0 1886.74629375 0 10882
0.10050000 0.10051200 17850.91279587 0 156.62135626 0 7038.04576470 0 222.48950937 0 1616.75872537 0 10875
0.10150000 0.10150300 17989.87047234 0 220.17317902 0 7699.69467889 0 387.08293950 0 1400.21726889 0 11118
0.10250000 0.10250800 17577.31564960 0 146.70276768 0 6569.44283372 0 710.07926294 0 1292.82679047 0 11575
0.10350000 0.10349800 17484.64029087 0 73.45070260 0 6589.26229515 0 1076.55217702 0 1717.86012329 0 11364
0.10450000 0.10450100 17332.83871761 0 261.60471126 0 6133.41468237 0 320.11862623 0 1438.91504413 0 12093
0.10550000 0.10551000 17014.28793257 0 488.42017794 0 6688.84678457 0 179.79351764 0 707.59684772 0 12067
0.10650000 0.10649700 16514.15102051 0 656.71508625 0 6367.68293088 0 -582.53604613 0 1103.37377667 0 12054
0.10750000 0.10749900 16270.78132100 0 188.27934738 0 6238.45782792 0 -144.51709077 0 1048.66763420 0 12807
0.10850000 0.10850100 16051.77073609 0 -69.11743755 0 6195.94010062 0 200.75121405 0 330.43914019 0 12736
0.10950000 0.10950300 16308.98084163 0 158.94765170 0 6054.54651268 0 331.89847260 0 212.27861142 0 12933
0.11050000 0.11050200 16007.37071357 0 157.14507722 0 5937.25737588 0 701.72519387 0 462.48214982 0 13428
0.11150000 0.11150900 15638.77302035 0 376.62291424 0 4965.16261843 0 1097.99594850 0 186.48120183 0 13453
0.11250000 0.11250000 15424.41281186 0 533.97282947 0 5181.80372583 0 605.45575850 0 364.06800513 0 13668
0.11350000 0.11349100 14905.78511736 0 413.71520238 0 4788.18257852 0 557.58456215 0 565.06391756 0 13791
0.11450000 0.11448600 14535.08368243 0 137.02998472 0 4479.15399284 0 742.07938890 0 1382.85586358 0 14205
0.11550000 0.11549300 14708.25484259 0 -180.53314894 0 4170.00361157 0 494.41362736 0 1501.38510076 0 14776
0.11650000 0.11649800 14837.35814998 0 -240.74112960 0 4056.70051171 0 235.29686749 0 1138.27928066 0 14553
0.11750000 0.11747300 15114.83060993 0 -5.49804039 0 4445.90380141 0 -499.49360999 0 661.99104902 0 14568
0.11850000 0.11849100 14472.74649370 0 773.86914069 0 4006.50966330 0 -721.20473492 0 1191.20499329 0 16015
0.11950000 0.11950300 14231.03764291 0 430.72672224 0 4325.82443875 0 -130.11863957 0 905.25445422 0 15270
0.12050000 0.12050700 14024.98167803 0 -24.56052019 0 4428.35416657 0 494.31619090 0 915.65911785 0 15999
0.12150000 0.12150000 13939.17116069 0 -133.61860145 0 4123.42234106 0 915.73330243 0 606.78886641 0 15670
0.12250000 0.12250700 14113.00666034 0 -25.28741831 0 3750.40679025 0 338.76663569 0 -222.84493100 0 16887
0.12350000 0.12352200 13679.08225070 0 463.45540717 0 3808.21539813 0 -123.11428689 0 -75.35647114 0 16407
0.12450000 0.12449800 13661.92014723 0 552.30638491 0 4285.66511663 0 -481.21984511 0 257.68953720 0 16306
0.12550000 0.12549900 13075.75127133 0 447.86446659 0 4266.00066775 0 -64.83067628 0 1109.91198447 0 17523
0.12650000 0.12650100 13157.13285875 0 204.27332058 0 4494.79918780 0 -338.37688985 0 1033.45425990 0 17154
0.12750000 0.12750600 13087.26648914 0 -170.37429091 0 4827.06858329 0 -0.91044184 0 755.09158503 0 18007
0.12850000 0.12850300 13063.46099078 0 156.32683242 0 5223.19207600 0 -68.81726683 0 833.04850238 0 17496
0.12950000 0.12949900 13068.66498345 0 122.02477013 0 5083.33754121 0 -408.07606735 0 765.25930091 0 18405
0.13050000 0.13049000 13101.32834166 0 -60.62042477 0 5018.69730892 0 425.14737776 0 556.77628244 0 18100
0.13150000 0.13148800 12952.95918909 0 -37.13502732 0 4638.19686653 0 732.77420713 0 422.18995980 0 19059
0.13250000 0.13249300 13061.57869556 0 -192.73927982 0 3958.98724518 0 954.80089332 0 -566.68269145 0 18957
0.13350000 0.13349100 12856.29779343 0 162.86725469 0 3611.99165769 0 742.42152374 0 -469.63265718 0 19468
0.13450000 0.13450700 12814.00151262 0 416.62058042 0 2768.41337441 0 399.70428256 0 -608.47628871 0 19953
0.13550000 0.13551000 12280.86907260 0 304.57861834 0 2733.14801986 0 141.49988225 0 -227.69018034 0 19956
0.13650000 0.13649900 12148.66551427 0 82.83815175 0 2818.51564421 0 -18.73891325 0 201.68350380 0 19723
0.13750000 0.13749600 12204.13786161 0 0.00378159 0 3123.92357968 0 236.66097791 0 618.75472784 0 20946
0.13850000 0.13851100 12257.72791373 0 -108.16044788 0 3131.15380779 0 237.17141208 0 538.85240302 0 20955
0.13950000 0.13949800 12267.25011307 0 132.08508446 0 3297.69264539 0 206.62508237 0 1227.88760541 0 20506
0.14050000 0.14048300 12243.99823096 0 284.07710171 0 3159.21107888 0 95.59834176 0 1033.15862883 0 21447
0.14150000 0.14148400 11822.36410186 0 273.30815859 0 3143.06762929 0 110.27016865 0 1473.40533594 0 21771
0.14250000 0.14249400 11730.79597561 0 322.08064218 0 3014.73938465 0 -227.67357185 0 872.59331047 0 22470
0.14350000 0.14350900 11415.23471828 0 294.83718697 0 2817.54127963 0 -66.10897618 0 465.42738822 0 22519
0.14450000 0.14449900 11226.11941038 0 240.44439130 0 2904.54760805 0 -465.43403161 0 -64.83565882 0 22218
0.14550000 0.14550500 10978.43150418 0 197.99752687 0 2995.79463688 0 -307.21604612 0 -245.99826943 0 23559
0.14650000 0.14650700 10790.71130921 0 290.13366339 0 3076.66689736 0 -194.16871695 0 -412.04992473 0 23044
0.14750000 0.14750500 10459.64879713 0 255.25251851 0 3058.63008023 0 132.98747893 0 -858.66321862 0 23649
0.14850000 0.14849900 10406.51271033 0 218.92089908 0 2965.64469640 0 488.24302074 0 -628.24703191 0 23640
0.14950000 0.14949500 10140.76584235 0 105.19849027 0 2705.88795616 0 491.03103213 0 -438.94238725 0 24457
0.15050000 0.15050000 10037.57177504 0 -6.69999662 0 2539.26053996 0 501.66157119 0 -348.72508463 0 24591
0.15150000 0.15149900 10119.59555730 0 100.28171371 0 2310.18521179 0 323.31963533 0 -234.60373995 0 25020
0.15250000 0.15250500 9974.29343871 0 74.31367959 0 2294.88325889 0 203.03211297 0 -85.95788999 0 25297
0.15350000 0.15350100 9948.93781487 0 185.79250322 0 2340.68946666 0 -317.22321329 0 -199.64619604 0 25452
0.15450000 0.15450400 9728.48782773 0 232.95728525 0 2529.79370224 0 -343.94405477 0 100.10466724 0 26061
0.15550000 0.15549900 9691.86057723 0 245.62513208 0 2892.46770167 0 -413.58122725 0 355.02634468 0 26128
0.15650000 0.15649500 9607.73305326 0 213.37477158 0 3251.50997857 0 -193.44790860 0 17.03864705 0 26331
0.15750000 0.15749700 9460.65936269 0 123.82402291 0 3259.71457126 0 7.94271006 0 264.27424877 0 27345
0.15850000 0.15849900 9395.60945438 0 -27.61028134 0 3025.66776924 0 336.80683419 0 11.05931484 0 26980
0.15950000 0.15949700 9368.57083718 0 4.91834883 0 3102.99688578 0 489.05351491 0 85.69160058 0 27777
0.16050000 0.16050000 9338.23266717 0 85.88890940 0 2842.26578095 0 231.78472606 0 -247.81745239 0 28224
0.16150000 0.16150500 9278.29817293 0 104.87041729 0 2486.91058822 0 145.64093173 0 -58.81895752 0 28075
0.16250000 0.16249700 9052.62204848 0 182.17517471 0 2420.08910794 0 152.76154383 0 254.50735105 0 28590
0.16350000 0.16349900 8964.10988388 0 277.93749760 0 2427.50756556 0 96.35203491 0 -65.91720351 0 29163
0.16450000 0.16449100 8669.82963485 0 306.18410544 0 2526.12876272 0 84.33169764 0 165.24891176 0 28996
0.16550000 0.16550500 8468.59013127 0 241.99451677 0 2527.92247935 0 22.43452310 0 79.18982072 0 30777
0.16650000 0.16650700 8320.79673959 0 19.20849054 0 2492.85642664 0 179.57539284 0 682.07513901 0 29211
0.16750000 0.16749900 8370.43397175 0 -8.58469453 0 2393.49338372 0 243.55682180 0 419.04209785 0 30922
0.16850000 0.16850800 8352.38608230 0 -57.33836624 0 2261.41162096 0 123.85059649 0 429.65492119 0 30867
0.16950000 0.16949900 8435.73854353 0 40.09366323 0 2502.44505994 0 0.91195764 0 508.57955973 0 30852
0.17050000 0.17049200 8513.31125121 0 14.97321558 0 2386.58425304 0 129.33582621 0 569.74086757 0 31257
0.17150000 0.17149500 8281.22425069 0 118.87469372 0 2364.51710967 0 -10.27035633 0 496.45536406 0 32608
0.17250000 0.17250900 8337.93669841 0 247.37345217 0 2409.95793073 0 61.02334667 0 673.86279570 0 32361
0.17350000 0.17350400 8112.39344185 0 86.60971775 0 2322.89624068 0 257.39501336 0 678.68811485 0 32508
0.17450000 0.17449800 8151.53411009 0 -15.18967953 0 2222.38167597 0 244.77034860 0 844.82059813 0 32791
0.17550000 0.17549800 8139.43205906 0 46.99061436 0 2115.36765660 0 167.82212004 0 775.60638845 0 33633
0.17650000 0.17650100 8028.64237692 0 107.04623984 0 1848.92323217 0 64.02737911 0 496.14091003 0 33984
0.17750000 0.17750300 7891.75522519 0 186.38376537 0 1822.00641053 0 83.23365519 0 630.10496801 0 34069
0.17850000 0.17849800 7814.26002379 0 109.85827817 0 1672.79576128 0 41.13136151 0 536.57593304 0 34536
