### header ###
fiducial parameters:
Omega_m = 0.31
Omega_nu = 0
Omega_de = 0.69
Omega_k = 0
H_0 = 100
w_de = -1
zeff = 0
beta = 0
fgrowth = 0
b_1 = 2
gamma = 0.55
Lx = 3500 Ly = 3500 Lz = 3500
nx = 700 ny = 700 nz = 700
xoffset = -685.467585 yoffset = -31.7331281 zoffset = 572.489161
bins = 400 dk = 0.001
kx_ny = 0.628318531 ky_ny = 0.628318531 kz_ny = 0.628318531
############################
A(data) = 8.00402815 (not used)
A(ran) = 7.99423819 (used)
Ngal = 475156
weighted Ngal = 0
Nran = 23820508
weighted Nran = 0
SN(data) = 3498.31558
SN(ran) = 69.6327139
SN(data+ran) = 3567.94829
############################
13 columns: k_central k_mean P_0(k) sigma^{lin}_{P_0(k)} P^img_1(k) sigma^{lin}_{P_1(k)} P_2(k) sigma^{lin}_{P_2(k)} P^img_3(k) sigma^{lin}_{P_3(k)} P_4(k) sigma^{lin}_{P_4(k)} N_modes
### header ###
0.00050000 0 0 0 0 0 0 0 0 0 0 0 0
0.00150000 0.00179520 37099.15298385 0 -62619.53301185 0 -51481.10641404 0 82814.45697183 0 -46082.90517196 0 3
0.00250000 0.00253879 62409.71245654 0 -65480.40029850 0 -28768.55723680 0 -16489.68118267 0 60607.58086906 0 6
0.00350000 0.00331552 102846.17486398 0 -43312.94167208 0 -6030.89602687 0 -79009.56327115 0 -79138.11296230 0 7
0.00450000 0.00420575 126898.80751402 0 -3770.73557861 0 -213.66486649 0 -67477.18335629 0 18952.16622233 0 24
0.00550000 0.00557378 82483.83735275 0 51232.08982887 0 7441.39948552 0 -31720.21758695 0 45349.47437597 0 45
0.00650000 0.00659388 54830.15250194 0 28948.48251510 0 -2731.74183461 0 -505.47377262 0 38090.79039461 0 40
0.00750000 0.00754703 53820.91009472 0 -15694.90970718 0 24355.12856409 0 37661.40563814 0 -16762.28181970 0 57
0.00850000 0.00846663 55023.25384677 0 -5683.18073827 0 24434.84930278 0 19068.75780267 0 -1156.84756938 0 75
0.00950000 0.00948925 59652.92502319 0 5174.30776192 0 20102.24860125 0 -5250.61822458 0 -5023.28125140 0 112
0.01050000 0.01054430 52331.46096011 0 4267.35149138 0 29599.53521444 0 -6562.55584769 0 26859.24554507 0 105
0.01150000 0.01145670 54996.90171371 0 1311.76046591 0 39636.92983229 0 -5248.99059283 0 -12043.14625875 0 144
0.01250000 0.01249090 62308.06851471 0 -559.85992490 0 48717.67558580 0 3520.12457867 0 12388.71351634 0 169
0.01350000 0.01339930 57517.29501217 0 -133.68171370 0 51368.61159388 0 960.35920038 0 -15292.98431627 0 180
0.01450000 0.01448870 66595.71557748 0 -3803.27714126 0 44852.76988461 0 15693.02741196 0 4666.20984832 0 267
0.01550000 0.01550050 74732.98853320 0 -5034.68574596 0 33024.75889709 0 13674.09970453 0 -14170.69347265 0 238
0.01650000 0.01653350 75422.79436940 0 -5321.02713810 0 22361.33503399 0 12475.63126616 0 -20462.87422059 0 315
0.01750000 0.01747870 78625.90721619 0 -2127.37005671 0 25535.99200600 0 -7411.05024319 0 -14187.74485287 0 297
0.01850000 0.01844180 70090.47345999 0 7635.01015730 0 17263.96885723 0 7567.28074638 0 -26388.56101703 0 388
0.01950000 0.01947590 66295.76629814 0 9486.13678210 0 12786.54214707 0 -3926.05815117 0 -12385.17037239 0 399
0.02050000 0.02045430 58730.60036580 0 4910.79750357 0 10397.75450140 0 5288.35270756 0 -6716.79333241 0 462
0.02150000 0.02154770 55739.52253929 0 -2194.49048976 0 19041.63060687 0 9067.44789141 0 -2722.15320131 0 571
0.02250000 0.02255340 64561.95095479 0 -7422.28865288 0 24348.48516920 0 7307.83403123 0 52.39069790 0 510
0.02350000 0.02348930 65167.16422938 0 -2161.20708135 0 18068.81614830 0 9115.51285345 0 13411.35343659 0 555
0.02450000 0.02439640 70841.84142218 0 1600.50455254 0 20928.57620246 0 -1558.54044147 0 15731.11620934 0 592
0.02550000 0.02547300 70957.54721654 0 1590.97128087 0 21673.96510925 0 -2119.79658653 0 16683.77903674 0 837
0.02650000 0.02652900 69216.31341556 0 5201.27994518 0 20076.11791467 0 5040.05582350 0 12715.67926823 0 723
0.02750000 0.02749970 68202.86352490 0 2228.20571883 0 24982.59721156 0 -10380.80277210 0 -1569.82314046 0 826
0.02850000 0.02848090 62674.45174295 0 5536.08490305 0 24040.23164624 0 144.80164951 0 -624.33850125 0 831
0.02950000 0.02946900 62445.80823545 0 -719.57156701 0 25438.55554759 0 -7242.06442181 0 -12675.81889888 0 996
0.03050000 0.03053250 63256.74530517 0 -2470.05850984 0 24645.55564408 0 3612.29061046 0 -19549.51814630 0 1041
0.03150000 0.03150510 60336.75180399 0 4394.46178030 0 29576.94767181 0 -1951.18722419 0 -17982.56273796 0 1036
0.03250000 0.03246190 61066.30728629 0 5754.08790640 0 29315.53008284 0 2670.96584368 0 -17880.91879613 0 1059
0.03350000 0.03345080 56197.80606354 0 1034.89366213 0 32102.32351645 0 6269.29425254 0 -3024.85948953 0 1302
0.03450000 0.03451200 57133.30678746 0 276.00426968 0 31051.22772141 0 4676.97214805 0 -3392.93678348 0 1339
0.03550000 0.03553350 57312.78917277 0 1547.10272993 0 33107.13699374 0 10972.79569085 0 619.77891789 0 1365
0.03650000 0.03647120 55204.61852730 0 1672.18678341 0 29913.32489980 0 8523.60851329 0 4196.51075719 0 1308
0.03750000 0.03744890 52915.30464780 0 4712.78004651 0 27995.81968771 0 2780.74794425 0 10319.92713024 0 1579
0.03850000 0.03847530 48101.61143289 0 3202.37100102 0 28420.66479100 0 4081.28107280 0 10340.83167950 0 1662
0.03950000 0.03950240 44941.45920640 0 670.00630496 0 24368.96897011 0 4938.12400122 0 12042.37119601 0 1683
0.04050000 0.04050350 46027.10065487 0 -1710.20914684 0 23670.30527405 0 5708.43671118 0 5795.06658056 0 1822
0.04150000 0.04152450 46429.24749229 0 -1776.97526549 0 22730.70778994 0 2244.02807100 0 2266.29451621 0 1887
0.04250000 0.04250150 45766.90102163 0 1491.81861212 0 20715.76611945 0 351.46880672 0 -308.92118414 0 1920
0.04350000 0.04349210 44882.99733136 0 4300.49095956 0 18547.14058047 0 -3639.83855461 0 -1016.34641082 0 2005
0.04450000 0.04448520 41106.00588922 0 3884.58122240 0 19133.64162611 0 -1274.50209290 0 2885.00495475 0 2151
0.04550000 0.04548030 38385.75712778 0 1979.52130340 0 17868.18562259 0 738.07785071 0 -1711.78141696 0 2274
0.04650000 0.04648670 37598.95772617 0 296.77262935 0 16854.51428544 0 6423.73103911 0 -3496.82840725 0 2311
0.04750000 0.04749250 36123.12755109 0 29.59721003 0 12705.04983640 0 5514.13955526 0 -253.68024838 0 2568
0.04850000 0.04851840 36876.82070149 0 -462.65266362 0 11191.02014070 0 3514.68806718 0 -3750.08569283 0 2493
0.04950000 0.04949480 38650.60713744 0 -2301.79238957 0 10660.92151768 0 3556.97327567 0 -1320.69583204 0 2644
0.05050000 0.05050630 37812.54287192 0 223.47826798 0 11593.49914786 0 -3912.61634884 0 -1535.97504349 0 2829
0.05150000 0.05149060 39144.10065461 0 2344.12188736 0 12865.26637653 0 -4810.64832558 0 1677.05860633 0 2784
0.05250000 0.05249300 38173.16849126 0 1435.47155111 0 18675.46882511 0 -2102.78949561 0 5893.13416148 0 3055
0.05350000 0.05348950 36310.24984052 0 458.57140469 0 19101.31043764 0 2597.27952201 0 10017.01046786 0 3009
0.05450000 0.05448610 36604.10934121 0 1643.32123261 0 19226.53843134 0 3440.70279274 0 6008.16454402 0 3336
0.05550000 0.05550870 35033.94295868 0 1799.50744650 0 18249.73793584 0 2175.59003129 0 5971.38228097 0 3349
0.05650000 0.05647670 33837.79970852 0 1061.53921180 0 18756.73968928 0 1306.83328137 0 9568.02769646 0 3324
0.05750000 0.05747970 32623.83001540 0 -96.47903448 0 15336.27710631 0 1903.81981862 0 7702.98315936 0 3639
0.05850000 0.05849280 33074.14146578 0 -803.39570928 0 15444.12155004 0 924.04308221 0 6137.25677908 0 3846
0.05950000 0.05951020 33659.75672544 0 -214.24948524 0 15065.00514825 0 1681.69791043 0 761.34634132 0 3787
0.06050000 0.06049470 33772.14082235 0 622.74740817 0 14449.27316509 0 -326.04896340 0 3057.57820937 0 3930
0.06150000 0.06148310 32827.45006882 0 225.95736150 0 11647.64281622 0 1890.23407606 0 1801.92121331 0 4083
0.06250000 0.06249100 32977.59079336 0 -115.05474166 0 11696.13959893 0 2530.81235612 0 1608.95273637 0 4303
0.06350000 0.06350600 33169.58490572 0 465.36316873 0 10438.02454676 0 1757.44368451 0 1517.80535846 0 4470
0.06450000 0.06451750 32618.40457624 0 546.45798294 0 10481.71594049 0 1273.15126927 0 1745.23091024 0 4479
0.06550000 0.06550280 31878.21966212 0 742.01849112 0 10372.33244361 0 520.40148094 0 2052.80902138 0 4636
0.06650000 0.06648880 31085.44120510 0 1418.06585650 0 10723.80125033 0 -1576.80977742 0 2440.09679888 0 4653
0.06750000 0.06749660 29964.36831721 0 1003.68963632 0 9974.32665568 0 54.07191970 0 4134.55002751 0 5220
0.06850000 0.06852730 29071.49604384 0 612.55090424 0 11604.01785644 0 646.36910594 0 992.92069320 0 5029
0.06950000 0.06949320 28988.56433095 0 -778.92365697 0 10909.78309031 0 474.62516844 0 -240.20633631 0 5040
0.07050000 0.07048030 29383.95705022 0 -4.64140784 0 10324.79895317 0 400.47823806 0 -2148.65106501 0 5475
0.07150000 0.07148790 29216.87566871 0 220.01705924 0 9037.86263949 0 1807.20271225 0 -689.11935206 0 5509
0.07250000 0.07249820 29096.74094442 0 13.33229704 0 7206.77692261 0 1192.60010622 0 -868.77446564 0 5916
0.07350000 0.07351270 29362.36601682 0 46.86317190 0 6182.11076692 0 2704.10531186 0 -183.83491620 0 5721
0.07450000 0.07449140 27921.30294168 0 1298.89442448 0 5523.75033320 0 489.24728060 0 -1378.08369158 0 6028
0.07550000 0.07549160 27810.13680050 0 1316.62121651 0 5937.32380983 0 894.59291265 0 1636.48960820 0 6183
0.07650000 0.07648840 26724.16318228 0 699.44429496 0 7217.40635444 0 -601.51179640 0 2768.02584304 0 6330
0.07750000 0.07749960 26148.18084522 0 562.52614071 0 8256.36688147 0 337.34937811 0 4224.98877662 0 6583
0.07850000 0.07848650 25385.40838846 0 835.13563561 0 8757.68853228 0 -72.88512824 0 3505.91878593 0 6549
0.07950000 0.07947320 24685.74818317 0 1049.45709096 0 7848.27420563 0 634.48185801 0 5076.18481938 0 6828
0.08050000 0.08048110 25032.42267324 0 -132.30874542 0 8051.18563025 0 -19.93350637 0 4876.86082800 0 7147
0.08150000 0.08149960 24730.14820569 0 -593.61390711 0 7632.72925838 0 1002.67319690 0 3847.75467005 0 7386
0.08250000 0.08250610 24838.21409592 0 285.03928674 0 8073.92818543 0 -793.83143511 0 1204.10425170 0 7227
0.08350000 0.08350160 24383.58443887 0 1303.58909020 0 8002.16844828 0 -1082.75267892 0 775.91641355 0 7798
0.08450000 0.08449610 22880.95923773 0 1402.39851688 0 7958.24453573 0 -1592.74285284 0 596.66765429 0 7371
0.08550000 0.08548940 22213.51949766 0 418.39547408 0 8511.17429252 0 -2.00847543 0 676.65191432 0 8256
0.08650000 0.08650700 22014.32837418 0 -199.52772216 0 8686.38276045 0 980.49200860 0 690.34948735 0 8037
0.08750000 0.08749060 22200.67560087 0 -76.54763185 0 8155.07725403 0 2479.34819037 0 394.23787580 0 8155
0.08850000 0.08849210 21744.49581835 0 368.93097019 0 7047.36866220 0 1840.60791623 0 761.96971321 0 8718
0.08950000 0.08949900 21680.71922739 0 317.66832074 0 6092.13705544 0 1024.89203112 0 1331.71279524 0 8571
0.09050000 0.09049190 21164.52744435 0 487.40484575 0 6437.20605841 0 -4.14287642 0 1302.32684517 0 8932
0.09150000 0.09150830 20348.05421222 0 1161.02183583 0 6689.86543845 0 -1156.38253173 0 1320.39687927 0 9285
0.09250000 0.09250820 20060.39521343 0 704.38808799 0 6902.52050892 0 -669.35414503 0 1672.46359153 0 9204
0.09350000 0.09350330 19923.31983218 0 -179.81012612 0 6834.37034966 0 -938.84235156 0 384.13437940 0 9349
0.09450000 0.09448040 19661.57007346 0 265.28958096 0 8332.92093527 0 -856.24170118 0 312.55290668 0 9564
0.09550000 0.09549270 19711.50625840 0 934.15432923 0 9392.90780713 0 -536.87710027 0 -1444.34048329 0 10155
0.09650000 0.09649430 18695.39900979 0 1063.28642466 0 8636.23620135 0 228.46745754 0 61.40788851 0 9913
0.09750000 0.09749140 18445.38591538 0 424.50518292 0 8014.83518787 0 793.05083621 0 211.15587769 0 10476
0.09850000 0.09850240 17814.48484722 0 -43.95557940 0 8100.16959525 0 1283.94678597 0 -369.11809248 0 10575
0.09950000 0.09950330 18301.88858573 0 -97.97457339 0 7625.89763397 0 972.44242845 0 -1746.24956412 0 10882
0.10050000 0.10051200 17584.62338398 0 318.78773278 0 6654.63330088 0 142.72115968 0 -750.30391178 0 10875
0.10150000 0.10150300 17154.02067178 0 601.04122260 0 6685.20398970 0 718.64149173 0 -1161.66403067 0 11118
0.10250000 0.10250800 16702.93415867 0 324.62727689 0 5484.23320592 0 832.87245242 0 -1031.73694232 0 11575
0.10350000 0.10349800 16630.29970786 0 -30.55817710 0 5520.20718926 0 471.30014930 0 -1902.69044149 0 11364
0.10450000 0.10450100 16411.95346244 0 227.40672882 0 5044.87228480 0 150.74970241 0 -1856.21989422 0 12093
0.10550000 0.10551000 16164.15483300 0 -55.14305640 0 4573.46805564 0 554.09456536 0 -1435.06187510 0 12067
0.10650000 0.10649700 16081.44456660 0 44.16971817 0 4324.56219372 0 983.53357622 0 -1002.40635388 0 12054
0.10750000 0.10749900 16164.48700274 0 21.65813168 0 4475.65513819 0 839.63653565 0 -221.50850139 0 12807
0.10850000 0.10850100 16009.36373203 0 524.86805677 0 4528.50334455 0 390.38470676 0 -46.68446458 0 12736
0.10950000 0.10950300 15583.07922651 0 642.02654014 0 5153.97897356 0 -719.97570687 0 1026.09891452 0 12933
0.11050000 0.11050200 15229.31844856 0 669.68963647 0 4863.69583379 0 -444.48630029 0 1441.41738954 0 13428
0.11150000 0.11150900 15103.75828512 0 257.24553698 0 5948.30755605 0 -539.31079727 0 2223.27853428 0 13453
0.11250000 0.11250000 14955.94274879 0 -126.04956020 0 5892.20408619 0 367.04092434 0 1973.98514099 0 13668
0.11350000 0.11349100 14949.07790740 0 -50.11821395 0 5986.85031874 0 567.07465175 0 1149.66163057 0 13791
0.11450000 0.11448600 15021.82308146 0 43.16988724 0 5790.99196502 0 527.12902550 0 1110.44345606 0 14205
0.11550000 0.11549300 14734.05335942 0 296.93317806 0 4944.16949057 0 468.48777880 0 404.15092821 0 14776
0.11650000 0.11649800 14481.82580005 0 469.30602360 0 5024.96424477 0 88.25351509 0 462.38914229 0 14553
0.11750000 0.11747300 14057.64503625 0 211.83461120 0 4727.80519129 0 -222.62569897 0 69.36822571 0 14568
0.11850000 0.11849100 13893.66390569 0 155.13766473 0 4615.97471062 0 250.51688518 0 498.45502592 0 16015
0.11950000 0.11950300 13902.07887255 0 151.54801703 0 4557.16959351 0 406.37314380 0 230.16152324 0 15270
0.12050000 0.12050700 13802.98156542 0 27.44286779 0 4712.73575721 0 -1.19151502 0 249.24356783 0 15999
0.12150000 0.12150000 13582.86374803 0 215.56044850 0 4484.33584085 0 262.09632248 0 432.93565104 0 15670
0.12250000 0.12250700 13693.14410322 0 205.17460782 0 4474.99079870 0 83.46174508 0 440.39618350 0 16887
0.12350000 0.12352200 13536.24926054 0 11.16322861 0 4675.99778346 0 148.33704283 0 640.13317260 0 16407
0.12450000 0.12449800 13680.52165293 0 -67.69874058 0 4769.44820493 0 287.01680395 0 367.83481003 0 16306
0.12550000 0.12549900 13490.40983579 0 172.61754392 0 4576.43543869 0 12.33202321 0 630.61650942 0 17523
0.12650000 0.12650100 13393.41627038 0 242.93677161 0 4465.81184143 0 328.30661043 0 16.33843323 0 17154
0.12750000 0.12750600 13157.57575174 0 31.41074611 0 3859.26988786 0 567.76999375 0 292.01706584 0 18007
0.12850000 0.12850300 13175.18074820 0 77.35258986 0 4153.73836642 0 394.28770126 0 -134.58964433 0 17496
0.12950000 0.12949900 13154.14333105 0 150.99882971 0 3882.04566002 0 38.15113456 0 -311.55307575 0 18405
0.13050000 0.13049000 12892.83646533 0 384.00815490 0 3787.01189610 0 -136.03015379 0 -453.93542229 0 18100
0.13150000 0.13148800 12784.77057510 0 293.59376489 0 3827.25979681 0 -571.72834987 0 -441.23878742 0 19059
0.13250000 0.13249300 12499.43676452 0 129.49526768 0 4273.10910029 0 -368.30981277 0 -182.19842659 0 18957
0.13350000 0.13349100 12575.28218953 0 88.75453779 0 4448.00754312 0 247.32916287 0 -571.84793098 0 19468
0.13450000 0.13450700 12563.98841821 0 90.60250880 0 4158.01228380 0 41.01665223 0 -389.67275627 0 19953
0.13550000 0.13551000 12388.60279309 0 91.82323261 0 4336.83032962 0 446.47156813 0 -425.09312337 0 19956
0.13650000 0.13649900 12400.67162714 0 174.73457243 0 4145.64449697 0 439.09518533 0 -319.72334423 0 19723
0.13750000 0.13749600 12013.36170498 0 348.03638602 0 4060.76405491 0 -54.39290639 0 -180.78891964 0 20946
0.13850000 0.13851100 11681.08123718 0 360.35656185 0 3865.88006578 0 340.82387364 0 -341.41956471 0 20955
0.13950000 0.13949800 11439.48310963 0 54.55135136 0 3607.69559566 0 336.29972172 0 -89.23186571 0 20506
0.14050000 0.14048300 11519.64674132 0 -67.59864676 0 3590.01309292 0 257.55224037 0 -377.23078487 0 21447
0.14150000 0.14148400 11472.14646785 0 28.52540898 0 3194.93039875 0 147.62730681 0 -594.94147885 0 21771
0.14250000 0.14249400 11240.18126290 0 368.98854628 0 3258.70698970 0 -38.85544515 0 -705.18086644 0 22470
0.14350000 0.14350900 11141.41612551 0 213.23636752 0 3022.23534855 0 30.27151461 0 -387.47157810 0 22519
0.14450000 0.14449900 10819.92010208 0 210.66980263 0 3264.36494768 0 61.49868157 0 -290.36728944 0 22218
0.14550000 0.14550500 10613.33266561 0 132.10833634 0 2946.79959956 0 527.62395842 0 -354.77278844 0 23559
0.14650000 0.14650700 10668.70536203 0 72.27393591 0 2971.11442486 0 275.31557108 0 -238.39601121 0 23044
0.14750000 0.14750500 10486.91993316 0 251.60086578 0 2938.89395964 0 57.03575961 0 -475.19207147 0 23649
0.14850000 0.14849900 10351.19537553 0 236.46499776 0 3014.63973372 0 -293.40664260 0 -235.62350107 0 23640
0.14950000 0.14949500 10045.61028286 0 288.47835083 0 2942.12707849 0 -228.41984654 0 -179.14467940 0 24457
0.15050000 0.15050000 9989.16357094 0 181.85186282 0 3126.58093764 0 -3.20935764 0 -37.56297267 0 24591
0.15150000 0.15149900 9966.90819805 0 -29.33534954 0 2932.98133819 0 424.83513820 0 -272.96823822 0 25020
0.15250000 0.15250500 9988.54352075 0 -128.93722251 0 2647.38179181 0 637.74708660 0 -127.97614472 0 25297
0.15350000 0.15350100 10176.21942642 0 -100.04698043 0 2671.87377431 0 164.82262725 0 -413.40849899 0 25452
0.15450000 0.15450400 10032.24598681 0 274.56154576 0 2672.15058243 0 -96.17343831 0 -134.78783895 0 26061
0.15550000 0.15549900 9843.65107817 0 455.58298422 0 2834.03904361 0 -182.08548888 0 -2.60339145 0 26128
0.15650000 0.15649500 9488.18516219 0 291.49666657 0 2731.75290693 0 187.16325704 0 682.84909452 0 26331
0.15750000 0.15749700 9295.69279522 0 106.82977589 0 2877.08824250 0 195.18072744 0 575.26485042 0 27345
0.15850000 0.15849900 9310.74008465 0 -8.50725469 0 2681.76136038 0 261.68443200 0 178.62649460 0 26980
0.15950000 0.15949700 9357.27706586 0 8.31924661 0 2846.45111973 0 152.71282560 0 250.19246607 0 27777
0.16050000 0.16050000 9143.23795479 0 186.77683290 0 2531.86422698 0 13.44922079 0 525.08728880 0 28224
0.16150000 0.16150500 9083.05986940 0 85.16588659 0 2584.56849312 0 -48.91121982 0 501.67042905 0 28075
0.16250000 0.16249700 9079.74924428 0 70.46228213 0 2602.72710582 0 247.66576154 0 501.93284314 0 28590
0.16350000 0.16349900 8895.33967443 0 159.90208610 0 2666.03865913 0 -37.15152508 0 308.81046089 0 29163
0.16450000 0.16449100 8836.06951967 0 221.64026206 0 2598.80750283 0 114.55648704 0 352.65908164 0 28996
0.16550000 0.16550500 8562.97062802 0 154.83760473 0 2539.22732298 0 -44.36160156 0 297.79460493 0 30777
0.16650000 0.16650700 8385.44804420 0 283.72832348 0 2582.55333000 0 72.43149510 0 331.12451710 0 29211
0.16750000 0.16749900 8280.94744257 0 174.55962970 0 2381.05916295 0 -149.93920823 0 88.31651662 0 30922
0.16850000 0.16850800 8101.34326168 0 57.45551144 0 2252.38767623 0 251.42038689 0 105.89892554 0 30867
0.16950000 0.16949900 8070.45147544 0 -33.66717518 0 2303.90720361 0 182.12092031 0 -131.36538335 0 30852
0.17050000 0.17049200 8099.27273694 0 42.48705696 0 2152.03919640 0 152.78258124 0 -285.16661847 0 31257
0.17150000 0.17149500 8049.55799851 0 18.21906760 0 2093.28944091 0 217.75719774 0 -166.17234365 0 32608
0.17250000 0.17250900 8078.34604303 0 4.74803433 0 1867.36972531 0 79.03060069 0 -261.98449200 0 32361
0.17350000 0.17350400 8073.90604078 0 20.85295222 0 2004.27902170 0 171.97645632 0 74.32087660 0 32508
0.17450000 0.17449800 8163.95725853 0 16.26469154 0 1951.50832161 0 38.43093221 0 -117.61244869 0 32791
0.17550000 0.17549800 8196.53203815 0 -40.54054226 0 2041.03914009 0 -11.40870205 0 360.24140967 0 33633
0.17650000 0.17650100 8207.21683160 0 73.23390648 0 2100.37572880 0 -13.48088764 0 148.95155686 0 33984
0.17750000 0.17750300 8130.75135640 0 121.81771765 0 2052.55435791 0 46.60817626 0 -21.40479689 0 34069
0.17850000 0.17849800 7963.55925164 0 263.45268227 0 2050.61670106 0 -287.76529311 0 -151.40629127 0 34536
