### header ###
fiducial parameters:
Omega_m = 0.31
Omega_nu = 0
Omega_de = 0.69
Omega_k = 0
H_0 = 100
w_de = -1
zeff = 0
beta = 0
fgrowth = 0
b_1 = 2
gamma = 0.55
Lx = 3500 Ly = 3500 Lz = 3500
nx = 700 ny = 700 nz = 700
xoffset = -685.467585 yoffset = -31.7331281 zoffset = 572.489161
bins = 400 dk = 0.001
kx_ny = 0.628318531 ky_ny = 0.628318531 kz_ny = 0.628318531
############################
A(data) = 8.01892896 (not used)
A(ran) = 8.0215275 (used)
Ngal = 476454
weighted Ngal = 0
Nran = 23820508
weighted Nran = 0
SN(data) = 3479.63733
SN(ran) = 69.8704137
SN(data+ran) = 3549.50775
############################
13 columns: k_central k_mean P_0(k) sigma^{lin}_{P_0(k)} P^img_1(k) sigma^{lin}_{P_1(k)} P_2(k) sigma^{lin}_{P_2(k)} P^img_3(k) sigma^{lin}_{P_3(k)} P_4(k) sigma^{lin}_{P_4(k)} N_modes
### header ###
0.00050000 0 0 0 0 0 0 0 0 0 0 0 0
0.00150000 0.00179520 8740.01710187 0 -18482.36748028 0 -11739.10021923 0 5049.14620218 0 41225.25482752 0 3
0.00250000 0.00253879 14778.89627494 0 -17721.58804199 0 3198.62855523 0 -8493.87932115 0 -9946.84514548 0 6
0.00350000 0.00331552 43570.37322411 0 -49705.21623638 0 -28183.71703988 0 49726.58582328 0 25738.06193394 0 7
0.00450000 0.00420575 71993.47392657 0 -57364.27548318 0 -2697.78301439 0 -19068.53635618 0 -23824.65348203 0 24
0.00550000 0.00557378 116345.77472937 0 -7949.43096517 0 7453.43510260 0 -36457.62248386 0 4064.14111398 0 45
0.00650000 0.00659388 115301.65449897 0 29738.16072117 0 38073.18539815 0 -36179.48568442 0 36033.10955031 0 40
0.00750000 0.00754703 89390.42140487 0 34646.63303652 0 -258.50667477 0 -20389.13253730 0 22451.68520451 0 57
0.00850000 0.00846663 92600.28836980 0 9988.91997979 0 53392.07895449 0 -19273.37436532 0 -11940.72725417 0 75
0.00950000 0.00948925 87416.44733621 0 -4446.16953720 0 39318.04687751 0 28487.20946316 0 -23505.88125050 0 112
0.01050000 0.01054430 90792.50989666 0 -17422.19237889 0 28917.48000561 0 10731.38579283 0 -35045.23672999 0 105
0.01150000 0.01145670 108569.45956274 0 -15187.46506074 0 31772.36823685 0 21433.69566069 0 -54918.17748424 0 144
0.01250000 0.01249090 108489.07448456 0 -7088.18125148 0 157.07975050 0 6175.92133734 0 -42741.60971143 0 169
0.01350000 0.01339930 105992.59740770 0 9018.97325335 0 -20144.87705180 0 1960.46583239 0 -36676.96523852 0 180
0.01450000 0.01448870 103162.51118405 0 3159.82005675 0 -8573.45611963 0 -26517.66432442 0 -52687.43620303 0 267
0.01550000 0.01550050 92656.86794962 0 8038.75140948 0 -5564.06466787 0 -31970.45212786 0 -30600.58410129 0 238
0.01650000 0.01653350 82704.39806313 0 11225.01217790 0 4007.40652161 0 -13419.54695695 0 -39760.27553077 0 315
0.01750000 0.01747870 79098.14186970 0 12027.86645050 0 11611.76848381 0 -9414.37704495 0 -26720.73076159 0 297
0.01850000 0.01844180 73730.61096737 0 1740.61375079 0 2195.54236061 0 -1395.81048361 0 -30950.35884231 0 388
0.01950000 0.01947590 74347.22873652 0 -551.45603036 0 21076.83463178 0 -2292.09303303 0 -15806.51874135 0 399
0.02050000 0.02045430 77864.90633140 0 -2277.07896058 0 21886.55374577 0 -6536.89019876 0 -19846.25645144 0 462
0.02150000 0.02154770 79714.31674586 0 754.40842259 0 25924.96277687 0 -9060.31731423 0 -17739.85737794 0 571
0.02250000 0.02255340 78506.21538490 0 7802.74480597 0 32062.79531684 0 -10339.04903521 0 -11605.01436567 0 510
0.02350000 0.02348930 74919.55720639 0 7196.16963543 0 33588.56167685 0 -560.72245900 0 -8668.45666657 0 555
0.02450000 0.02439640 66778.63038348 0 4953.18236297 0 33406.97554983 0 2729.18412757 0 -3909.50502557 0 592
0.02550000 0.02547300 67051.12029727 0 237.60323275 0 25348.53754682 0 17544.65229139 0 -8096.32749854 0 837
0.02650000 0.02652900 65778.46728261 0 -685.63267698 0 27151.55492028 0 10124.15735513 0 -14296.25363609 0 723
0.02750000 0.02749970 66658.82782894 0 5304.00897485 0 21522.16353599 0 7376.24992628 0 -8264.08429187 0 826
0.02850000 0.02848090 60470.94838080 0 4190.93030548 0 21710.28233466 0 -555.00138877 0 2084.60873826 0 831
0.02950000 0.02946900 55150.69630544 0 3183.09408351 0 22526.75556678 0 397.06574755 0 5325.60000825 0 996
0.03050000 0.03053250 59320.31238564 0 -2342.74891908 0 25906.02910143 0 1680.46888238 0 -2221.48481766 0 1041
0.03150000 0.03150510 53851.35898797 0 1042.05745628 0 25445.53111223 0 6312.49846398 0 2420.41020536 0 1036
0.03250000 0.03246190 57822.44828418 0 3491.18152159 0 21280.56540845 0 -822.09797313 0 -593.16215625 0 1059
0.03350000 0.03345080 53572.11495604 0 1466.89480895 0 22417.80389057 0 7590.08973551 0 1465.66578089 0 1302
0.03450000 0.03451200 53536.46207013 0 -2181.98983504 0 14355.04768088 0 2477.15587005 0 -484.38099384 0 1339
0.03550000 0.03553350 55901.39992814 0 -1594.42584621 0 15077.73832179 0 1019.34258192 0 -3460.06828885 0 1365
0.03650000 0.03647120 55384.21163586 0 2229.34616829 0 14988.05249076 0 -1278.25561101 0 -8804.48017697 0 1308
0.03750000 0.03744890 55079.39053360 0 493.58873916 0 13955.22603168 0 -3049.80543735 0 -1393.78424817 0 1579
0.03850000 0.03847530 52616.01970795 0 1323.37533465 0 15456.63327709 0 -602.84601154 0 -4339.64270012 0 1662
0.03950000 0.03950240 53829.54650808 0 1803.34954321 0 16152.63961519 0 3018.60362601 0 -3699.88377210 0 1683
0.04050000 0.04050350 51992.86926716 0 2843.79376177 0 17134.31193361 0 5124.81446999 0 -5173.26696339 0 1822
0.04150000 0.04152450 46977.21684756 0 3352.24598977 0 13590.50365215 0 743.00503526 0 -3569.61787061 0 1887
0.04250000 0.04250150 44847.78733844 0 2393.91413207 0 13299.63367917 0 599.12792487 0 -2193.88151189 0 1920
0.04350000 0.04349210 44659.88998627 0 413.88682342 0 15901.96218129 0 -35.55766392 0 -1712.66720295 0 2005
0.04450000 0.04448520 45448.12879010 0 23.15787808 0 12481.49959832 0 1619.11713056 0 -4090.99150167 0 2151
0.04550000 0.04548030 43879.40180980 0 624.11816198 0 14544.38443528 0 -918.48920408 0 -2143.85674836 0 2274
0.04650000 0.04648670 43518.88691370 0 418.32793290 0 15277.04016853 0 -158.77270897 0 -1257.49500198 0 2311
0.04750000 0.04749250 43190.48175958 0 1742.17494859 0 13579.87422033 0 1269.69670393 0 -1014.74313819 0 2568
0.04850000 0.04851840 41459.10232769 0 1022.93333686 0 14972.55123601 0 2177.18444606 0 -128.64491314 0 2493
0.04950000 0.04949480 40215.79097381 0 1730.50471823 0 15313.35739393 0 2130.34851208 0 297.59641031 0 2644
0.05050000 0.05050630 38796.42965530 0 1391.02723929 0 13520.85872904 0 1505.30470374 0 -1286.20554023 0 2829
0.05150000 0.05149060 37693.84754986 0 497.72425248 0 11916.47886282 0 938.14036616 0 2478.05272836 0 2784
0.05250000 0.05249300 37304.87677898 0 878.26676971 0 10251.89876656 0 878.99311422 0 1272.23226631 0 3055
0.05350000 0.05348950 36837.84611813 0 -855.74455379 0 10509.97251343 0 2175.68968221 0 -2849.73960020 0 3009
0.05450000 0.05448610 36573.77117121 0 244.39278233 0 9018.30891386 0 -276.98859936 0 -3720.34542836 0 3336
0.05550000 0.05550870 37015.66765472 0 960.64929529 0 10024.91610778 0 -453.45931232 0 -3809.20083503 0 3349
0.05650000 0.05647670 36376.90523593 0 199.44135803 0 9963.01073972 0 -860.08933405 0 -1331.26990225 0 3324
0.05750000 0.05747970 35112.77791139 0 1040.05668719 0 8699.43703141 0 19.63366781 0 -474.06158711 0 3639
0.05850000 0.05849280 36052.48611875 0 1153.32657008 0 11955.34272293 0 889.17743858 0 2150.72158975 0 3846
0.05950000 0.05951020 34753.25952453 0 598.33514641 0 12023.32679732 0 1503.44455318 0 3080.43148780 0 3787
0.06050000 0.06049470 34438.69477643 0 542.15527751 0 12292.93790665 0 -92.83014983 0 2778.26774349 0 3930
0.06150000 0.06148310 34516.20105016 0 928.54398224 0 14043.47246048 0 -343.60191993 0 1601.36819387 0 4083
0.06250000 0.06249100 34010.30652919 0 556.99772893 0 14077.35377443 0 -296.71726772 0 2922.37405101 0 4303
0.06350000 0.06350600 33570.40306415 0 253.05134034 0 12700.73162972 0 621.58149237 0 2441.29260996 0 4470
0.06450000 0.06451750 33079.12401195 0 34.04795243 0 11954.12476720 0 818.76520336 0 212.74364907 0 4479
0.06550000 0.06550280 33041.69955406 0 225.28970032 0 11616.41886023 0 2015.56172069 0 729.12144717 0 4636
0.06650000 0.06648880 32337.83186534 0 463.16088333 0 10460.95533146 0 1322.21274054 0 -2196.58315915 0 4653
0.06750000 0.06749660 31338.88672020 0 1220.46914778 0 10413.77615541 0 1390.14145331 0 299.85295011 0 5220
0.06850000 0.06852730 30403.16454978 0 1234.18775824 0 9962.44605115 0 1024.17122277 0 -223.95880687 0 5029
0.06950000 0.06949320 29506.19551622 0 374.29883326 0 10575.52067636 0 -128.84864391 0 3091.79169306 0 5040
0.07050000 0.07048030 29803.37671435 0 618.28636850 0 10419.79950011 0 1814.93119497 0 1123.36485913 0 5475
0.07150000 0.07148790 28458.86431162 0 729.55105337 0 9369.84415453 0 547.43013306 0 1902.53542894 0 5509
0.07250000 0.07249820 27827.74179696 0 1107.79717043 0 9573.61922049 0 -259.52311419 0 -14.80325539 0 5916
0.07350000 0.07351270 27624.89680628 0 299.89613218 0 8669.49746510 0 -652.46331352 0 -2130.55888625 0 5721
0.07450000 0.07449140 26969.19373052 0 428.14797778 0 9535.74079729 0 -698.63490801 0 -1025.05700876 0 6028
0.07550000 0.07549160 26569.15063482 0 970.45494615 0 8446.26832443 0 -552.56104838 0 -1946.26003965 0 6183
0.07650000 0.07648840 26326.99889104 0 -210.63215672 0 8755.33012710 0 1445.39235415 0 -1636.63354842 0 6330
0.07750000 0.07749960 25823.76172803 0 158.33535214 0 8272.96429637 0 1348.91918801 0 -2683.82081279 0 6583
0.07850000 0.07848650 26363.09466995 0 333.85827409 0 7921.57299593 0 1238.17379517 0 -2207.77727954 0 6549
0.07950000 0.07947320 24978.38972813 0 259.49321891 0 7859.70084484 0 164.28451226 0 -2190.78126094 0 6828
0.08050000 0.08048110 25300.70510360 0 883.83393463 0 8397.95977125 0 -186.68603984 0 -74.95864251 0 7147
0.08150000 0.08149960 24463.41590081 0 847.22882878 0 8500.63343929 0 -379.78849191 0 -799.37866984 0 7386
0.08250000 0.08250610 24161.03071002 0 295.43952144 0 7762.59655618 0 506.80798776 0 440.20906121 0 7227
0.08350000 0.08350160 23971.80467887 0 5.59092613 0 8368.19736214 0 640.73661430 0 -1012.00273780 0 7798
0.08450000 0.08449610 23823.98914254 0 517.87145472 0 8205.19059616 0 275.60677322 0 -825.82602490 0 7371
0.08550000 0.08548940 23351.86521227 0 590.76167623 0 7601.02919243 0 840.36066569 0 -1824.75234709 0 8256
0.08650000 0.08650700 22213.40877442 0 716.10482211 0 6914.55612600 0 853.41825835 0 -1498.25163284 0 8037
0.08750000 0.08749060 22021.41466206 0 789.51765736 0 5979.24363159 0 -66.99055468 0 -2062.46408862 0 8155
0.08850000 0.08849210 21064.87652098 0 192.88986343 0 5727.08250617 0 432.45068321 0 -2151.31949529 0 8718
0.08950000 0.08949900 21004.64307396 0 129.81415064 0 6116.18614495 0 101.61902910 0 -2072.62848280 0 8571
0.09050000 0.09049190 20614.89724035 0 817.99346232 0 6499.28858367 0 -1166.03759898 0 -2132.82871284 0 8932
0.09150000 0.09150830 20360.45521602 0 1005.72694409 0 8037.38951353 0 -587.33479170 0 -1721.33683328 0 9285
0.09250000 0.09250820 19514.64032312 0 498.98649751 0 8230.09225467 0 -1134.72506439 0 -769.24755231 0 9204
0.09350000 0.09350330 19208.82271163 0 519.57880721 0 8707.65269643 0 713.56925973 0 -771.77093514 0 9349
0.09450000 0.09448040 18960.02757295 0 261.05441671 0 8868.06853840 0 670.01737729 0 -244.46918137 0 9564
0.09550000 0.09549270 18895.47591926 0 -69.80436459 0 8316.38995431 0 1556.17096396 0 -816.83861885 0 10155
0.09650000 0.09649430 18444.94302239 0 286.46650941 0 7527.49788331 0 1502.00515095 0 -886.29752690 0 9913
0.09750000 0.09749140 18374.96592954 0 390.71023311 0 6488.40448838 0 1002.72855853 0 -1340.47100417 0 10476
0.09850000 0.09850240 18065.05155786 0 251.10925456 0 5924.53527466 0 -68.09734427 0 -1500.76505057 0 10575
0.09950000 0.09950330 17330.29208290 0 561.80643960 0 5954.78486607 0 2.74244877 0 -367.45502929 0 10882
0.10050000 0.10051200 17312.13347019 0 380.72078166 0 6411.24145672 0 -58.95193614 0 -87.21559536 0 10875
0.10150000 0.10150300 16836.24494949 0 225.84110209 0 6236.75268990 0 357.50322374 0 -155.69903160 0 11118
0.10250000 0.10250800 16759.18156875 0 311.31723523 0 6475.41665136 0 657.44918138 0 -818.16840506 0 11575
0.10350000 0.10349800 16429.33701240 0 427.77594767 0 6855.46312844 0 452.80050899 0 411.52509653 0 11364
0.10450000 0.10450100 16330.23970528 0 247.99682406 0 6397.72214811 0 383.78892286 0 451.82392994 0 12093
0.10550000 0.10551000 16148.87502475 0 -95.13828666 0 6060.79130388 0 668.66655366 0 690.88428064 0 12067
0.10650000 0.10649700 16093.07050766 0 5.51493676 0 5852.31049987 0 352.86502688 0 -73.64457900 0 12054
0.10750000 0.10749900 16032.94778390 0 -121.65274001 0 5629.65712009 0 424.12650941 0 228.40102359 0 12807
0.10850000 0.10850100 16111.45056686 0 139.52900843 0 5482.98203322 0 299.38791247 0 230.03751320 0 12736
0.10950000 0.10950300 16227.26708446 0 219.99602182 0 5174.56242540 0 115.27397369 0 -84.64781252 0 12933
0.11050000 0.11050200 15873.17413676 0 180.81106429 0 5514.70424382 0 23.44996601 0 1199.58674318 0 13428
0.11150000 0.11150900 15721.26184025 0 398.13976306 0 5566.27913283 0 -175.36458771 0 792.39535458 0 13453
0.11250000 0.11250000 15543.10813392 0 114.93737501 0 5738.45378376 0 784.96250293 0 1502.91308158 0 13668
0.11350000 0.11349100 15014.95824007 0 532.52124769 0 5232.91357719 0 860.24766830 0 721.73288482 0 13791
0.11450000 0.11448600 14879.76515403 0 534.94276513 0 5027.06798649 0 512.70289349 0 1516.75348761 0 14205
0.11550000 0.11549300 14332.23869175 0 396.29289928 0 4355.06644859 0 658.60845379 0 1301.31926361 0 14776
0.11650000 0.11649800 13990.43602460 0 92.75718321 0 3885.22341724 0 999.70913555 0 1595.75452519 0 14553
0.11750000 0.11747300 13936.40307949 0 2.47101073 0 3803.44322613 0 507.62623257 0 1365.89306195 0 14568
0.11850000 0.11849100 13985.01058544 0 114.96505582 0 3935.10424055 0 63.00795017 0 1186.31102572 0 16015
0.11950000 0.11950300 13877.71975795 0 49.91691909 0 3748.86773710 0 -341.57568449 0 1550.19190856 0 15270
0.12050000 0.12050700 13785.37656896 0 39.31372867 0 3718.76208592 0 -394.77709801 0 1582.29057821 0 15999
0.12150000 0.12150000 14024.76023154 0 -8.81462243 0 4101.49913792 0 78.05269296 0 2061.98797865 0 15670
0.12250000 0.12250700 13942.82502788 0 -9.47648171 0 3774.97627902 0 357.52315393 0 586.86200343 0 16887
0.12350000 0.12352200 13838.19155834 0 149.23611560 0 3997.16462116 0 -116.17858262 0 830.16416177 0 16407
0.12450000 0.12449800 13753.37755023 0 152.60431681 0 3471.30669854 0 608.01900170 0 649.12832928 0 16306
0.12550000 0.12549900 13393.85916337 0 191.84574320 0 3579.57189062 0 201.29929413 0 1063.43811551 0 17523
0.12650000 0.12650100 13691.26180800 0 -41.24651369 0 3508.97474758 0 217.59443457 0 526.04725937 0 17154
0.12750000 0.12750600 13355.10602651 0 176.36995480 0 3525.42822226 0 -177.01325688 0 1140.11728658 0 18007
0.12850000 0.12850300 13361.52797490 0 459.90008367 0 3849.34908483 0 -605.55098049 0 1096.69162864 0 17496
0.12950000 0.12949900 13078.40862929 0 196.91354627 0 4286.22980520 0 -340.98220788 0 2035.02686772 0 18405
0.13050000 0.13049000 12933.58262066 0 143.57705039 0 4542.33267825 0 35.01323771 0 1218.76400976 0 18100
0.13150000 0.13148800 12776.90922448 0 142.41113458 0 4880.34861031 0 130.33012098 0 1531.87828331 0 19059
0.13250000 0.13249300 12863.38408131 0 353.43192991 0 4795.92213357 0 332.55838316 0 1105.04791218 0 18957
0.13350000 0.13349100 12292.16284392 0 280.41880559 0 4520.09945002 0 -274.80070798 0 904.01989000 0 19468
0.13450000 0.13450700 12405.87561980 0 225.67501722 0 4616.79406266 0 343.16124141 0 729.66177662 0 19953
0.13550000 0.13551000 12117.55228153 0 1.92589803 0 4354.39103678 0 -261.94463163 0 824.67228866 0 19956
0.13650000 0.13649900 12014.13676772 0 207.85964659 0 4333.04359453 0 231.54224214 0 503.71548744 0 19723
0.13750000 0.13749600 12068.28043608 0 40.97081280 0 4263.22151422 0 453.15593062 0 698.35809989 0 20946
0.13850000 0.13851100 11855.13818332 0 -21.30514597 0 3830.80294076 0 652.70911913 0 249.14945307 0 20955
0.13950000 0.13949800 11788.70423441 0 195.67233866 0 3688.36855429 0 519.51458772 0 598.79907682 0 20506
0.14050000 0.14048300 11636.90266115 0 309.31535890 0 3641.89800702 0 11.04587303 0 297.56208611 0 21447
0.14150000 0.14148400 11365.40925660 0 263.00536035 0 3543.63112426 0 89.02470252 0 945.49571154 0 21771
0.14250000 0.14249400 11037.66844196 0 207.36028474 0 3583.29219176 0 -135.34256242 0 950.41182376 0 22470
0.14350000 0.14350900 11071.82656403 0 142.20297488 0 3629.98418552 0 86.11378832 0 922.52395924 0 22519
0.14450000 0.14449900 10989.78063712 0 79.56915857 0 3692.34351890 0 216.31004489 0 725.79642802 0 22218
0.14550000 0.14550500 10721.93002744 0 137.83272827 0 3335.72608114 0 489.19413344 0 720.33223573 0 23559
0.14650000 0.14650700 10761.58002261 0 161.73787756 0 3064.78629283 0 205.90981019 0 752.47962361 0 23044
0.14750000 0.14750500 10382.08716178 0 327.53708386 0 3162.74315050 0 -42.85211151 0 756.26525146 0 23649
0.14850000 0.14849900 10257.27991642 0 290.91426229 0 2829.46617346 0 211.81800271 0 739.84167206 0 23640
0.14950000 0.14949500 10063.71353394 0 21.48507125 0 2832.99824507 0 94.40862046 0 621.43423045 0 24457
0.15050000 0.15050000 10007.46612386 0 -23.35884078 0 2900.42870322 0 63.09110333 0 359.08103003 0 24591
0.15150000 0.15149900 9934.38878006 0 132.02640114 0 3042.23196717 0 282.12394361 0 634.57154384 0 25020
0.15250000 0.15250500 9996.05055697 0 50.49854831 0 2873.36794136 0 219.66606654 0 1141.08057884 0 25297
0.15350000 0.15350100 9932.19645975 0 93.74682760 0 2834.45979195 0 284.02506178 0 817.12207036 0 25452
0.15450000 0.15450400 9902.42297831 0 215.75753588 0 3027.73829398 0 -130.01677418 0 824.70882733 0 26061
0.15550000 0.15549900 9533.78099580 0 367.72408678 0 3210.26556862 0 -263.81253283 0 1055.77938843 0 26128
0.15650000 0.15649500 9416.39220807 0 209.52603147 0 2978.13427880 0 -106.18160199 0 846.07287806 0 26331
0.15750000 0.15749700 9350.62259865 0 35.32248774 0 3157.66095341 0 17.47633605 0 809.11013612 0 27345
0.15850000 0.15849900 9234.29675410 0 43.04454852 0 2763.13187547 0 172.63858134 0 148.87072888 0 26980
0.15950000 0.15949700 9209.93763950 0 192.00629191 0 2887.61802340 0 40.18035953 0 -120.06164694 0 27777
0.16050000 0.16050000 8991.89034685 0 184.66976949 0 2654.62309224 0 -178.66967667 0 -30.51388780 0 28224
0.16150000 0.16150500 8859.29925714 0 193.33497089 0 2964.26065580 0 -149.37119797 0 83.70611129 0 28075
0.16250000 0.16249700 8746.32832702 0 173.51772393 0 2866.53631695 0 231.02516457 0 -106.14273813 0 28590
0.16350000 0.16349900 8690.77847340 0 135.32263224 0 2863.56893390 0 139.46589618 0 -98.04189313 0 29163
0.16450000 0.16449100 8469.29876006 0 46.66995983 0 2895.84476074 0 250.81694519 0 327.42746784 0 28996
0.16550000 0.16550500 8451.43910012 0 110.82511357 0 2693.40944608 0 456.10559795 0 95.42140601 0 30777
0.16650000 0.16650700 8523.47564539 0 71.10193033 0 2652.70758005 0 273.87284716 0 241.42761374 0 29211
0.16750000 0.16749900 8275.06803809 0 134.26190352 0 2444.28213767 0 36.02480531 0 380.47054712 0 30922
0.16850000 0.16850800 8228.73035872 0 107.02774905 0 2336.36018766 0 160.39923349 0 452.13949120 0 30867
0.16950000 0.16949900 8268.85646386 0 -132.88118461 0 2428.95804012 0 115.45888151 0 423.11782062 0 30852
0.17050000 0.17049200 8264.18394279 0 93.97823919 0 2184.94614576 0 13.50878989 0 288.66436588 0 31257
0.17150000 0.17149500 8306.24770478 0 89.74772533 0 2253.38418547 0 41.44769783 0 610.54570622 0 32608
0.17250000 0.17250900 8149.61859789 0 81.86976622 0 2047.81540288 0 -135.37799386 0 512.82136737 0 32361
0.17350000 0.17350400 8192.80066469 0 66.46738733 0 2361.76010079 0 108.33993027 0 445.79172738 0 32508
0.17450000 0.17449800 8033.68028472 0 164.14832267 0 2181.17048300 0 -49.70654492 0 327.05211603 0 32791
0.17550000 0.17549800 7984.87347692 0 147.96169102 0 2273.65761221 0 125.97759009 0 253.91941060 0 33633
0.17650000 0.17650100 7791.18529886 0 116.25719613 0 2065.29860377 0 265.84984059 0 410.16320058 0 33984
0.17750000 0.17750300 7753.29580333 0 64.42210749 0 1989.28709389 0 397.51196224 0 340.64007305 0 34069
0.17850000 0.17849800 7667.54064761 0 -37.22980642 0 1550.96697130 0 405.29912829 0 316.51347727 0 34536
