### header ###
fiducial parameters:
Omega_m = 0.31
Omega_nu = 0
Omega_de = 0.69
Omega_k = 0
H_0 = 100
w_de = -1
zeff = 0
beta = 0
fgrowth = 0
b_1 = 2
gamma = 0.55
Lx = 3500 Ly = 3500 Lz = 3500
nx = 700 ny = 700 nz = 700
xoffset = -685.467585 yoffset = -31.7331281 zoffset = 572.489161
bins = 400 dk = 0.001
kx_ny = 0.628318531 ky_ny = 0.628318531 kz_ny = 0.628318531
############################
A(data) = 8.04024957 (not used)
A(ran) = 8.03875433 (used)
Ngal = 477838
weighted Ngal = 0
Nran = 23820508
weighted Nran = 0
SN(data) = 3490.69209
SN(ran) = 70.0204656
SN(data+ran) = 3560.71255
############################
13 columns: k_central k_mean P_0(k) sigma^{lin}_{P_0(k)} P^img_1(k) sigma^{lin}_{P_1(k)} P_2(k) sigma^{lin}_{P_2(k)} P^img_3(k) sigma^{lin}_{P_3(k)} P_4(k) sigma^{lin}_{P_4(k)} N_modes
### header ###
0.00050000 0 0 0 0 0 0 0 0 0 0 0 0
0.00150000 0.00179520 8614.09155171 0 -19280.90354620 0 15252.23816093 0 -52937.67074393 0 -7574.55526379 0 3
0.00250000 0.00253879 20065.15631310 0 -19047.05604603 0 -6381.09151623 0 52102.70672936 0 12737.60247137 0 6
0.00350000 0.00331552 36101.75796419 0 -23142.93044294 0 27033.74538421 0 -21820.78413635 0 -36084.26369098 0 7
0.00450000 0.00420575 52892.49565867 0 -19403.25273544 0 8459.67690979 0 14401.77289161 0 3191.63084595 0 24
0.00550000 0.00557378 72948.24049568 0 584.43384260 0 26956.23911048 0 14616.90816284 0 21461.48719598 0 45
0.00650000 0.00659388 66980.58958817 0 13962.42304281 0 3404.91703893 0 12109.46948441 0 7956.16293866 0 40
0.00750000 0.00754703 57104.85091268 0 12940.66890854 0 11020.71671267 0 47899.87367470 0 25142.03868895 0 57
0.00850000 0.00846663 56458.44858977 0 2918.41015872 0 13696.02290767 0 16254.39428027 0 26169.21826237 0 75
0.00950000 0.00948925 51200.20153339 0 -2333.08277951 0 1897.29821930 0 24324.56894759 0 17159.11394120 0 112
0.01050000 0.01054430 56733.37441501 0 -2186.05337824 0 1636.33459565 0 5505.30384005 0 10308.26797221 0 105
0.01150000 0.01145670 55526.15884004 0 -2140.33574907 0 -566.15011263 0 6037.84944686 0 27980.31843296 0 144
0.01250000 0.01249090 67968.90530149 0 -8760.91057880 0 -10985.09704373 0 12915.42400796 0 31896.48899807 0 169
0.01350000 0.01339930 67303.79074963 0 -8942.40812723 0 -18214.08504992 0 3135.31700192 0 30348.57798842 0 180
0.01450000 0.01448870 80167.28555419 0 -8404.72496171 0 -23327.17392792 0 22128.59476631 0 8031.26651791 0 267
0.01550000 0.01550050 83646.76362845 0 -3053.50359384 0 -14977.75522868 0 -9968.77942095 0 21685.81249681 0 238
0.01650000 0.01653350 86552.91672360 0 7028.51249303 0 -4440.19048180 0 -12434.66366433 0 2604.11114642 0 315
0.01750000 0.01747870 80456.60540170 0 6934.56381694 0 20653.42893072 0 -25494.47078793 0 12201.70195015 0 297
0.01850000 0.01844180 74824.22448970 0 8449.09176726 0 21246.79481775 0 -12883.75715898 0 26681.53473173 0 388
0.01950000 0.01947590 72876.82400060 0 2751.93775508 0 29200.15645823 0 -87.55905888 0 11793.79750383 0 399
0.02050000 0.02045430 72732.44088496 0 4804.72463180 0 41610.90390095 0 3024.73769396 0 7872.92120067 0 462
0.02150000 0.02154770 67752.21990479 0 3855.91497344 0 37443.72373221 0 9238.69246705 0 17438.24724988 0 571
0.02250000 0.02255340 66590.40086157 0 3843.60254825 0 38891.98381849 0 16382.05818543 0 15542.33307118 0 510
0.02350000 0.02348930 60415.25458696 0 2756.10094921 0 28910.83661072 0 9761.36156012 0 16337.21526991 0 555
0.02450000 0.02439640 61459.26409411 0 546.41480087 0 27137.71451426 0 15393.63174887 0 9848.97686641 0 592
0.02550000 0.02547300 59384.97476258 0 -1301.46320383 0 19363.06019635 0 3157.69417038 0 16771.02895631 0 837
0.02650000 0.02652900 63381.86257562 0 -2045.54557630 0 22153.72894364 0 2550.67610685 0 16187.51743836 0 723
0.02750000 0.02749970 63979.87883907 0 -5007.89071990 0 23197.51700430 0 3986.42446608 0 13914.92276934 0 826
0.02850000 0.02848090 67857.96060680 0 -2642.16672682 0 17669.88028508 0 4111.65245978 0 3683.89533506 0 831
0.02950000 0.02946900 69031.62703758 0 1841.16153247 0 18786.19207330 0 1954.73036813 0 6941.37329671 0 996
0.03050000 0.03053250 68239.95581305 0 4749.67303281 0 24343.28117653 0 -4540.15143026 0 1960.37725379 0 1041
0.03150000 0.03150510 62896.45185557 0 2761.92499206 0 21468.68420711 0 622.40305887 0 2257.02698033 0 1036
0.03250000 0.03246190 61662.77342428 0 4198.57020961 0 26255.02877972 0 -1797.17118596 0 1723.50700895 0 1059
0.03350000 0.03345080 56070.80649787 0 5715.27940791 0 24507.70520009 0 -3284.04046889 0 5854.03778254 0 1302
0.03450000 0.03451200 55578.64165968 0 2865.88304978 0 27252.75596913 0 3511.49923764 0 325.39791070 0 1339
0.03550000 0.03553350 52623.88105857 0 2208.84022272 0 29856.41315023 0 3745.95571567 0 5347.73358556 0 1365
0.03650000 0.03647120 53664.67959153 0 -1207.09377940 0 27697.53125709 0 3714.83141060 0 3216.13390077 0 1308
0.03750000 0.03744890 51993.64432990 0 -438.28912009 0 30203.30908680 0 6649.63968239 0 8445.36039380 0 1579
0.03850000 0.03847530 51005.88223282 0 2165.08239504 0 27571.30675416 0 2735.28497855 0 8585.36994113 0 1662
0.03950000 0.03950240 49549.53934943 0 3330.35600360 0 30313.81088849 0 4954.00171501 0 6593.03795791 0 1683
0.04050000 0.04050350 46519.04404656 0 2543.80019314 0 26750.95820835 0 -3861.26290633 0 5029.27137913 0 1822
0.04150000 0.04152450 44673.95183879 0 1063.68392112 0 28225.90259744 0 1248.48212958 0 2769.95242756 0 1887
0.04250000 0.04250150 45272.96461147 0 -1337.29324695 0 27195.84421956 0 -1752.89295901 0 4021.26907229 0 1920
0.04350000 0.04349210 46940.56745241 0 -1330.04087419 0 24580.56109739 0 736.50225889 0 -2208.56341460 0 2005
0.04450000 0.04448520 46051.68121597 0 1094.20367725 0 24950.81963933 0 2341.68597590 0 -4724.47242152 0 2151
0.04550000 0.04548030 45433.29187485 0 1739.04148067 0 17826.44295802 0 4599.00083667 0 -993.96259897 0 2274
0.04650000 0.04648670 42383.64145005 0 1177.78533561 0 16954.71882505 0 6110.70534416 0 -1735.81943414 0 2311
0.04750000 0.04749250 42832.07060520 0 933.90409469 0 14981.96271211 0 6796.12653974 0 -2655.33172103 0 2568
0.04850000 0.04851840 40754.57029948 0 281.04660641 0 12198.60169920 0 3854.89631956 0 -2491.81562811 0 2493
0.04950000 0.04949480 41140.66226591 0 -1658.94428293 0 10317.35835089 0 1859.76303816 0 -1960.17795194 0 2644
0.05050000 0.05050630 40251.99747596 0 1066.10322409 0 8603.59498778 0 -2567.50604057 0 195.57600943 0 2829
0.05150000 0.05149060 41341.51423812 0 2563.92967966 0 10538.52803914 0 -340.69322020 0 -458.26137959 0 2784
0.05250000 0.05249300 38861.20275549 0 352.99789478 0 10148.76006087 0 -813.36633778 0 619.23083781 0 3055
0.05350000 0.05348950 38041.73999566 0 2348.14114126 0 10550.14290787 0 -23.01382714 0 -381.16478188 0 3009
0.05450000 0.05448610 37098.48864436 0 912.63637318 0 11848.60551168 0 610.82251434 0 384.41672368 0 3336
0.05550000 0.05550870 34942.92844867 0 814.80020385 0 11026.69576807 0 2489.98869452 0 839.14049550 0 3349
0.05650000 0.05647670 35135.80834701 0 1445.55843902 0 10464.70884957 0 1917.33912722 0 1631.58456830 0 3324
0.05750000 0.05747970 34094.56692106 0 1144.44656558 0 11607.33955388 0 1733.78212638 0 3590.05738222 0 3639
0.05850000 0.05849280 33087.98187180 0 668.55472318 0 10642.40859059 0 1307.51976551 0 4241.23187713 0 3846
0.05950000 0.05951020 33003.94292643 0 155.69238820 0 11910.05691443 0 1671.45600997 0 5337.21487698 0 3787
0.06050000 0.06049470 32490.51922459 0 660.86056466 0 12016.12978619 0 642.20259011 0 5008.90937378 0 3930
0.06150000 0.06148310 32123.47165685 0 891.75064687 0 13566.36598405 0 999.96822795 0 6213.53402475 0 4083
0.06250000 0.06249100 32087.92949418 0 -32.16643228 0 12341.76685910 0 891.88794370 0 7236.99329704 0 4303
0.06350000 0.06350600 32150.15595966 0 -130.23489898 0 11253.91094567 0 1785.29058143 0 4911.35111981 0 4470
0.06450000 0.06451750 32733.44603111 0 -1007.19070543 0 9542.89351912 0 1223.03792714 0 4247.94170597 0 4479
0.06550000 0.06550280 32379.90669965 0 398.52950889 0 9502.36881029 0 485.87243599 0 1800.72540223 0 4636
0.06650000 0.06648880 32601.35319602 0 111.44405653 0 8505.43882826 0 -447.51236666 0 1452.99904130 0 4653
0.06750000 0.06749660 31439.53415280 0 531.36086805 0 8481.07971366 0 282.61001867 0 588.13864248 0 5220
0.06850000 0.06852730 31039.60178035 0 1320.16436045 0 8317.38646354 0 -795.23540589 0 -1269.05450909 0 5029
0.06950000 0.06949320 30280.37246754 0 1175.34942415 0 9162.43736603 0 1000.26053733 0 -189.36000628 0 5040
0.07050000 0.07048030 29966.58278218 0 -85.94349597 0 9839.35501614 0 -245.38707710 0 872.31318065 0 5475
0.07150000 0.07148790 29703.50434449 0 472.38412990 0 9485.20670682 0 219.45790684 0 423.83530727 0 5509
0.07250000 0.07249820 29833.60416111 0 637.86113155 0 9969.52126671 0 201.28711458 0 1979.83132850 0 5916
0.07350000 0.07351270 29138.04071600 0 856.72002561 0 9533.48204303 0 255.73084294 0 2992.27363759 0 5721
0.07450000 0.07449140 28173.08760805 0 1098.58056725 0 8243.30153818 0 1528.53444121 0 1898.21722226 0 6028
0.07550000 0.07549160 26937.19471180 0 957.06850544 0 7851.91700049 0 727.19707711 0 2044.70407961 0 6183
0.07650000 0.07648840 25582.60649348 0 918.69957825 0 6870.77615366 0 1080.56035861 0 398.21505487 0 6330
0.07750000 0.07749960 24940.52237725 0 612.34163731 0 7074.90553402 0 643.85015204 0 484.36106366 0 6583
0.07850000 0.07848650 24080.64563183 0 399.18499052 0 6471.56348233 0 610.10392046 0 477.54604773 0 6549
0.07950000 0.07947320 24026.61268672 0 -103.88630906 0 6069.15090912 0 505.77826155 0 -719.44755697 0 6828
0.08050000 0.08048110 24259.35295441 0 93.23827573 0 6103.90693672 0 815.41028894 0 1856.66278721 0 7147
0.08150000 0.08149960 24077.21321114 0 515.69574289 0 5897.17556004 0 492.01646904 0 1320.59618112 0 7386
0.08250000 0.08250610 23639.85638080 0 75.74821000 0 5209.16344045 0 1607.12580278 0 2094.26380550 0 7227
0.08350000 0.08350160 23844.91583644 0 189.88262001 0 4687.83409869 0 626.14661189 0 1762.10513326 0 7798
0.08450000 0.08449610 23323.29861424 0 302.62213855 0 4643.20155735 0 177.76396050 0 1207.37058752 0 7371
0.08550000 0.08548940 23260.29708602 0 409.71034250 0 4541.20330112 0 113.59430201 0 1290.85591666 0 8256
0.08650000 0.08650700 22275.74596315 0 832.04313529 0 3818.91126390 0 -1579.31212283 0 252.95058218 0 8037
0.08750000 0.08749060 21899.72981230 0 775.86990978 0 5146.73767313 0 -709.87885387 0 192.49125974 0 8155
0.08850000 0.08849210 21256.98135658 0 407.23235620 0 5992.26468558 0 -581.48196080 0 367.86027638 0 8718
0.08950000 0.08949900 21295.62377020 0 104.89167615 0 5744.23353732 0 210.14608166 0 -95.54275869 0 8571
0.09050000 0.09049190 20874.43253410 0 171.84912458 0 6546.22416858 0 -149.36566180 0 -1227.38935080 0 8932
0.09150000 0.09150830 20942.08443874 0 392.29025386 0 6919.77119099 0 213.86416834 0 -898.20359778 0 9285
0.09250000 0.09250820 20446.48717986 0 838.20931298 0 6751.80402349 0 -240.04246591 0 475.47884469 0 9204
0.09350000 0.09350330 20032.05006189 0 526.99726484 0 6911.76590014 0 -199.73920357 0 -265.40362590 0 9349
0.09450000 0.09448040 19418.64326694 0 780.28112399 0 7352.77659767 0 -467.80018743 0 -352.61036341 0 9564
0.09550000 0.09549270 19288.76489682 0 925.67735735 0 7980.61063186 0 -980.23734512 0 -1301.70679498 0 10155
0.09650000 0.09649430 18462.32657236 0 628.96562579 0 7909.14984748 0 -762.93521993 0 -1032.03146616 0 9913
0.09750000 0.09749140 17776.39604984 0 212.83665659 0 8320.43135287 0 401.70615889 0 -1762.07191629 0 10476
0.09850000 0.09850240 17841.94421277 0 -294.83275804 0 7638.61973519 0 1050.38495178 0 -1785.97706557 0 10575
0.09950000 0.09950330 18015.11537293 0 -212.27861142 0 7478.30354414 0 1174.95082046 0 -2678.89362825 0 10882
0.10050000 0.10051200 18102.80818549 0 274.16847823 0 6418.59348039 0 1213.08390713 0 -1076.12367805 0 10875
0.10150000 0.10150300 17806.40205010 0 244.98072277 0 6775.54308790 0 239.73244081 0 -1253.96293036 0 11118
0.10250000 0.10250800 17708.07980571 0 129.69567676 0 6419.63427893 0 14.58313757 0 75.51159441 0 11575
0.10350000 0.10349800 17599.90319223 0 453.28658405 0 6852.27429889 0 289.19362301 0 460.09606382 0 11364
0.10450000 0.10450100 16883.41305322 0 582.64566214 0 6643.14022772 0 312.59498151 0 1052.55402021 0 12093
0.10550000 0.10551000 16800.59206357 0 -12.83769629 0 6865.60537797 0 938.72830661 0 1621.87413944 0 12067
0.10650000 0.10649700 16371.76092335 0 334.25687779 0 5961.04072959 0 1113.56585166 0 581.60043468 0 12054
0.10750000 0.10749900 16367.55343992 0 514.72359277 0 6294.98204612 0 692.98802235 0 902.97244808 0 12807
0.10850000 0.10850100 15888.34322176 0 158.78267406 0 5488.62891888 0 225.93853855 0 1117.74011812 0 12736
0.10950000 0.10950300 15617.73560320 0 175.44320122 0 5477.95519775 0 24.92679269 0 1264.30448174 0 12933
0.11050000 0.11050200 15556.50564695 0 136.57159048 0 4941.71143446 0 -26.63691326 0 1258.25899239 0 13428
0.11150000 0.11150900 15622.05380988 0 21.75623248 0 5290.13535185 0 433.23571104 0 129.57055949 0 13453
0.11250000 0.11250000 15665.45732317 0 86.01745910 0 5000.12902020 0 186.51995496 0 526.71159886 0 13668
0.11350000 0.11349100 15533.91810432 0 -13.93197415 0 4936.39671855 0 24.71907588 0 -191.64865582 0 13791
0.11450000 0.11448600 15329.08009517 0 91.33992564 0 4919.20139810 0 108.37691183 0 328.28889471 0 14205
0.11550000 0.11549300 15493.28267224 0 237.94315312 0 5107.79630674 0 101.19628774 0 161.33705940 0 14776
0.11650000 0.11649800 14993.03503693 0 388.90101523 0 4938.42295399 0 685.40790878 0 -139.73716814 0 14553
0.11750000 0.11747300 14803.36611279 0 174.18981405 0 4679.91738645 0 145.63982450 0 532.01192075 0 14568
0.11850000 0.11849100 14455.25222049 0 384.79207549 0 4665.00296492 0 227.51191591 0 708.62103777 0 16015
0.11950000 0.11950300 14397.78685468 0 380.02322519 0 4866.48605964 0 -242.30011294 0 588.97460301 0 15270
0.12050000 0.12050700 13958.76917562 0 429.14670148 0 5658.03548860 0 -307.67886929 0 849.08676488 0 15999
0.12150000 0.12150000 13745.51619961 0 625.39812273 0 5746.73588272 0 -313.49183982 0 1715.00346348 0 15670
0.12250000 0.12250700 13495.06021221 0 111.73304421 0 6091.26234178 0 -162.27599254 0 1589.76439746 0 16887
0.12350000 0.12352200 13343.14791570 0 -145.22793402 0 5952.29359298 0 655.72964934 0 2009.83732876 0 16407
0.12450000 0.12449800 13629.69968201 0 -246.33818980 0 5685.20697371 0 791.02792246 0 1550.92268200 0 16306
0.12550000 0.12549900 13666.01690741 0 36.21989967 0 5142.46375575 0 1214.94405770 0 1753.76767268 0 17523
0.12650000 0.12650100 13328.08955395 0 110.01439795 0 4053.32345264 0 896.11203562 0 1482.17461720 0 17154
0.12750000 0.12750600 13225.55982613 0 237.53015540 0 4218.43396033 0 55.40237025 0 1302.11647100 0 18007
0.12850000 0.12850300 13343.59080870 0 27.98053988 0 3771.46635205 0 -14.78122146 0 306.50741733 0 17496
0.12950000 0.12949900 13087.26648914 0 -8.92448203 0 4182.12780725 0 -642.20369734 0 605.22877584 0 18405
0.13050000 0.13049000 13055.71036341 0 388.57659612 0 4258.87009057 0 -656.44381429 0 436.25624125 0 18100
0.13150000 0.13148800 12934.68985314 0 195.93475276 0 4771.40800642 0 -426.71300449 0 923.35549083 0 19059
0.13250000 0.13249300 12959.60258398 0 150.26584181 0 4714.31909966 0 -115.27618815 0 659.36801528 0 18957
0.13350000 0.13349100 12664.52512757 0 185.89326138 0 4788.48153129 0 605.79124994 0 851.48724490 0 19468
0.13450000 0.13450700 12724.42640484 0 78.76962599 0 4451.12993872 0 568.53176970 0 420.39624318 0 19953
0.13550000 0.13551000 12459.79784167 0 47.53116526 0 4420.23815248 0 544.44946321 0 330.52882602 0 19956
0.13650000 0.13649900 12322.83318366 0 89.44146482 0 4037.25750932 0 -15.65737453 0 -195.85281755 0 19723
0.13750000 0.13749600 12265.14637136 0 56.43231790 0 3907.08018643 0 390.64712086 0 583.62777735 0 20946
0.13850000 0.13851100 12216.87103515 0 309.34968311 0 3953.44001045 0 -325.84080369 0 -197.99641964 0 20955
0.13950000 0.13949800 11931.98011757 0 294.49062320 0 3641.67656053 0 262.43402839 0 519.51458772 0 20506
0.14050000 0.14048300 11738.54660298 0 176.96786034 0 3652.91497022 0 259.91728896 0 62.35136130 0 21447
0.14150000 0.14148400 11667.57300090 0 140.90862011 0 3483.46411119 0 372.67341598 0 245.91633422 0 21771
0.14250000 0.14249400 11469.82127964 0 194.58392913 0 3770.40340887 0 258.45684931 0 87.88403161 0 22470
0.14350000 0.14350900 11166.66102610 0 336.11038496 0 3484.33882485 0 150.08868461 0 384.17756147 0 22519
0.14450000 0.14449900 11161.56775668 0 38.15069167 0 3181.83183848 0 323.51118655 0 526.35728446 0 22218
0.14550000 0.14550500 11047.82176382 0 -42.30203842 0 3184.10166507 0 574.17865535 0 253.66917606 0 23559
0.14650000 0.14650700 11137.20864208 0 20.77467089 0 3228.75635107 0 163.28800303 0 549.56266282 0 23044
0.14750000 0.14750500 10931.99417389 0 177.27788544 0 3095.96595952 0 226.06919198 0 533.69159242 0 23649
0.14850000 0.14849900 10841.27861666 0 232.00285086 0 2969.18784034 0 169.01018050 0 1227.92082239 0 23640
0.14950000 0.14949500 10609.31341170 0 80.19153395 0 2624.70567058 0 252.03379368 0 1084.74348293 0 24457
0.15050000 0.15050000 10755.32415909 0 -94.94883919 0 2761.53746069 0 630.18247429 0 1394.28250279 0 24591
0.15150000 0.15149900 10624.90324505 0 73.80224891 0 2789.17398344 0 10.10748243 0 1324.91438780 0 25020
0.15250000 0.15250500 10623.33097493 0 399.71203319 0 2995.86107083 0 -81.92867099 0 1388.14843484 0 25297
0.15350000 0.15350100 10310.99176412 0 249.36093447 0 3166.90634463 0 -482.63267375 0 1544.82183102 0 25452
0.15450000 0.15450400 9978.36805424 0 349.53447157 0 3051.94239604 0 -31.84278822 0 1485.40773605 0 26061
0.15550000 0.15549900 10033.86254623 0 109.67912796 0 3157.62773643 0 140.13355737 0 1295.27377426 0 26128
0.15650000 0.15649500 9701.98068212 0 123.03124445 0 3018.78078321 0 81.89633980 0 820.76597246 0 26331
0.15750000 0.15749700 9765.25901845 0 286.93154705 0 2937.00059209 0 -112.07960798 0 436.42343335 0 27345
0.15850000 0.15849900 9340.48034911 0 326.19290362 0 3219.20093475 0 -278.28184690 0 478.60899091 0 26980
0.15950000 0.15949700 9253.07541699 0 200.69253073 0 3020.89559725 0 -367.03428095 0 607.59493166 0 27777
0.16050000 0.16050000 9248.53576382 0 -90.83369894 0 3070.34459989 0 134.32169407 0 235.15514173 0 28224
0.16150000 0.16150500 9319.44293196 0 -193.29843222 0 3068.28514747 0 309.59105979 0 7.71997918 0 28075
0.16250000 0.16249700 9289.34835310 0 -33.97432147 0 2742.94702732 0 379.53604290 0 -6.05944048 0 28590
0.16350000 0.16349900 9500.60831064 0 95.63266597 0 2930.44577580 0 179.89095410 0 -242.14842209 0 29163
0.16450000 0.16449100 9187.80406219 0 273.05681682 0 2602.60531025 0 135.15876183 0 476.52185769 0 28996
0.16550000 0.16550500 9100.31055147 0 263.82914131 0 2651.50069665 0 -116.52957532 0 599.02495225 0 30777
0.16650000 0.16650700 8860.12968150 0 173.82885626 0 2774.62494863 0 172.60536437 0 594.15866549 0 29211
0.16750000 0.16749900 8782.41303360 0 29.15786018 0 2804.89668468 0 121.78007175 0 402.64730650 0 30922
0.16850000 0.16850800 8758.67396919 0 172.65408259 0 2715.26621528 0 182.23164356 0 397.81977287 0 30867
0.16950000 0.16949900 8531.77988901 0 249.31775241 0 2761.20529095 0 -64.97317710 0 293.22727094 0 30852
0.17050000 0.17049200 8304.25468631 0 265.04156088 0 2413.64501489 0 -209.07870955 0 165.74273744 0 31257
0.17150000 0.17149500 8155.14368798 0 134.10578374 0 2515.44396927 0 112.09178753 0 -15.70011370 0 32608
0.17250000 0.17250900 8030.36965960 0 118.22585548 0 2429.34557148 0 76.32397089 0 -250.09392238 0 32361
0.17350000 0.17350400 7940.39594812 0 31.12220132 0 2068.04454033 0 265.45234413 0 -121.52319381 0 32508
0.17450000 0.17449800 7970.61232255 0 -93.83850645 0 1955.68258807 0 238.53552250 0 -459.95655252 0 32791
0.17550000 0.17549800 8014.07119746 0 -87.39906379 0 1828.42835893 0 243.25565457 0 -411.92480746 0 33633
0.17650000 0.17650100 8174.94100475 0 -0.58255044 0 1669.73979963 0 182.06334423 0 -341.63768951 0 33984
0.17750000 0.17750300 8101.45398493 0 65.12675024 0 1647.38477582 0 77.14575883 0 -142.67908485 0 34069
0.17850000 0.17849800 8100.74535614 0 58.51026110 0 1685.75038131 0 167.00941140 0 -93.15777992 0 34536
