### header ###
fiducial parameters:
Omega_m = 0.31
Omega_nu = 0
Omega_de = 0.69
Omega_k = 0
H_0 = 100
w_de = -1
zeff = 0
beta = 0
fgrowth = 0
b_1 = 2
gamma = 0.55
Lx = 3500 Ly = 3500 Lz = 3500
nx = 700 ny = 700 nz = 700
xoffset = -685.467585 yoffset = -31.7331281 zoffset = 572.489161
bins = 400 dk = 0.001
kx_ny = 0.628318531 ky_ny = 0.628318531 kz_ny = 0.628318531
############################
A(data) = 8.03602958 (not used)
A(ran) = 8.03430812 (used)
Ngal = 477559
weighted Ngal = 0
Nran = 23820508
weighted Nran = 0
SN(data) = 3484.87476
SN(ran) = 69.9817375
SN(data+ran) = 3554.8565
############################
13 columns: k_central k_mean P_0(k) sigma^{lin}_{P_0(k)} P^img_1(k) sigma^{lin}_{P_1(k)} P_2(k) sigma^{lin}_{P_2(k)} P^img_3(k) sigma^{lin}_{P_3(k)} P_4(k) sigma^{lin}_{P_4(k)} N_modes
### header ###
0.00050000 0 0 0 0 0 0 0 0 0 0 0 0
0.00150000 0.00179520 63557.24820075 0 -32556.39955726 0 112258.97963881 0 -66890.12869441 0 -137088.66804462 0 3
0.00250000 0.00253879 112208.04694464 0 -25113.36136767 0 17535.57298503 0 48280.65092521 0 90662.41008004 0 6
0.00350000 0.00331552 90445.17106710 0 1575.76897889 0 -13317.12795238 0 12990.71581672 0 104498.05500368 0 7
0.00450000 0.00420575 67777.02191238 0 22277.62825836 0 -46092.53809455 0 -15813.05141300 0 2881.57253405 0 24
0.00550000 0.00557378 81632.70774394 0 -23354.63329347 0 -49659.48753488 0 -14326.03818985 0 -37940.20677708 0 45
0.00650000 0.00659388 63405.66807398 0 -5206.24034670 0 -42412.09732483 0 -47377.48138975 0 -5276.02921003 0 40
0.00750000 0.00754703 68682.62735930 0 23505.65980400 0 -31189.18888865 0 -61000.20550713 0 -6865.42822078 0 57
0.00850000 0.00846663 64843.96306792 0 5618.38549343 0 -12966.24597888 0 -38888.88356754 0 -6018.69432492 0 75
0.00950000 0.00948925 58286.82158707 0 -8710.08860789 0 8148.58887168 0 -12354.05713965 0 -12361.58632053 0 112
0.01050000 0.01054430 63187.43255180 0 1286.43805905 0 24947.27649539 0 -1526.65214599 0 -4330.41945355 0 105
0.01150000 0.01145670 67760.08125541 0 4170.80081896 0 27269.25373311 0 -5154.82047024 0 -12751.99649363 0 144
0.01250000 0.01249090 69521.79885730 0 282.41071682 0 33835.91741330 0 10388.66412272 0 10440.83691726 0 169
0.01350000 0.01339930 68032.68189244 0 -4511.54054293 0 28667.35618796 0 16646.57602535 0 -3023.73011240 0 180
0.01450000 0.01448870 72344.24517682 0 -1601.15781970 0 33557.66989061 0 3240.71446187 0 -13301.29452789 0 267
0.01550000 0.01550050 79883.83403883 0 -2457.85680789 0 28963.54087686 0 -5044.63976597 0 -7330.83124988 0 238
0.01650000 0.01653350 76470.12557400 0 2802.84830459 0 24574.47131874 0 -1648.41450203 0 -15335.39132032 0 315
0.01750000 0.01747870 74593.69868698 0 11619.51911118 0 21993.40168027 0 -9859.16340524 0 -16426.56893120 0 297
0.01850000 0.01844180 66387.11297790 0 5367.96272300 0 16683.44686699 0 -965.08929754 0 -16841.55966540 0 388
0.01950000 0.01947590 62967.20401116 0 -3704.36806365 0 24703.90679587 0 8520.22038190 0 -13941.27490241 0 399
0.02050000 0.02045430 67826.18303457 0 -6242.98640877 0 18780.54518764 0 8522.26876199 0 -19744.94467935 0 462
0.02150000 0.02154770 71148.76626615 0 -4571.77398994 0 23047.59772625 0 9025.76058847 0 -24833.23154976 0 571
0.02250000 0.02255340 76545.86027575 0 5199.90697691 0 21369.36545349 0 -12440.86416623 0 -19397.05223355 0 510
0.02350000 0.02348930 72435.03824034 0 2550.16677991 0 30025.70899671 0 -14289.94241094 0 -14278.98080937 0 555
0.02450000 0.02439640 71124.07498181 0 7281.20509004 0 32679.41308599 0 -6310.12898647 0 8006.58630589 0 592
0.02550000 0.02547300 70759.24187903 0 2581.59003774 0 34389.97654723 0 540.84652872 0 1570.19959951 0 837
0.02650000 0.02652900 70347.79428877 0 -4696.91340504 0 39835.45661628 0 12657.10666994 0 2139.51639703 0 723
0.02750000 0.02749970 72335.60876346 0 3366.24140834 0 29835.92934932 0 14219.85459484 0 -17160.55334343 0 826
0.02850000 0.02848090 66421.43718483 0 4780.17728768 0 29747.90436701 0 5424.35407330 0 -6085.67081775 0 831
0.02950000 0.02946900 63594.00831914 0 6463.51390218 0 27342.22035366 0 740.54919361 0 -4412.25500628 0 996
0.03050000 0.03053250 58699.81930281 0 -370.64718054 0 19606.54061911 0 4142.66604160 0 -4409.02188743 0 1041
0.03150000 0.03150510 56898.35205481 0 -1593.10823956 0 17840.28336404 0 6612.04913963 0 -9915.06757325 0 1036
0.03250000 0.03246190 61216.11584109 0 -520.49781017 0 15123.90991629 0 2671.36444737 0 -16927.59162924 0 1059
0.03350000 0.03345080 56381.93882527 0 3286.22171687 0 15905.50532523 0 -2849.19705628 0 -10562.36675447 0 1302
0.03450000 0.03451200 53942.92711422 0 4916.64369107 0 13015.96071731 0 -5578.37011153 0 -12730.51618349 0 1339
0.03550000 0.03553350 51612.97780263 0 2876.93322995 0 14666.18000828 0 1355.71759544 0 -5361.61828088 0 1365
0.03650000 0.03647120 47976.71560894 0 1471.81092117 0 14204.35334010 0 3098.84476397 0 -3719.23819588 0 1308
0.03750000 0.03744890 52438.97323410 0 -1930.16087936 0 14007.48740482 0 5348.20969553 0 -4551.85487760 0 1579
0.03850000 0.03847530 50699.73245159 0 -786.18045866 0 14078.46100691 0 48.13626781 0 -8366.64723666 0 1662
0.03950000 0.03950240 51752.71054184 0 2183.67282841 0 12457.69409996 0 -2019.70277017 0 -6073.40268185 0 1683
0.04050000 0.04050350 48436.88142840 0 464.20168186 0 18182.30747769 0 -1291.03307385 0 -3779.07303920 0 1822
0.04150000 0.04152450 47869.75695119 0 2339.92547625 0 14307.65813065 0 2325.89684070 0 -2096.35647489 0 1887
0.04250000 0.04250150 46109.36802827 0 1884.03357417 0 18626.41842617 0 3515.26382807 0 -2015.34027419 0 1920
0.04350000 0.04349210 45258.01697297 0 1895.01732039 0 14333.56737073 0 5384.79265673 0 -1036.67298473 0 2005
0.04450000 0.04448520 43732.91495245 0 1866.88254302 0 16183.42067818 0 -119.34305306 0 1063.98508836 0 2151
0.04550000 0.04548030 40884.00577661 0 1235.51643721 0 12937.56865760 0 1215.78555439 0 2795.80630601 0 2274
0.04650000 0.04648670 40012.83525988 0 671.33941287 0 13138.08846006 0 71.23557329 0 5140.27143543 0 2311
0.04750000 0.04749250 41241.08825201 0 -317.06155734 0 16787.41599704 0 1582.24628891 0 4811.30159275 0 2568
0.04850000 0.04851840 39494.31828862 0 2028.87065512 0 15100.43658767 0 -1394.80290205 0 2327.86771452 0 2493
0.04950000 0.04949480 39410.39006650 0 1759.25954579 0 17276.14841453 0 -281.76187859 0 2206.26037104 0 2644
0.05050000 0.05050630 37292.47577519 0 1522.51109651 0 19314.00979741 0 -2010.98885054 0 2724.35659395 0 2829
0.05150000 0.05149060 38292.30670631 0 -20.67114465 0 21895.74377537 0 -2496.31099199 0 2702.74341591 0 2784
0.05250000 0.05249300 38449.53371873 0 -660.07996576 0 22588.87130902 0 562.79962714 0 2921.49933735 0 3055
0.05350000 0.05348950 39646.34130838 0 -613.19088462 0 21975.68596056 0 2645.84273866 0 2507.60476330 0 3009
0.05450000 0.05448610 39671.80765547 0 415.10256468 0 21168.18131154 0 1271.86687959 0 3711.87509988 0 3336
0.05550000 0.05550870 38490.83349031 0 -118.02212471 0 18427.11657943 0 3168.09108338 0 3445.77391751 0 3349
0.05650000 0.05647670 38225.54058765 0 1061.04870781 0 17560.70716237 0 3471.83817013 0 -216.15724681 0 3324
0.05750000 0.05747970 36577.09286865 0 1213.56001710 0 14994.03154616 0 2375.12439685 0 -1435.56012971 0 3639
0.05850000 0.05849280 34981.46013904 0 1766.00259160 0 14989.27044649 0 136.47304678 0 -804.46751033 0 3846
0.05950000 0.05951020 33930.14289751 0 1017.81792279 0 13984.45696920 0 -481.89968585 0 -2520.96905936 0 3787
0.06050000 0.06049470 33009.47908884 0 -465.04871471 0 12453.48661652 0 2162.36967546 0 1184.97127442 0 3930
0.06150000 0.06148310 34283.35005922 0 -178.38954685 0 12119.76674649 0 840.28205218 0 -2709.15429198 0 4083
0.06250000 0.06249100 33926.26758382 0 72.03134128 0 12874.12423638 0 1708.59258741 0 -742.56878566 0 4303
0.06350000 0.06350600 34383.44387558 0 613.45883488 0 11530.60834289 0 1186.53247222 0 -397.76994741 0 4470
0.06450000 0.06451750 32268.62983522 0 1175.91411271 0 9906.70796801 0 1386.53187541 0 -1303.36764370 0 4479
0.06550000 0.06550280 32155.02778258 0 1563.48977067 0 10580.89075390 0 331.33156957 0 578.62197930 0 4636
0.06650000 0.06648880 30589.62249972 0 982.88473799 0 10661.56371252 0 922.08770964 0 -2179.81965937 0 4653
0.06750000 0.06749660 30225.45373644 0 696.53005906 0 8412.33164886 0 827.79357702 0 -780.55682488 0 5220
0.06850000 0.06852730 29469.98901406 0 14.05509840 0 8735.21171290 0 410.86297151 0 -1143.61614122 0 5029
0.06950000 0.06949320 28844.18121531 0 499.18026319 0 7961.67695642 0 851.00449154 0 250.67300496 0 5040
0.07050000 0.07048030 29747.79364376 0 -311.29841228 0 8818.30951066 0 1837.83983502 0 -937.56903420 0 5475
0.07150000 0.07148790 28674.33175259 0 908.53186237 0 9263.66055952 0 397.25508431 0 621.31464934 0 5509
0.07250000 0.07249820 28427.19746264 0 764.83855257 0 9161.14190402 0 214.33142044 0 1971.11740887 0 5916
0.07350000 0.07351270 28518.43341915 0 158.10836948 0 9936.66967897 0 -336.99949265 0 3309.31858645 0 5721
0.07450000 0.07449140 28508.46832681 0 282.87575447 0 11835.87233814 0 -1106.68440179 0 4118.96019416 0 6028
0.07550000 0.07549160 27986.85110460 0 801.84447658 0 11579.10512560 0 -682.05742329 0 3892.45364535 0 6183
0.07650000 0.07648840 27878.23159813 0 1437.38706331 0 14037.82557482 0 -1708.23827302 0 4404.73689773 0 6330
0.07750000 0.07749960 26669.57662093 0 559.21219390 0 12798.72170437 0 1173.78822635 0 3114.30172942 0 6583
0.07850000 0.07848650 26044.32243842 0 679.53957663 0 13678.41791121 0 716.81787983 0 3338.54952397 0 6549
0.07950000 0.07947320 25253.20483013 0 672.93936381 0 11628.15552454 0 2403.05987237 0 1718.42481185 0 6828
0.08050000 0.08048110 24819.72331348 0 190.65436105 0 11379.24966262 0 3218.29300411 0 2277.37791335 0 7147
0.08150000 0.08149960 24415.91562734 0 174.68917590 0 9371.10639956 0 2269.28404391 0 2075.47407028 0 7386
0.08250000 0.08250610 24098.36135154 0 -131.48496445 0 7887.17128272 0 1481.66529026 0 3406.40073046 0 7227
0.08350000 0.08350160 24271.64323495 0 152.44930427 0 7828.08935748 0 149.32137250 0 2080.33482088 0 7798
0.08450000 0.08449610 23502.67027630 0 1251.09519823 0 8218.25593944 0 507.48561404 0 2147.92029157 0 7371
0.08550000 0.08548940 22688.52223238 0 824.02234319 0 7325.46117234 0 -257.76925794 0 2135.57464940 0 8256
0.08650000 0.08650700 22028.72239644 0 563.18605127 0 7304.81128655 0 1234.43134938 0 3003.85528935 0 8037
0.08750000 0.08749060 22109.66109087 0 -96.16579841 0 7038.97583998 0 1092.75873886 0 2488.00674837 0 8155
0.08850000 0.08849210 21896.07594511 0 -139.92207597 0 6866.48009163 0 540.22204960 0 2480.49971215 0 8718
0.08950000 0.08949900 21948.55876475 0 319.80860113 0 6667.58792092 0 -556.26031210 0 1289.21721258 0 8571
0.09050000 0.09049190 21636.54065136 0 679.17861884 0 7000.26699242 0 -820.67850109 0 1228.02047331 0 8932
0.09150000 0.09150830 20791.05792821 0 1035.17268471 0 7747.91465347 0 -2410.84371671 0 509.65578970 0 9285
0.09250000 0.09250820 20218.28656534 0 1047.69991301 0 8452.64598353 0 -1153.14941289 0 565.30418701 0 9204
0.09350000 0.09350330 20047.77276314 0 434.58210574 0 9779.04406285 0 -1222.90505925 0 -413.38524710 0 9349
0.09450000 0.09448040 19099.42814242 0 367.83038110 0 9633.00009850 0 387.73952836 0 203.25355946 0 9564
0.09550000 0.09549270 19390.07666891 0 414.76707324 0 10034.53795804 0 1135.55548875 0 -104.31591526 0 10155
0.09650000 0.09649430 18729.28032373 0 270.96525466 0 9432.33635581 0 2207.07972308 0 1653.41919284 0 9913
0.09750000 0.09749140 18468.08418126 0 256.21691800 0 8364.25561450 0 1845.35794357 0 1124.23957279 0 10476
0.09850000 0.09850240 18290.59481442 0 -125.56237791 0 7708.67433431 0 1945.51819388 0 2921.92008569 0 10575
0.09950000 0.09950330 18469.19141374 0 100.37350329 0 6870.07859720 0 1264.01660130 0 1585.35761218 0 10882
0.10050000 0.10051200 17928.97268584 0 198.66518806 0 5976.63056293 0 308.76838606 0 1974.76020373 0 10875
0.10150000 0.10150300 17866.63549711 0 183.03770881 0 5499.44658022 0 463.88058444 0 2173.41985563 0 11118
0.10250000 0.10250800 17779.05340780 0 103.95063926 0 5761.67244890 0 -31.73516523 0 970.15267168 0 11575
0.10350000 0.10349800 17725.68480217 0 -192.45361384 0 5333.78245629 0 808.24760202 0 1191.07212539 0 11364
0.10450000 0.10450100 17608.65032884 0 -28.34393358 0 5116.46593707 0 293.90378999 0 558.77594430 0 12093
0.10550000 0.10551000 17482.42582591 0 715.44491155 0 5304.18613205 0 277.60532785 0 942.70216399 0 12067
0.10650000 0.10649700 16991.58966669 0 900.78455669 0 5528.01317826 0 -698.84085325 0 1536.15220069 0 12054
0.10750000 0.10749900 16167.58725369 0 856.09333203 0 6240.56156964 0 155.62816872 0 2959.07880778 0 12807
0.10850000 0.10850100 15597.91614177 0 459.78382426 0 5347.50106674 0 4.36643773 0 2720.09374890 0 12736
0.10950000 0.10950300 15574.11064341 0 -40.99915795 0 6517.33647313 0 431.74094719 0 1961.59520952 0 12933
0.11050000 0.11050200 15584.29718224 0 154.51872177 0 6117.38195603 0 -8.15232025 0 1831.14107851 0 13428
0.11150000 0.11150900 15343.58484069 0 501.24635901 0 6252.29823394 0 -279.22078004 0 1515.19228981 0 13453
0.11250000 0.11250000 14966.79362711 0 257.32525772 0 5391.49141324 0 111.65664517 0 1967.27531215 0 13668
0.11350000 0.11349100 14953.28539083 0 -181.36135883 0 5892.33695409 0 809.64050048 0 1528.80017701 0 13791
0.11450000 0.11448600 14705.59748464 0 284.19003942 0 5519.53177745 0 610.78929737 0 1034.42087386 0 14205
0.11550000 0.11549300 14865.26040852 0 230.65977785 0 5590.09570351 0 47.94571310 0 199.48564733 0 14776
0.11650000 0.11649800 14247.09251390 0 267.47636511 0 5164.49768214 0 -236.24687296 0 1027.39326929 0 14553
0.11750000 0.11747300 14375.19931205 0 143.17291053 0 5757.01100016 0 -561.79647451 0 576.09416755 0 14568
0.11850000 0.11849100 14321.83070642 0 52.48913087 0 6047.52665875 0 -983.58340168 0 727.74958612 0 16015
0.11950000 0.11950300 14662.30469460 0 146.01296185 0 6642.48696055 0 -313.34568514 0 327.76295928 0 15270
0.12050000 0.12050700 14280.97382784 0 78.46137247 0 6415.40465085 0 434.52342242 0 791.14086017 0 15999
0.12150000 0.12150000 14451.93052304 0 211.90990301 0 6603.10270117 0 576.47173382 0 675.01321024 0 15670
0.12250000 0.12250700 14195.93837323 0 118.72189564 0 6060.64736366 0 1036.28877505 0 201.75104499 0 16887
0.12350000 0.12352200 13913.81553686 0 131.27680475 0 5579.12302962 0 1134.73613671 0 741.27664535 0 16407
0.12450000 0.12449800 13768.10374224 0 -23.83993329 0 5096.58004170 0 692.27164294 0 -380.96769450 0 16306
0.12550000 0.12549900 13939.72477693 0 -79.43053306 0 4809.81790122 0 468.38812787 0 446.92774791 0 17523
0.12650000 0.12650100 13664.79895168 0 239.57853550 0 4546.77268050 0 -22.98382114 0 -55.57698081 0 17154
0.12750000 0.12750600 13557.06523120 0 483.41548712 0 4219.45261421 0 -266.37577602 0 236.98761149 0 18007
0.12850000 0.12850300 13259.66258657 0 269.25236601 0 4381.39643701 0 39.42223745 0 270.53564846 0 17496
0.12950000 0.12949900 13034.11933001 0 166.33067789 0 4200.36392623 0 426.39633600 0 23.73341753 0 18405
0.13050000 0.13049000 12762.07230922 0 256.22577586 0 3953.28499790 0 266.80316776 0 -490.91255825 0 18100
0.13150000 0.13148800 12477.29211488 0 366.95898914 0 4093.50491940 0 316.56994612 0 -352.23722606 0 19059
0.13250000 0.13249300 12073.26298225 0 108.03533061 0 3561.07003585 0 336.40601604 0 -163.90030259 0 18957
0.13350000 0.13349100 12152.31938146 0 14.50042731 0 3385.42974725 0 732.39774808 0 -385.02791601 0 19468
0.13450000 0.13450700 11982.02702575 0 64.89201696 0 3027.84901723 0 558.85455780 0 -510.99111208 0 19953
0.13550000 0.13551000 12077.47046568 0 170.34882457 0 2926.84727024 0 140.37936298 0 -220.18868027 0 19956
0.13650000 0.13649900 11779.18203507 0 177.28009990 0 2723.90262864 0 -303.66404431 0 12.55679141 0 19723
0.13750000 0.13749600 11632.58445447 0 216.60567596 0 3040.82578192 0 92.13702230 0 684.24420745 0 20946
0.13850000 0.13851100 11520.08963431 0 94.74577275 0 3036.38577967 0 585.19894025 0 297.58201629 0 20955
0.13950000 0.13949800 11380.68906485 0 11.81372769 0 3132.75929489 0 396.65496430 0 661.81721353 0 20506
0.14050000 0.14048300 11494.84473373 0 29.71734475 0 2904.66940362 0 480.73487728 0 553.07701871 0 21447
0.14150000 0.14148400 11472.03574460 0 70.65516203 0 2526.07340110 0 -138.16046909 0 447.69063109 0 21771
0.14250000 0.14249400 11357.99079897 0 76.93627045 0 2777.50375308 0 -374.62657408 0 319.24501980 0 22470
0.14350000 0.14350900 11212.50045085 0 260.06787257 0 2872.27178121 0 -259.07468504 0 552.11372645 0 22519
0.14450000 0.14449900 10971.01304656 0 491.45399494 0 2786.37268526 0 98.50803800 0 529.99897209 0 22218
0.14550000 0.14550500 10707.51386052 0 135.34034796 0 2513.25164896 0 94.26368373 0 189.88704894 0 23559
0.14650000 0.14650700 10631.39162739 0 95.57907592 0 2560.13187224 0 154.04261181 0 -229.34660013 0 23044
0.14750000 0.14750500 10543.88704435 0 190.63553810 0 2605.06336636 0 -133.66621244 0 -526.51340424 0 23649
0.14850000 0.14849900 10381.38960531 0 168.35359164 0 2611.61818265 0 -550.67100253 0 -356.41813591 0 23640
0.14950000 0.14949500 10164.30560492 0 289.15376264 0 2760.48558984 0 -199.91968246 0 -477.85718006 0 24457
0.15050000 0.15050000 10034.95870639 0 66.07000160 0 2932.52737287 0 -176.96896758 0 -568.94033848 0 24591
0.15150000 0.15149900 9964.42799729 0 51.40692184 0 2855.74080025 0 297.04500854 0 -552.45253959 0 25020
0.15250000 0.15250500 10065.59582916 0 72.91037314 0 3015.72482156 0 353.38653338 0 -815.16448333 0 25297
0.15350000 0.15350100 9897.35185354 0 100.06392108 0 2748.92608273 0 319.17304969 0 -619.47775065 0 25452
0.15450000 0.15450400 9758.26130917 0 157.86256387 0 2714.03718722 0 143.20834197 0 -154.46668185 0 26061
0.15550000 0.15549900 9627.87361210 0 221.75098531 0 2526.88168081 0 73.05154529 0 142.26165820 0 26128
0.15650000 0.15649500 9550.94309927 0 182.42540925 0 2485.70370481 0 368.31534893 0 116.12322100 0 26331
0.15750000 0.15749700 9290.16770514 0 235.84162587 0 2164.77236994 0 432.02218424 0 206.20101233 0 27345
0.15850000 0.15849900 9304.61708902 0 -63.87369524 0 2031.53908540 0 435.61183195 0 70.74650871 0 26980
0.15950000 0.15949700 9314.65968764 0 -12.26935385 0 2116.93992673 0 250.47370312 0 27.51993117 0 27777
0.16050000 0.16050000 9190.19568435 0 179.60528812 0 2043.82936595 0 -144.13066663 0 62.69094951 0 28224
0.16150000 0.16150500 9043.79740560 0 209.60243051 0 2157.60857579 0 -103.61381914 0 119.43716782 0 28075
0.16250000 0.16249700 8970.94150829 0 114.16452674 0 2251.11435888 0 -153.06713999 0 398.81849657 0 28590
0.16350000 0.16349900 8859.21067854 0 83.84396173 0 2437.64981510 0 14.25362519 0 117.94461843 0 29163
0.16450000 0.16449100 8834.39759863 0 189.37882923 0 2522.44167856 0 48.14501495 0 419.25690096 0 28996
0.16550000 0.16550500 8732.07824498 0 92.24730265 0 2227.36422214 0 176.94128676 0 205.42927129 0 30777
0.16650000 0.16650700 8589.87637733 0 109.86702531 0 2318.21264728 0 94.25770467 0 253.97477223 0 29211
0.16750000 0.16749900 8546.24034522 0 32.34735406 0 2162.38074778 0 -93.32331118 0 -124.08865148 0 30922
0.16850000 0.16850800 8487.30236021 0 52.68356089 0 2229.66726571 0 -110.35387543 0 -317.37933307 0 30867
0.16950000 0.16949900 8462.02424265 0 141.05477479 0 2251.91156627 0 -300.13640163 0 -441.86880270 0 30852
0.17050000 0.17049200 8411.24656103 0 195.59372515 0 2223.59963170 0 -132.11055081 0 -202.42756403 0 31257
0.17150000 0.17149500 8267.99282253 0 167.43348144 0 2339.02861794 0 -23.03386804 0 -368.49914952 0 32608
0.17250000 0.17250900 8243.47869538 0 59.98819502 0 2382.34355263 0 164.28561950 0 -57.30370987 0 32361
0.17350000 0.17350400 8169.95845858 0 60.56838484 0 2333.84676992 0 195.90596471 0 80.63697357 0 32508
0.17450000 0.17449800 8210.72675857 0 40.92364470 0 2324.68995730 0 275.31114215 0 -8.56737741 0 32791
0.17550000 0.17549800 8084.11472427 0 21.64960599 0 2269.94838340 0 210.12725871 0 231.95081093 0 33633
0.17650000 0.17650100 8091.49996492 0 7.02710631 0 2236.84213219 0 124.99879658 0 72.90660855 0 33984
0.17750000 0.17750300 8096.94754873 0 38.62624802 0 2057.50368710 0 134.60957452 0 -35.69739666 0 34069
