### header ###
fiducial parameters:
Omega_m = 0.31
Omega_nu = 0
Omega_de = 0.69
Omega_k = 0
H_0 = 100
w_de = -1
zeff = 0
beta = 0
fgrowth = 0
b_1 = 2
gamma = 0.55
Lx = 3500 Ly = 3500 Lz = 3500
nx = 700 ny = 700 nz = 700
xoffset = -685.467585 yoffset = -31.7331281 zoffset = 572.489161
bins = 400 dk = 0.001
kx_ny = 0.628318531 ky_ny = 0.628318531 kz_ny = 0.628318531
############################
A(data) = 8.01430125 (not used)
A(ran) = 8.00559674 (used)
Ngal = 475180
weighted Ngal = 0
Nran = 23820508
weighted Nran = 0
SN(data) = 3498.62979
SN(ran) = 69.731651
SN(data+ran) = 3568.36144
############################
13 columns: k_central k_mean P_0(k) sigma^{lin}_{P_0(k)} P^img_1(k) sigma^{lin}_{P_1(k)} P_2(k) sigma^{lin}_{P_2(k)} P^img_3(k) sigma^{lin}_{P_3(k)} P_4(k) sigma^{lin}_{P_4(k)} N_modes
### header ###
0.00050000 0 0 0 0 0 0 0 0 0 0 0 0
0.00150000 0.00179520 26563.61447241 0 -26598.16012585 0 9394.34720935 0 -39285.16207280 0 55408.68147371 0 3
0.00250000 0.00253879 39094.16446968 0 -16999.00812432 0 -4233.34838186 0 -15790.90676336 0 -18110.11591987 0 6
0.00350000 0.00331552 47862.78138656 0 -4159.46275835 0 -204.96201918 0 -18001.38569016 0 57091.56412290 0 7
0.00450000 0.00420575 49636.56782250 0 2076.34878394 0 2678.72754338 0 -24772.00159351 0 12076.25250995 0 24
0.00550000 0.00557378 49175.62694030 0 -4008.66876664 0 11097.45899598 0 5839.61054330 0 15548.31212658 0 45
0.00650000 0.00659388 48610.38475831 0 -3752.77626776 0 2672.02878686 0 19672.53167503 0 -19573.65581440 0 40
0.00750000 0.00754703 48153.76208279 0 -3214.32911183 0 10681.10636583 0 1584.41646457 0 -16028.29740747 0 57
0.00850000 0.00846663 57930.62489765 0 408.96074611 0 -191.74498505 0 -13298.63716993 0 -29824.30340826 0 75
0.00950000 0.00948925 55974.47727194 0 8442.89126536 0 -676.52015365 0 -15054.59716292 0 6562.22367794 0 112
0.01050000 0.01054430 51316.79311373 0 -2057.90229079 0 3633.01800252 0 -4977.63005617 0 8525.87833988 0 105
0.01150000 0.01145670 53613.63617411 0 -3155.32469287 0 -5979.57580134 0 17318.66614184 0 21586.27229669 0 144
0.01250000 0.01249090 68613.42532918 0 -14555.12459035 0 4653.34380688 0 18505.84080889 0 -4767.33339089 0 169
0.01350000 0.01339930 82429.80440763 0 -16011.91036674 0 11650.52162068 0 10666.08122105 0 -695.13605337 0 180
0.01450000 0.01448870 88920.62266282 0 2351.26353686 0 30360.09320623 0 -2251.61261350 0 2475.09641764 0 267
0.01550000 0.01550050 84898.37922595 0 12200.37327117 0 45468.83403752 0 -14443.29410968 0 43388.56565059 0 238
0.01650000 0.01653350 81557.52665842 0 13146.72487342 0 55119.36162620 0 -3272.95707174 0 20710.11923379 0 315
0.01750000 0.01747870 73951.39312425 0 7562.59715298 0 73668.16305539 0 -3012.51384736 0 45938.63277957 0 297
0.01850000 0.01844180 71969.22553522 0 -1539.04207747 0 69524.34549201 0 30158.46617128 0 17244.81373530 0 388
0.01950000 0.01947590 77430.87119851 0 -8223.90282510 0 59273.58717491 0 24701.02799142 0 20342.29660331 0 399
0.02050000 0.02045430 80571.53613332 0 -4384.93958095 0 49073.98299847 0 27394.48172681 0 15425.40932110 0 462
0.02150000 0.02154770 82138.93443465 0 2204.26735257 0 35775.34582854 0 23401.69067395 0 24874.30987483 0 571
0.02250000 0.02255340 80003.63659337 0 -346.11423044 0 19906.15772871 0 13831.43744020 0 34284.12512196 0 510
0.02350000 0.02348930 75506.50114503 0 5293.49026627 0 19569.22688448 0 13803.42445841 0 26218.60083107 0 555
0.02450000 0.02439640 74939.70883756 0 688.61223959 0 25108.60026800 0 8686.79243647 0 25211.68361206 0 592
0.02550000 0.02547300 68578.32605951 0 5657.48187236 0 20265.34394582 0 612.03714837 0 25433.24083168 0 837
0.02650000 0.02652900 67890.84541152 0 7965.75157195 0 22636.03941274 0 -2063.36094693 0 31200.03976697 0 723
0.02750000 0.02749970 57335.26599216 0 2798.08720492 0 17969.05450168 0 -5201.60104260 0 24180.07510870 0 826
0.02850000 0.02848090 60893.57901912 0 2707.59309418 0 27760.20061557 0 -862.23293614 0 23041.72939410 0 831
0.02950000 0.02946900 57090.67833691 0 -1928.85434503 0 20695.83593477 0 1280.86867967 0 18438.85324374 0 996
0.03050000 0.03053250 62478.58231691 0 -6162.88921103 0 19344.01579766 0 6613.92036252 0 -2639.85261094 0 1041
0.03150000 0.03150510 64215.49791121 0 -1341.26821156 0 22796.69884586 0 4622.52952691 0 1579.07960401 0 1036
0.03250000 0.03246190 65420.60974448 0 4215.59944518 0 19084.92339691 0 -2290.57612453 0 -11981.03051651 0 1059
0.03350000 0.03345080 60868.99845803 0 4827.92115230 0 15249.13790998 0 -1821.69638544 0 -233.08572422 0 1302
0.03450000 0.03451200 56928.57950157 0 2914.83379781 0 14324.82023412 0 -2930.78901787 0 51.06412266 0 1339
0.03550000 0.03553350 58734.91857248 0 -927.52975729 0 17526.38295544 0 9439.97625993 0 -554.40237599 0 1365
0.03650000 0.03647120 55513.97928274 0 -1779.99801017 0 16754.64191558 0 6219.10340414 0 -4849.16894363 0 1308
0.03750000 0.03744890 55172.73023183 0 5177.93948447 0 12586.57596084 0 6899.16559450 0 -848.28955749 0 1579
0.03850000 0.03847530 49970.28769254 0 4294.42332556 0 12559.78093478 0 -94.31550221 0 5666.70511893 0 1662
0.03950000 0.03950240 47098.56952757 0 2244.21630052 0 11090.81560109 0 1964.62902652 0 8267.64958046 0 1683
0.04050000 0.04050350 45333.86239798 0 980.09008320 0 13193.67153065 0 -937.89566779 0 7628.71000447 0 1822
0.04150000 0.04152450 45486.99265022 0 -372.95354580 0 14622.44432525 0 -2706.74052517 0 3282.57892201 0 1887
0.04250000 0.04250150 47735.89254413 0 326.74209093 0 17881.58313562 0 -4974.07583990 0 4116.79001850 0 1920
0.04350000 0.04349210 44385.84994700 0 1958.17386115 0 16660.08426162 0 -4922.40129998 0 1658.44602831 0 2005
0.04450000 0.04448520 44924.51854943 0 891.56241735 0 18986.60115252 0 -646.50529553 0 -384.77989594 0 2151
0.04550000 0.04548030 44167.83587132 0 246.04588042 0 19356.08463172 0 620.62041457 0 -2818.42706561 0 2274
0.04650000 0.04648670 43827.47260640 0 335.22017005 0 19749.70577902 0 3705.29813894 0 -3895.36566677 0 2311
0.04750000 0.04749250 42875.36339524 0 2510.39498916 0 19508.32909797 0 3616.97420386 0 -3211.76033247 0 2568
0.04850000 0.04851840 40456.61403861 0 3166.05377562 0 16001.17021167 0 821.53992796 0 13.84295266 0 2493
0.04950000 0.04949480 39085.86022606 0 1069.29094641 0 14753.31920461 0 2409.14965102 0 -2578.03582147 0 2644
0.05050000 0.05050630 37289.81841723 0 -285.22530179 0 14759.51970650 0 261.21828712 0 -1561.46353522 0 2829
0.05150000 0.05149060 37496.20655185 0 1131.51409019 0 16187.29599187 0 589.63894250 0 -4347.47083377 0 2784
0.05250000 0.05249300 36551.73724482 0 1756.80148968 0 14563.53955721 0 -1076.16796735 0 -3213.55404909 0 3055
0.05350000 0.05348950 35675.91635166 0 930.62447208 0 14245.09949543 0 3117.32447409 0 -1425.45109715 0 3009
0.05450000 0.05448610 35508.72424690 0 -967.28826125 0 14108.35628392 0 2425.87993382 0 -1402.40958920 0 3336
0.05550000 0.05550870 34577.98462265 0 1150.52527191 0 13063.57171403 0 5254.06171759 0 -749.24429029 0 3349
0.05650000 0.05647670 34150.26071490 0 1172.74742782 0 14345.74692803 0 3042.45341367 0 -319.47421692 0 3324
0.05750000 0.05747970 32184.36944335 0 1749.46053832 0 11835.87233814 0 2185.74335315 0 2643.26288698 0 3639
0.05850000 0.05849280 32399.28326808 0 100.04996995 0 11638.34206338 0 896.68336758 0 1740.50302754 0 3846
0.05950000 0.05951020 31108.25019423 0 -86.42226329 0 11742.20047017 0 255.57140146 0 3892.81903206 0 3787
0.06050000 0.06049470 33318.28622803 0 -614.21950359 0 10177.72526260 0 -963.23246867 0 841.16119478 0 3930
0.06150000 0.06148310 33013.46512577 0 -570.48714226 0 12906.56614810 0 -1673.48224542 0 2888.84705146 0 4083
0.06250000 0.06249100 32728.24203844 0 838.12737777 0 11233.31642151 0 -1056.85783287 0 972.00728609 0 4303
0.06350000 0.06350600 32761.79118264 0 629.77279827 0 13377.80429238 0 773.55136497 0 793.95212345 0 4470
0.06450000 0.06451750 32057.81277067 0 75.21662768 0 11744.63638163 0 400.29111577 0 519.84122131 0 4479
0.06550000 0.06550280 31953.51147088 0 1385.04818389 0 13091.91686557 0 2667.62200158 0 2154.86263923 0 4636
0.06650000 0.06648880 30086.71750646 0 932.34511135 0 9479.36051931 0 1620.70047300 0 1871.90937849 0 4653
0.06750000 0.06749660 30082.73146952 0 514.45121358 0 9269.20779425 0 2797.96540935 0 2386.31851724 0 5220
0.06850000 0.06852730 29462.34910994 0 17.41322380 0 7185.26339549 0 522.85621535 0 2247.54907029 0 5029
0.06950000 0.06949320 29273.01235554 0 750.42017119 0 7484.99122833 0 -291.34608295 0 -266.78988097 0 5040
0.07050000 0.07048030 28466.94710874 0 1097.65159920 0 7367.29241551 0 -2415.97020310 0 -1414.79952068 0 5475
0.07150000 0.07148790 27761.86146429 0 607.05017327 0 7435.45364709 0 -1528.75588771 0 -1794.21487524 0 5509
0.07250000 0.07249820 27486.04985306 0 289.17922899 0 7508.98495621 0 -536.54271606 0 -5188.57998862 0 5916
0.07350000 0.07351270 27506.64437722 0 -122.35693987 0 7068.88218932 0 -1152.57365200 0 -5436.45612433 0 5721
0.07450000 0.07449140 27412.86178600 0 774.24670697 0 9021.36487551 0 71.09661562 0 -6315.83123375 0 6028
0.07550000 0.07549160 27045.48204852 0 973.92944168 0 8194.14041599 0 -720.54150267 0 -4835.60534572 0 6183
0.07650000 0.07648840 26233.21629983 0 561.60381606 0 9308.33739016 0 1530.21743459 0 -4396.34407552 0 6330
0.07750000 0.07749960 26615.32222932 0 2.03857001 0 8554.96533718 0 -238.22549740 0 -4547.79133439 0 6583
0.07850000 0.07848650 25461.80742971 0 377.28614650 0 9574.56036810 0 584.40726902 0 -3288.21473534 0 6549
0.07950000 0.07947320 25358.61336240 0 804.61255778 0 9529.42957214 0 1356.81375560 0 -3398.14077614 0 6828
0.08050000 0.08048110 24918.48845086 0 284.73258334 0 8207.26112090 0 1433.82177472 0 -1308.57163637 0 7147
0.08150000 0.08149960 24438.61389322 0 341.50371438 0 8369.22708835 0 1633.54436979 0 -582.72316842 0 7386
0.08250000 0.08250610 23887.87645674 0 535.13542358 0 7823.22860689 0 1467.39306357 0 -254.49738596 0 7227
0.08350000 0.08350160 23388.07171443 0 580.76115246 0 7038.57723629 0 1450.30846637 0 1744.55549843 0 7798
0.08450000 0.08449610 22900.55725266 0 317.95730842 0 6723.91283727 0 525.65419184 0 1741.03449913 0 7371
0.08550000 0.08548940 23205.37835492 0 -256.57123240 0 7516.00481015 0 442.71915725 0 3683.69603321 0 8256
0.08650000 0.08650700 23222.31901189 0 209.01891900 0 8104.60959750 0 -328.66424652 0 2527.62352658 0 8037
0.08750000 0.08749060 22892.36373230 0 908.65919410 0 8932.19944375 0 -1140.31658842 0 3646.06120116 0 8155
0.08850000 0.08849210 22154.72545288 0 962.47290719 0 9182.21253815 0 419.93674170 0 3157.22913274 0 8718
0.08950000 0.08949900 21357.18589619 0 801.27093015 0 8330.72861495 0 479.89005889 0 2886.65473114 0 8571
0.09050000 0.09049190 20530.52612523 0 950.67534509 0 7881.83442215 0 1573.23341651 0 2922.00866429 0 8932
0.09150000 0.09150830 20019.98122784 0 248.50615100 0 7298.58864001 0 1931.56706461 0 3179.58415655 0 9285
0.09250000 0.09250820 19535.89918677 0 -126.93313172 0 5917.07252773 0 2407.27842812 0 2122.32107659 0 9204
0.09350000 0.09350330 19252.89056441 0 170.71974745 0 4325.02723136 0 1296.84604438 0 2665.58469382 0 9349
0.09450000 0.09448040 18941.31534401 0 106.37492478 0 3928.82623237 0 537.28013289 0 1420.18067054 0 9564
0.09550000 0.09549270 18822.95219170 0 202.29580337 0 3915.42871934 0 256.91668893 0 1369.12618080 0 10155
0.09650000 0.09649430 18345.51354552 0 264.71492730 0 4341.12639165 0 -613.28167768 0 1417.45687863 0 9913
0.09750000 0.09749140 18271.55041573 0 672.84967797 0 4087.03868171 0 -683.23884035 0 1036.69291491 0 10476
0.09850000 0.09850240 17765.65589477 0 408.70165371 0 4407.56034056 0 -984.62752192 0 1284.44504059 0 10575
0.09950000 0.09950330 17687.48528155 0 455.87418636 0 4610.61570541 0 15.60965281 0 1096.14244133 0 10882
0.10050000 0.10051200 17695.01446242 0 -93.89386808 0 4656.76515525 0 -45.11551615 0 1041.92126669 0 10875
0.10150000 0.10150300 17568.23634325 0 74.19653440 0 5118.43681089 0 -5.29609226 0 471.86040894 0 11118
0.10250000 0.10250800 17557.93908117 0 565.35179801 0 4653.76455523 0 -490.04005906 0 -523.14298857 0 11575
0.10350000 0.10349800 17057.13782962 0 330.41035215 0 5308.07251806 0 -540.52432407 0 -467.09930926 0 11364
0.10450000 0.10450100 16654.43737597 0 516.65792792 0 5594.60213972 0 -174.49430298 0 -451.43196965 0 12093
0.10550000 0.10551000 16638.60395148 0 169.28477415 0 5708.49207280 0 -47.47115326 0 -329.75819221 0 12067
0.10650000 0.10649700 16376.74346952 0 46.22894914 0 5800.91276806 0 325.72343705 0 -432.82935672 0 12054
0.10750000 0.10749900 16274.98880443 0 322.75716123 0 5560.55474090 0 284.14796459 0 -2.18373926 0 12807
0.10850000 0.10850100 16218.07705486 0 359.12531933 0 5942.82675526 0 665.35482130 0 -18.64524138 0 12736
0.10950000 0.10950300 15578.87174308 0 517.98439243 0 5411.85341858 0 291.57417284 0 557.44172916 0 12933
0.11050000 0.11050200 15175.50694994 0 690.29966189 0 5170.55424381 0 697.45127649 0 782.30071604 0 13428
0.11150000 0.11150900 14597.53159441 0 177.54140677 0 5001.01480619 0 672.54961797 0 555.61811726 0 13453
0.11250000 0.11250000 14890.06241612 0 -311.65494114 0 4964.93009960 0 429.14559425 0 472.37305758 0 13668
0.11350000 0.11349100 14827.17161115 0 -141.26957790 0 4622.65132249 0 21.84458963 0 -300.21169344 0 13791
0.11450000 0.11448600 14813.33120512 0 232.61847211 0 4710.76488339 0 -263.77931585 0 206.67047890 0 14205
0.11550000 0.11549300 14762.28778771 0 341.54136029 0 4806.76193957 0 -776.19654337 0 -124.99326041 0 14776
0.11650000 0.11649800 14730.51021548 0 303.94638860 0 5698.52698046 0 -431.06664261 0 1048.25906542 0 14553
0.11750000 0.11747300 14637.61341025 0 -131.95221656 0 5546.16071863 0 510.23265783 0 120.71712857 0 14568
0.11850000 0.11849100 14562.21087824 0 56.54647357 0 5536.53886837 0 735.48249778 0 401.46921113 0 16015
0.11950000 0.11950300 14761.06983198 0 245.87758109 0 5718.67861163 0 -47.80841627 0 674.03773843 0 15270
0.12050000 0.12050700 14530.10113626 0 -85.23663875 0 5492.69246209 0 585.36059619 0 1210.55941707 0 15999
0.12150000 0.12150000 14493.11957137 0 32.77020615 0 5430.70958775 0 456.53409692 0 1719.60955061 0 15670
0.12250000 0.12250700 14397.34396169 0 110.54786256 0 4984.05200457 0 762.15572826 0 839.88677019 0 16887
0.12350000 0.12352200 13880.15566941 0 506.52675071 0 4922.37915533 0 437.03019675 0 871.11736957 0 16407
0.12450000 0.12449800 13616.52361547 0 649.27116227 0 4410.56094058 0 163.74861174 0 769.84213615 0 16306
0.12550000 0.12549900 12900.14419971 0 410.93383439 0 4450.73133503 0 57.79078144 0 810.97360839 0 17523
0.12650000 0.12650100 12784.21695886 0 202.22494049 0 4449.38051140 0 150.63676469 0 836.83523747 0 17154
0.12750000 0.12750600 12721.32615389 0 -43.23798203 0 4035.25341853 0 287.54273938 0 1064.34715338 0 18007
0.12850000 0.12850300 12744.91020575 0 5.18565689 0 4208.66816984 0 325.71457919 0 642.72631107 0 17496
0.12950000 0.12949900 12806.14016200 0 68.72935257 0 3976.54795234 0 -290.18016715 0 218.52893878 0 18405
0.13050000 0.13049000 12512.83427755 0 304.64948122 0 3779.74845102 0 -20.85848839 0 78.71526088 0 18100
0.13150000 0.13148800 12332.13393651 0 316.51901343 0 3847.09033056 0 -383.36263836 0 -322.72837319 0 19059
0.13250000 0.13249300 11993.76369005 0 206.01167558 0 3860.15567385 0 -204.94541070 0 -197.22246413 0 18957
0.13350000 0.13349100 12034.39912214 0 56.14831277 0 3704.74452269 0 12.82762047 0 -780.90338865 0 19468
0.13450000 0.13450700 12123.75278342 0 -147.98494290 0 3666.43427882 0 41.65829345 0 -621.77968698 0 19953
0.13550000 0.13551000 12147.22611204 0 -15.37226216 0 3423.97250994 0 284.10478252 0 -1043.05950168 0 19956
0.13650000 0.13649900 12082.01011886 0 54.43188098 0 3357.52748871 0 272.00494596 0 -487.40595298 0 19723
0.13750000 0.13749600 12140.80416365 0 201.22843125 0 3175.79742146 0 594.37346859 0 -730.07255987 0 20946
0.13850000 0.13851100 11920.46489975 0 117.80621437 0 3246.13990103 0 543.16507354 0 -411.75872259 0 20955
0.13950000 0.13949800 11806.64140062 0 242.12074127 0 3241.48952461 0 291.15785343 0 -473.37510297 0 20506
0.14050000 0.14048300 11457.64172234 0 239.28401166 0 3011.08551746 0 227.45655428 0 -255.21819430 0 21447
0.14150000 0.14148400 11280.92741823 0 428.59751417 0 3211.51674132 0 -199.04275433 0 411.38226354 0 21771
0.14250000 0.14249400 11081.07195525 0 97.67052735 0 3214.45090740 0 38.09167618 0 253.63263739 0 22470
0.14350000 0.14350900 10856.14874889 0 134.33830256 0 3254.35556605 0 36.13242830 0 512.77154191 0 22519
0.14450000 0.14449900 10925.25112808 0 166.78132151 0 3012.73529385 0 252.31170904 0 114.12245191 0 22218
0.14550000 0.14550500 10733.02449690 0 -2.46478808 0 2953.46513910 0 155.64145551 0 109.16548281 0 23559
0.14650000 0.14650700 10704.13680145 0 216.38090777 0 3248.11077485 0 204.39622338 0 185.93865791 0 23044
0.14750000 0.14750500 10500.45031409 0 328.87794239 0 2880.76425434 0 -10.79016877 0 315.66976611 0 23649
0.14850000 0.14849900 10052.50834122 0 375.11043467 0 3084.97114097 0 250.52020688 0 471.07095218 0 23640
0.14950000 0.14949500 10061.54335828 0 135.60276205 0 2706.62980192 0 35.24653160 0 528.87956005 0 24457
0.15050000 0.15050000 9975.85463651 0 -29.03650750 0 3230.38398281 0 20.31494796 0 123.43206261 0 24591
0.15150000 0.15149900 9925.20982278 0 147.93954637 0 3143.54373926 0 -227.73557687 0 133.46469613 0 25020
0.15250000 0.15250500 9948.42848793 0 98.77333090 0 3125.69515165 0 -82.42094655 0 296.46371148 0 25297
0.15350000 0.15350100 9936.73611292 0 10.01399880 0 3159.93077999 0 -143.48736456 0 506.70280068 0 25452
0.15450000 0.15450400 9937.81012843 0 -43.15062139 0 3090.15298899 0 499.14040282 0 342.90989963 0 26061
0.15550000 0.15549900 9834.90394156 0 132.47593753 0 3142.82403815 0 281.82609807 0 -7.31404561 0 26128
0.15650000 0.15649500 9639.69885501 0 352.93367529 0 2787.82315981 0 41.63780965 0 35.59420259 0 26331
0.15750000 0.15749700 9321.05949138 0 286.17641450 0 2824.86008633 0 185.53119636 0 66.10897618 0 27345
0.15850000 0.15849900 9171.16235799 0 198.06396082 0 2627.35195622 0 117.62130655 0 263.96090198 0 26980
0.15950000 0.15949700 9077.29118817 0 -28.58198856 0 2566.18843392 0 308.73959801 0 437.86062112 0 27777
0.16050000 0.16050000 9216.40387719 0 -83.04155035 0 2339.37186001 0 268.12298888 0 156.13195950 0 28224
0.16150000 0.16150500 9186.10999649 0 -22.77865096 0 2351.16388594 0 -71.72186980 0 -6.09531481 0 28075
0.16250000 0.16249700 9235.59221611 0 185.50573001 0 2242.64403039 0 53.04651170 0 161.87628162 0 28590
0.16350000 0.16349900 9192.90840393 0 70.99087491 0 2507.17294263 0 -186.10917171 0 -25.78567293 0 29163
0.16450000 0.16449100 8949.68264464 0 125.49815842 0 2582.44260675 0 -129.78536259 0 455.16002141 0 28996
0.16550000 0.16550500 8942.60742908 0 203.85035777 0 2530.97844100 0 393.52592531 0 178.14817017 0 30777
0.16650000 0.16650700 8761.30918250 0 137.93791536 0 2609.34835606 0 224.12157005 0 564.53576767 0 29211
0.16750000 0.16749900 8582.00395439 0 202.78187843 0 2433.89629699 0 173.21544946 0 655.14392336 0 30922
0.16850000 0.16850800 8637.93026704 0 -11.26597978 0 2414.39793298 0 408.11482049 0 846.89112287 0 30867
0.16950000 0.16949900 8536.04273406 0 -57.82421986 0 2103.73064322 0 257.29425521 0 1024.77577171 0 30852
0.17050000 0.17049200 8605.85374204 0 67.21111539 0 2296.00156369 0 137.59467329 0 814.16354517 0 31257
0.17150000 0.17149500 8561.03297118 0 142.45431665 0 2219.72431802 0 -48.11478750 0 707.09637864 0 32608
0.17250000 0.17250900 8253.94204233 0 287.38329790 0 2299.24575487 0 -329.00859582 0 460.32083201 0 32361
0.17350000 0.17350400 8206.66321536 0 354.61113250 0 2376.30913560 0 -291.95395359 0 849.77214179 0 32508
0.17450000 0.17449800 7987.17652048 0 96.96931702 0 2460.07127286 0 -337.99489465 0 538.32314589 0 32791
0.17550000 0.17549800 8019.55199825 0 16.58922138 0 2631.38228245 0 220.23850574 0 560.35596505 0 33633
0.17650000 0.17650100 7991.41722088 0 -21.56501343 0 2451.67845064 0 45.41978364 0 389.23982837 0 33984
0.17750000 0.17750300 8044.99620068 0 -85.76224201 0 2375.88838726 0 354.61113250 0 547.02599320 0 34069
0.17850000 0.17849800 8135.46816677 0 -3.50633953 0 2218.47314531 0 358.66913955 0 422.05598467 0 34536
