### header ###
fiducial parameters:
Omega_m = 0.31
Omega_nu = 0
Omega_de = 0.69
Omega_k = 0
H_0 = 100
w_de = -1
zeff = 0
beta = 0
fgrowth = 0
b_1 = 2
gamma = 0.55
Lx = 3500 Ly = 3500 Lz = 3500
nx = 700 ny = 700 nz = 700
xoffset = -685.467585 yoffset = -31.7331281 zoffset = 572.489161
bins = 400 dk = 0.001
kx_ny = 0.628318531 ky_ny = 0.628318531 kz_ny = 0.628318531
############################
A(data) = 8.05306669 (not used)
A(ran) = 8.04548666 (used)
Ngal = 478099
weighted Ngal = 0
Nran = 23820508
weighted Nran = 0
SN(data) = 3496.00816
SN(ran) = 70.0791066
SN(data+ran) = 3566.08726
############################
13 columns: k_central k_mean P_0(k) sigma^{lin}_{P_0(k)} P^img_1(k) sigma^{lin}_{P_1(k)} P_2(k) sigma^{lin}_{P_2(k)} P^img_3(k) sigma^{lin}_{P_3(k)} P_4(k) sigma^{lin}_{P_4(k)} N_modes
### header ###
0.00050000 0 0 0 0 0 0 0 0 0 0 0 0
0.00150000 0.00179520 6835.53294377 0 -5861.31229995 0 10870.67563905 0 -16591.76801749 0 -6987.20164913 0 3
0.00250000 0.00253879 13066.67196498 0 -11784.93964397 0 -7147.98287782 0 -11521.19686679 0 -22061.60720115 0 6
0.00350000 0.00331552 35195.93107078 0 -19109.39323476 0 -4293.12786356 0 -5296.45764932 0 -16753.20251335 0 7
0.00450000 0.00420575 59703.96844061 0 -28337.95452460 0 2020.94287055 0 -39768.02615814 0 -16721.97855736 0 24
0.00550000 0.00557378 86181.21877944 0 -12578.16099398 0 22508.37550759 0 -60263.78518344 0 -32901.19175211 0 45
0.00650000 0.00659388 82101.84214650 0 5754.47543777 0 25442.09869153 0 -59859.97749730 0 27701.84946377 0 40
0.00750000 0.00754703 121884.15160366 0 -13361.63869815 0 78225.64267399 0 -41904.65267839 0 -77621.97952488 0 57
0.00850000 0.00846663 93542.10031887 0 4623.01670920 0 67866.59702016 0 -2297.76206334 0 14020.10985511 0 75
0.00950000 0.00948925 98377.71673692 0 38718.03759559 0 75625.41791358 0 5311.06204576 0 -45450.56470156 0 112
0.01050000 0.01054430 66087.38514505 0 8909.60082879 0 35564.97165698 0 52018.88923048 0 -7181.47666040 0 105
0.01150000 0.01145670 65059.31978564 0 -2336.71450205 0 26758.26594273 0 43912.84023075 0 -12241.78376599 0 144
0.01250000 0.01249090 60974.18554380 0 -4373.52401407 0 3694.38082666 0 36019.71203728 0 -28224.35247196 0 169
0.01350000 0.01339930 66714.41089953 0 -4493.49265348 0 6698.42434554 0 24624.29678043 0 -18107.23711542 0 180
0.01450000 0.01448870 62331.09895033 0 4438.54070540 0 -14630.74856886 0 -3604.67285098 0 1676.81501519 0 267
0.01550000 0.01550050 64965.31574793 0 -1970.98454097 0 -18521.67423338 0 4989.90926440 0 31735.38667196 0 238
0.01650000 0.01653350 62437.72543833 0 -8663.68449457 0 -20369.53452237 0 811.22384293 0 9705.50168141 0 315
0.01750000 0.01747870 75063.94032203 0 -13608.99443460 0 -21286.65518710 0 -1896.20205914 0 -7475.21436551 0 297
0.01850000 0.01844180 76221.66260506 0 -1042.32540655 0 -7042.31968208 0 -8921.19355288 0 -14611.48272368 0 388
0.01950000 0.01947590 73663.29123247 0 6578.51106775 0 -12395.57835772 0 -24640.79454441 0 -6104.09516625 0 399
0.02050000 0.02045430 67619.57345346 0 12996.25197913 0 -1058.59065170 0 -26218.26866132 0 -10262.40640281 0 462
0.02150000 0.02154770 60568.05266946 0 10579.61743654 0 10012.86941837 0 -16035.93731160 0 -11222.24409669 0 571
0.02250000 0.02255340 55871.61537438 0 4301.90821714 0 21890.87195245 0 -5039.45791796 0 -11749.06531156 0 510
0.02350000 0.02348930 54545.81520059 0 -5750.25688202 0 13707.87029523 0 2152.69246357 0 -15942.59761338 0 555
0.02450000 0.02439640 60906.20146942 0 -6419.84465310 0 19079.05506475 0 8195.46909497 0 -13115.72236393 0 592
0.02550000 0.02547300 64653.62980429 0 -964.55228979 0 19076.61915329 0 382.50010426 0 -21020.14432871 0 837
0.02650000 0.02652900 66795.90321020 0 3542.66783200 0 24000.70344664 0 0.97495031 0 -5197.40463150 0 723
0.02750000 0.02749970 60338.85554571 0 4932.90893623 0 19848.47091640 0 -7833.08297598 0 -3428.47894614 0 826
0.02850000 0.02848090 60389.01317714 0 6864.57565177 0 24232.44720510 0 -191.08950342 0 5618.66230155 0 831
0.02950000 0.02946900 57555.38380955 0 -3187.01368650 0 24455.55455019 0 9745.84923305 0 4587.57419746 0 996
0.03050000 0.03053250 59367.81265911 0 -5219.79287228 0 15772.96959715 0 15072.64505238 0 322.15704123 0 1041
0.03150000 0.03150510 63837.71018840 0 -3496.16406776 0 12300.35636428 0 12373.21226159 0 -2429.88811540 0 1036
0.03250000 0.03246190 63043.38160591 0 808.04719294 0 4215.99804887 0 7304.63412936 0 -8650.30912619 0 1059
0.03350000 0.03345080 59642.07414487 0 6173.17540079 0 201.78536919 0 -4288.86501850 0 -2172.98803496 0 1302
0.03450000 0.03451200 54343.19165641 0 3745.91142637 0 1518.68007213 0 -6758.08203166 0 725.32917592 0 1339
0.03550000 0.03553350 51904.62283835 0 2212.42765596 0 1350.04856514 0 -3707.62332715 0 -1860.80383670 0 1365
0.03650000 0.03647120 52058.30670684 0 -348.55789252 0 7872.57795860 0 -4010.15245817 0 -1510.57513036 0 1308
0.03750000 0.03744890 51271.83947497 0 1140.40516702 0 8652.95541182 0 379.47182342 0 1595.26734290 0 1579
0.03850000 0.03847530 49488.53083968 0 1764.17565800 0 16546.15003924 0 494.45680943 0 -306.84623047 0 1662
0.03950000 0.03950240 48761.30054559 0 1757.13365942 0 19162.98328688 0 -890.05990287 0 859.91439132 0 1683
0.04050000 0.04050350 48830.94546870 0 1999.92759804 0 24036.46705581 0 -919.37277560 0 6064.73305152 0 1822
0.04150000 0.04152450 46330.15018516 0 2110.85014808 0 23923.97223565 0 -2115.88805587 0 5354.47663137 0 1887
0.04250000 0.04250150 46528.12335292 0 2836.29779787 0 27362.48270808 0 1300.58849017 0 10073.59004768 0 1920
0.04350000 0.04349210 44970.13652768 0 868.65709900 0 25290.62928801 0 2237.88293072 0 8156.01840164 0 2005
0.04450000 0.04448520 44096.86226924 0 581.38341711 0 21863.96620314 0 7348.92342863 0 6426.52126496 0 2151
0.04550000 0.04548030 43155.49321316 0 -711.05805646 0 19983.99617218 0 5527.14953692 0 5596.45121796 0 2274
0.04650000 0.04648670 43854.59980221 0 -309.53016200 0 15642.98050378 0 6693.41965472 0 277.58539767 0 2311
0.04750000 0.04749250 43684.30744649 0 749.29854468 0 17057.91289236 0 -1042.92663378 0 3885.95419068 0 2568
0.04850000 0.04851840 41382.14967020 0 1863.80443672 0 14635.73111503 0 191.07068047 0 2757.08638612 0 2493
0.04950000 0.04949480 42197.95856284 0 1179.67870315 0 16541.16749307 0 -1003.02751130 0 9797.66771320 0 2644
0.05050000 0.05050630 39978.84322269 0 13.45165670 0 17450.53753043 0 1185.43631206 0 1825.46097588 0 2829
0.05150000 0.05149060 41016.43078144 0 769.98939807 0 19660.57356423 0 -385.88380672 0 3449.29491680 0 2784
0.05250000 0.05249300 39037.47416660 0 2914.46841109 0 17324.86664374 0 -2779.33068668 0 -1123.97383699 0 3055
0.05350000 0.05348950 37646.23655314 0 1691.62978579 0 17418.53851170 0 -754.11279152 0 1503.41133620 0 3009
0.05450000 0.05448610 36839.94985985 0 -840.13921919 0 15629.02937451 0 1476.15127250 0 -1812.63922374 0 3336
0.05550000 0.05550870 37523.77664065 0 285.38695774 0 16315.73495976 0 1918.97783129 0 -5392.24433133 0 3349
0.05650000 0.05647670 37868.01521926 0 364.25623465 0 15569.46026699 0 174.18759958 0 -7747.38318188 0 3324
0.05750000 0.05747970 34952.00775502 0 1815.55124516 0 13922.56267346 0 866.39945197 0 -3074.54101099 0 3639
0.05850000 0.05849280 35245.20291622 0 1068.37637238 0 12358.04317659 0 1841.87016126 0 -2794.14545728 0 3846
0.05950000 0.05951020 34063.78585807 0 -609.49494259 0 12828.50625813 0 2884.93852080 0 -2494.61692629 0 3787
0.06050000 0.06049470 35220.95452487 0 -349.72048663 0 14182.20869046 0 3229.23246103 0 -1857.65929645 0 3930
0.06150000 0.06148310 33956.82720032 0 358.97473571 0 10735.98080763 0 2479.18210549 0 -389.04384822 0 4083
0.06250000 0.06249100 34420.53616373 0 170.64777734 0 10482.13668884 0 878.59672499 0 558.34855256 0 4303
0.06350000 0.06350600 34373.70022974 0 -340.41641208 0 9721.64513099 0 1443.52113126 0 -2302.47887371 0 4470
0.06450000 0.06451750 33590.00107908 0 248.34560229 0 9880.35583494 0 -602.48837545 0 -2696.60934796 0 4479
0.06550000 0.06550280 33212.10263302 0 1411.69926973 0 9356.30270128 0 -893.18451294 0 -5776.01110954 0 4636
0.06650000 0.06648880 32254.56798270 0 1142.89644011 0 9491.14147292 0 -1727.94701120 0 -5617.88723881 0 4653
0.06750000 0.06749660 31081.23372167 0 1514.71617984 0 8976.58839395 0 -1842.71165794 0 -6122.51951474 0 5220
0.06850000 0.06852730 30557.51275775 0 1170.83191562 0 10077.80860344 0 -68.20164557 0 -7372.66249304 0 5029
0.06950000 0.06949320 29451.27678512 0 20.69306785 0 9071.77717041 0 1601.80001454 0 -6576.54019393 0 5040
0.07050000 0.07048030 29684.34922255 0 -367.69862044 0 8448.70423589 0 1702.20385599 0 -9146.68144781 0 5475
0.07150000 0.07148790 29481.94712486 0 435.82552781 0 8615.84097903 0 1483.68045337 0 -6455.98472131 0 5509
0.07250000 0.07249820 29138.26216249 0 1296.53601929 0 8577.04355287 0 489.60713116 0 -4802.44373289 0 5916
0.07350000 0.07351270 27411.20093728 0 1827.35434342 0 9208.07748893 0 -612.03714837 0 -2782.88490294 0 5721
0.07450000 0.07449140 26281.27018954 0 1959.19251504 0 10122.74009755 0 -366.19721319 0 -820.72943379 0 6028
0.07550000 0.07549160 24979.16479087 0 694.60679624 0 10787.72178151 0 346.90368720 0 -660.38113300 0 6183
0.07650000 0.07648840 24781.30234636 0 45.01442583 0 9942.62658972 0 1389.56569242 0 927.65598179 0 6330
0.07750000 0.07749960 24880.06748374 0 -466.04522394 0 10832.96330072 0 965.33842485 0 298.87083490 0 6583
0.07850000 0.07848650 25058.22119007 0 -191.97307494 0 9398.08965514 0 235.26586498 0 -143.17401776 0 6549
0.07950000 0.07947320 24802.00759377 0 721.17594688 0 10296.63095883 0 634.23826687 0 -322.68297665 0 6828
0.08050000 0.08048110 24034.36331409 0 581.66465416 0 8467.66005598 0 524.39637574 0 489.02694134 0 7147
0.08150000 0.08149960 23854.43803579 0 322.11385916 0 9330.41560585 0 207.57176614 0 -167.24414469 0 7386
0.08250000 0.08250610 23469.78547159 0 460.97963534 0 9342.27406573 0 -697.56310697 0 -1134.17144815 0 7227
0.08350000 0.08350160 23365.59489504 0 620.23731213 0 9123.78388009 0 -338.78656587 0 -1473.20603410 0 7798
0.08450000 0.08449610 22863.02207153 0 398.33352875 0 9478.89548167 0 -685.38465690 0 -1603.29477839 0 7371
0.08550000 0.08548940 22664.05239454 0 201.34247620 0 9052.09057689 0 228.69665466 0 -1433.41209870 0 8256
0.08650000 0.08650700 22311.50957231 0 810.25280004 0 9528.45520756 0 229.79613652 0 -2856.92553901 0 8037
0.08750000 0.08749060 21323.85819849 0 783.21307560 0 8626.04966251 0 849.37353809 0 -2836.02098975 0 8155
0.08850000 0.08849210 20833.46493227 0 542.14199072 0 8106.72441154 0 997.67514948 0 -2991.76431065 0 8718
0.08950000 0.08949900 20577.69422896 0 -127.68162088 0 7537.65120517 0 1624.66436529 0 -3230.06288539 0 8571
0.09050000 0.09049190 20215.62920739 0 -129.04130237 0 7403.65393021 0 997.06284992 0 -3638.96384095 0 8932
0.09150000 0.09150830 20047.99420963 0 683.95079084 0 5729.81737040 0 736.80342613 0 -2075.96125257 0 9285
0.09250000 0.09250820 19937.04951495 0 39.48202801 0 5676.22731828 0 681.18049517 0 -1410.93527932 0 9204
0.09350000 0.09350330 20258.58982768 0 -323.10815393 0 5442.63448158 0 836.68465385 0 -1600.33846766 0 9349
0.09450000 0.09448040 19861.09336670 0 210.61001207 0 5238.79298167 0 626.84416835 0 -323.18123127 0 9564
0.09550000 0.09549270 19815.58611169 0 636.80483176 0 5363.71095027 0 617.24224827 0 -263.45489673 0 10155
0.09650000 0.09649430 19504.34306104 0 289.84578294 0 5263.56177229 0 164.35426791 0 1272.44264048 0 9913
0.09750000 0.09749140 18997.78420059 0 371.33920084 0 5740.81218895 0 232.46013787 0 1157.84407861 0 10476
0.09850000 0.09850240 19242.03968608 0 539.34290701 0 6504.01646637 0 -673.10766314 0 968.19619188 0 10575
0.09950000 0.09950330 18348.06018023 0 733.74635724 0 7385.18529241 0 -649.25676825 0 1683.12624033 0 10882
0.10050000 0.10051200 17676.08078698 0 1089.21227322 0 7422.02291708 0 -43.43606592 0 2842.23256397 0 10875
0.10150000 0.10150300 17431.05023875 0 142.99243164 0 7288.55711372 0 326.18847469 0 2834.78088937 0 11118
0.10250000 0.10250800 17163.09997814 0 -206.62729684 0 7700.91263462 0 1420.08101962 0 2079.88085556 0 11575
0.10350000 0.10349800 17425.62479959 0 142.61154366 0 6879.08039728 0 723.61739450 0 1125.62361339 0 11364
0.10450000 0.10450100 16862.48635931 0 364.42896292 0 6194.76643419 0 456.32704445 0 1051.48554087 0 12093
0.10550000 0.10551000 16624.54209896 0 481.89193522 0 6109.05556776 0 170.24031578 0 994.03235462 0 12067
0.10650000 0.10649700 15914.47390834 0 290.47136929 0 5894.73964858 0 -28.03789452 0 518.84803377 0 12054
0.10750000 0.10749900 15826.44892603 0 400.45609341 0 5652.33324132 0 443.09561629 0 507.39814267 0 12807
0.10850000 0.10850100 15562.26325586 0 295.36755133 0 5477.09155642 0 120.46246510 0 443.59608537 0 12736
0.10950000 0.10950300 15352.33197729 0 -7.53331085 0 5321.92399641 0 379.19501530 0 892.33858732 0 12933
0.11050000 0.11050200 15378.79483361 0 2.97098156 0 5244.81632637 0 453.03634951 0 688.59120217 0 13428
0.11150000 0.11150900 15309.37135700 0 149.50406586 0 5048.75867081 0 188.68459447 0 386.88585212 0 13453
0.11250000 0.11250000 15311.03220572 0 133.70607281 0 4866.90680798 0 187.33598530 0 839.17814140 0 13668
0.11350000 0.11349100 15107.07998256 0 20.06504559 0 4729.82035441 0 29.91908251 0 255.30345120 0 13791
0.11450000 0.11448600 15237.62269217 0 -89.34480343 0 4523.19970096 0 146.22776495 0 4.12781805 0 14205
0.11550000 0.11549300 14961.81108094 0 264.35175505 0 4271.32645599 0 321.99095635 0 -976.03761232 0 14776
0.11650000 0.11649800 14770.81347782 0 562.50510330 0 4472.36665772 0 -320.96787354 0 -1338.17903293 0 14553
0.11750000 0.11747300 14197.26705221 0 428.38603277 0 4250.14509861 0 -457.57932439 0 -1563.34583044 0 14568
0.11850000 0.11849100 13873.40155127 0 471.47177034 0 4012.03475339 0 -68.64121686 0 -1088.08400332 0 16015
0.11950000 0.11950300 13545.55001339 0 136.22502671 0 4139.21147625 0 353.69988017 0 -1514.30650382 0 15270
0.12050000 0.12050700 13494.39587273 0 -189.63349270 0 3989.09289636 0 1017.73155866 0 -1353.66921535 0 15999
0.12150000 0.12150000 13629.25678902 0 -21.08414237 0 3333.88807522 0 865.51255875 0 -971.11264224 0 15670
0.12250000 0.12250700 13686.05781534 0 176.37659820 0 3345.07112329 0 222.15291070 0 -1006.85742845 0 16887
0.12350000 0.12352200 13265.30947223 0 359.04781306 0 3602.46945835 0 -403.48326702 0 165.57775980 0 16407
0.12450000 0.12449800 13320.44964982 0 253.78764994 0 3492.70950242 0 -498.79051736 0 -91.29829369 0 16306
0.12550000 0.12549900 12998.68789059 0 250.46152356 0 4090.37145148 0 53.38942160 0 871.88578891 0 17523
0.12650000 0.12650100 12961.81704895 0 233.74342032 0 3957.81357875 0 148.79100815 0 720.54703883 0 17154
0.12750000 0.12750600 12826.07034667 0 132.88782801 0 4651.87118768 0 330.84106558 0 580.34261858 0 18007
0.12850000 0.12850300 12645.03783589 0 126.12817371 0 4521.22882715 0 244.97740108 0 643.17584746 0 17496
0.12950000 0.12949900 12563.65624847 0 170.19491925 0 4323.04528522 0 551.75387590 0 706.26595428 0 18405
0.13050000 0.13049000 12419.16240959 0 -35.97951950 0 4196.34467232 0 231.96741942 0 1024.35170167 0 18100
0.13150000 0.13148800 12510.50908934 0 -50.39214327 0 4125.71431230 0 260.19963324 0 833.62094157 0 19059
0.13250000 0.13249300 12437.21029904 0 130.06770688 0 4208.62388054 0 16.40287416 0 890.59137446 0 18957
0.13350000 0.13349100 12333.01972250 0 256.43061387 0 3918.17465590 0 60.82570567 0 724.73902100 0 19468
0.13450000 0.13450700 12332.57682950 0 49.79357339 0 3641.65441588 0 16.59309670 0 702.39285506 0 19953
0.13550000 0.13551000 12039.27094506 0 249.29671499 0 3632.75226672 0 -23.11369951 0 816.05359102 0 19956
0.13650000 0.13649900 11956.22850892 0 272.08688116 0 3469.12545055 0 281.17725984 0 144.77175424 0 19723
0.13750000 0.13749600 11740.65034470 0 175.49524114 0 3753.77277699 0 -339.25824691 0 35.62166196 0 20946
0.13850000 0.13851100 11544.67019541 0 237.97304840 0 3589.57019993 0 -40.20615805 0 133.18124462 0 20955
0.13950000 0.13949800 11409.25566288 0 118.55027460 0 3615.42407838 0 -3.89632896 0 -319.82078069 0 20506
0.14050000 0.14048300 11536.69812154 0 -77.26932598 0 3345.58045023 0 131.51153803 0 52.04734511 0 21447
0.14150000 0.14148400 11482.44372993 0 -115.30386896 0 3663.33402787 0 142.55728927 0 -465.74848564 0 21771
0.14250000 0.14249400 11522.52554577 0 134.56639245 0 3288.65762834 0 70.75946333 0 -391.61705651 0 22470
0.14350000 0.14350900 11478.56841624 0 342.84900185 0 3341.86014909 0 160.24975710 0 -56.00725135 0 22519
0.14450000 0.14449900 11179.50492289 0 189.29246510 0 3048.32174582 0 343.65728156 0 410.32817822 0 22218
0.14550000 0.14550500 10979.49444737 0 116.36570491 0 3218.76911408 0 528.39902116 0 215.36779005 0 23559
0.14650000 0.14650700 11008.14962400 0 117.94129674 0 2979.82834449 0 544.09404159 0 447.04068562 0 23044
0.14750000 0.14750500 10676.43384476 0 357.44896935 0 2925.33036174 0 274.11090214 0 358.15095475 0 23649
0.14850000 0.14849900 10385.54172712 0 217.21908276 0 2720.82452234 0 111.71532849 0 780.43281484 0 23640
0.14950000 0.14949500 10236.32000554 0 11.62616251 0 2792.28530672 0 211.54340906 0 802.97606817 0 24457
0.15050000 0.15050000 10227.34035011 0 -26.30441135 0 2647.63645528 0 124.42967908 0 805.19939100 0 24591
0.15150000 0.15149900 10236.51930739 0 133.95187842 0 2540.99889496 0 197.41955152 0 3.85521742 0 25020
0.15250000 0.15250500 10038.28040383 0 325.86073388 0 2606.76850438 0 -319.68569833 0 219.69042566 0 25297
0.15350000 0.15350100 9841.04908184 0 412.22265300 0 2828.89041257 0 -594.36682519 0 119.11053424 0 25452
0.15450000 0.15450400 9566.56614958 0 360.18383358 0 3053.11606247 0 -618.27308171 0 30.42541992 0 26061
0.15550000 0.15549900 9472.16350818 0 83.01198725 0 3334.77386120 0 -276.97309811 0 215.27699698 0 26128
0.15650000 0.15649500 9533.81421277 0 -69.85585090 0 3462.06130732 0 69.38693794 0 -432.26356092 0 26331
0.15750000 0.15749700 9615.53904226 0 -99.99538339 0 3342.46912695 0 126.95084744 0 -208.13977641 0 27345
0.15850000 0.15849900 9612.02911529 0 113.23777315 0 3243.93650839 0 299.91938406 0 -590.81925232 0 26980
0.15950000 0.15949700 9505.83444795 0 102.06734754 0 3153.38703603 0 225.40263803 0 -532.27101315 0 27777
0.16050000 0.16050000 9366.90998845 0 251.21222718 0 2863.53571692 0 537.31999326 0 -209.56367738 0 28224
0.16150000 0.16150500 9055.24618946 0 298.30725357 0 2564.84868262 0 154.24523535 0 -488.39471159 0 28075
0.16250000 0.16249700 8882.35183742 0 169.50179172 0 2571.87960888 0 193.48334004 0 -175.37676727 0 28590
0.16350000 0.16349900 8783.74171258 0 78.23981525 0 2481.11976234 0 176.47292742 0 -243.91999406 0 29163
0.16450000 0.16449100 8731.29210992 0 -1.80710306 0 2281.72933700 0 19.82333674 0 -44.32151974 0 28996
0.16550000 0.16550500 8728.40223314 0 -86.39646477 0 2404.42176832 0 127.58196996 0 -163.67664163 0 30777
0.16650000 0.16650700 8846.49964965 0 74.22775835 0 2439.22208522 0 20.16558230 0 59.77505277 0 29211
0.16750000 0.16749900 8815.60786341 0 123.41102520 0 2573.85048269 0 -134.99267696 0 -199.81449537 0 30922
0.16850000 0.16850800 8656.81965318 0 101.02665973 0 2491.43916907 0 -142.68794271 0 300.67451661 0 30867
0.16950000 0.16949900 8643.66573130 0 -49.03722288 0 2599.41648070 0 282.27120553 0 -4.13319920 0 30852
0.17050000 0.17049200 8757.63317066 0 13.34923769 0 2472.83766337 0 220.84305467 0 129.60377647 0 31257
0.17150000 0.17149500 8596.99588219 0 136.06779970 0 2612.49289631 0 129.54509315 0 54.38903108 0 32608
0.17250000 0.17250900 8432.54971398 0 268.86483464 0 2537.62183589 0 -101.17746479 0 40.03121532 0 32361
0.17350000 0.17350400 8222.69594170 0 370.63057205 0 2563.45356969 0 204.47926582 0 674.89362914 0 32508
0.17450000 0.17449800 8046.73455568 0 127.51332154 0 2546.65685294 0 197.69746687 0 594.72556852 0 32791
0.17550000 0.17549800 8003.28675309 0 4.60008592 0 2504.53772933 0 367.81045092 0 700.65117836 0 33633
0.17650000 0.17650100 7991.95976480 0 -26.07344265 0 2470.65641538 0 54.11388381 0 634.81181329 0 33984
0.17750000 0.17750300 7982.67008428 0 128.60616000 0 2472.01831134 0 11.53249064 0 453.15925232 0 34069
