### header ###
fiducial parameters:
Omega_m = 0.31
Omega_nu = 0
Omega_de = 0.69
Omega_k = 0
H_0 = 100
w_de = -1
zeff = 0
beta = 0
fgrowth = 0
b_1 = 2
gamma = 0.55
Lx = 3500 Ly = 3500 Lz = 3500
nx = 700 ny = 700 nz = 700
xoffset = -685.467585 yoffset = -31.7331281 zoffset = 572.489161
bins = 400 dk = 0.001
kx_ny = 0.628318531 ky_ny = 0.628318531 kz_ny = 0.628318531
############################
A(data) = 8.07048498 (not used)
A(ran) = 8.07126389 (used)
Ngal = 479881
weighted Ngal = 0
Nran = 23820508
weighted Nran = 0
SN(data) = 3489.40306
SN(ran) = 70.3036357
SN(data+ran) = 3559.7067
############################
13 columns: k_central k_mean P_0(k) sigma^{lin}_{P_0(k)} P^img_1(k) sigma^{lin}_{P_1(k)} P_2(k) sigma^{lin}_{P_2(k)} P^img_3(k) sigma^{lin}_{P_3(k)} P_4(k) sigma^{lin}_{P_4(k)} N_modes
### header ###
0.00050000 0 0 0 0 0 0 0 0 0 0 0 0
0.00150000 0.00179520 14925.05096254 0 -21977.01463954 0 20211.86461695 0 -24832.78865676 0 -37961.46564073 0 3
0.00250000 0.00253879 48174.79949994 0 -45056.61138452 0 -11871.30377756 0 -21230.85067001 0 -21911.02358362 0 6
0.00350000 0.00331552 60947.61196424 0 -34555.17563352 0 -11638.12061688 0 -5201.41281308 0 48923.73155068 0 7
0.00450000 0.00420575 83448.23684445 0 -11186.25904103 0 -14509.50661210 0 -56534.62618452 0 16496.76747055 0 24
0.00550000 0.00557378 85384.67573198 0 -3469.25831845 0 -4142.99821134 0 -45885.48562044 0 15938.27940670 0 45
0.00650000 0.00659388 76094.77376264 0 10900.71485628 0 5890.72039467 0 -43287.91821799 0 -13094.24205378 0 40
0.00750000 0.00754703 76989.19616149 0 2642.02278660 0 -1798.83203469 0 15611.64582455 0 -13869.85840733 0 57
0.00850000 0.00846663 74553.72759438 0 -4162.68480487 0 -579.99605481 0 -3867.45233590 0 -32227.44078690 0 75
0.00950000 0.00948925 81025.16928114 0 -10079.71304330 0 -27361.37547560 0 4463.17662812 0 -16962.35872917 0 112
0.01050000 0.01054430 77288.70254784 0 -8264.05107489 0 -25305.13403353 0 -23538.54460871 0 -33105.58686826 0 105
0.01150000 0.01145670 87985.78627838 0 -22.36764626 0 -7827.67968147 0 -29738.71433741 0 -10514.70039613 0 144
0.01250000 0.01249090 82311.33053207 0 6313.37317764 0 -3329.24877112 0 -28268.97394098 0 -5243.98590201 0 169
0.01350000 0.01339930 88511.38953752 0 20168.90399665 0 24926.79269447 0 2809.54706111 0 -3775.54096759 0 180
0.01450000 0.01448870 74336.59930469 0 2312.66541255 0 28209.07266371 0 -1530.74890618 0 20085.41866752 0 267
0.01550000 0.01550050 73420.91804219 0 1640.97389975 0 34536.02051158 0 20493.76600683 0 -261.16624719 0 238
0.01650000 0.01653350 81484.67076111 0 -378.64361352 0 56645.57087920 0 1511.40555472 0 17432.48964097 0 315
0.01750000 0.01747870 80083.02516232 0 7810.72795217 0 43853.16039998 0 10207.00048942 0 18340.97389234 0 297
0.01850000 0.01844180 68252.02464710 0 11423.20679215 0 35971.99031731 0 -2159.80089610 0 16465.98640755 0 388
0.01950000 0.01947590 67516.37938615 0 4563.63583120 0 44571.08994122 0 5798.51007358 0 26439.71515769 0 399
0.02050000 0.02045430 67965.91577379 0 -5951.24172212 0 34996.40777754 0 25309.00934721 0 16471.30112347 0 462
0.02150000 0.02154770 75615.34209800 0 -12980.52927789 0 22156.93991784 0 18360.57190727 0 -12625.32909771 0 571
0.02250000 0.02255340 81035.68798972 0 -2849.66209393 0 18593.97651445 0 12060.08691572 0 -21186.33992424 0 510
0.02350000 0.02348930 81993.33336328 0 7087.37297177 0 11323.66659203 0 -17698.66832961 0 -12467.54846904 0 555
0.02450000 0.02439640 69547.48665088 0 9695.65838464 0 25425.49020431 0 -5880.34562631 0 -2303.75219107 0 592
0.02550000 0.02547300 69194.27948917 0 7379.39446653 0 20213.85763542 0 -2418.95973080 0 356.39377680 0 837
0.02650000 0.02652900 61228.18467514 0 192.97401310 0 29473.31071151 0 4256.36774516 0 -2438.09270809 0 723
0.02750000 0.02749970 67955.28634196 0 1685.69501969 0 30619.73922323 0 -4567.77688068 0 -16060.40714945 0 826
0.02850000 0.02848090 61440.44114192 0 2884.16345806 0 31868.36529303 0 5008.87615681 0 133.60088573 0 831
0.02950000 0.02946900 62158.48140641 0 3107.80227475 0 31122.53349324 0 794.42712618 0 -1699.34719619 0 996
0.03050000 0.03053250 56772.01682863 0 2904.59189735 0 28588.74268174 0 8370.68863522 0 532.78587625 0 1041
0.03150000 0.03150510 57953.43388678 0 -1860.19485883 0 30084.17087175 0 10102.40023686 0 3333.06872318 0 1036
0.03250000 0.03246190 56330.12034512 0 -2483.54460147 0 22512.14009802 0 9373.46480475 0 -10455.03163768 0 1059
0.03350000 0.03345080 58800.79890515 0 1758.25196423 0 20160.15686005 0 6098.07182154 0 -4008.02657180 0 1302
0.03450000 0.03451200 54686.65517229 0 3565.29966393 0 15872.95269027 0 -4909.53525854 0 -5110.36508610 0 1339
0.03550000 0.03553350 50418.82757094 0 6154.78426927 0 16357.80979408 0 1596.27492445 0 -4030.72483768 0 1365
0.03650000 0.03647120 48282.20105069 0 4919.88788224 0 20817.63150778 0 -9800.09255233 0 -6561.06108384 0 1308
0.03750000 0.03744890 45465.06944708 0 2857.76703569 0 22613.23042362 0 -2103.24346093 0 -6016.59058320 0 1579
0.03850000 0.03847530 43612.33733517 0 -1957.55381096 0 25045.93090952 0 1806.43872184 0 2324.60137870 0 1662
0.03950000 0.03950240 47423.09936801 0 -2754.24079864 0 23496.24832790 0 8160.58019946 0 -747.22691271 0 1683
0.04050000 0.04050350 49069.00045230 0 -1702.73532759 0 26159.91750953 0 4898.52936767 0 -655.09520513 0 1822
0.04150000 0.04152450 48494.34679421 0 2015.07453840 0 23168.17534353 0 3708.54233011 0 -1427.33339237 0 1887
0.04250000 0.04250150 45617.97825282 0 3995.85808683 0 22935.32435259 0 2326.36187835 0 4871.84506485 0 1920
0.04350000 0.04349210 43797.02371315 0 465.43292438 0 18670.48627895 0 1183.42114894 0 2815.43753791 0 2005
0.04450000 0.04448520 44282.54515645 0 1333.92726020 0 21842.37516974 0 4032.36354175 0 -301.33331994 0 2151
0.04550000 0.04548030 41616.66150986 0 1065.88731376 0 18381.60932443 0 -1153.34871473 0 -3165.21227893 0 2274
0.04650000 0.04648670 41234.55558037 0 1470.31615732 0 19477.88020472 0 1038.23528976 0 -1651.04971533 0 2311
0.04750000 0.04749250 40626.90639432 0 1783.67402201 0 16945.41807220 0 -541.24956134 0 -1366.92278816 0 2568
0.04850000 0.04851840 38495.48386673 0 1268.32373565 0 16769.92172383 0 2553.27810318 0 -1031.28851317 0 2493
0.04950000 0.04949480 39032.15945069 0 -582.09647483 0 14674.81642164 0 2566.33237414 0 356.17233030 0 2644
0.05050000 0.05050630 39035.81331788 0 -761.42938376 0 13862.66139619 0 3706.26143120 0 -562.89817083 0 2829
0.05150000 0.05149060 40048.48814580 0 60.00845737 0 12307.77482191 0 2544.78563004 0 803.27834264 0 2784
0.05250000 0.05249300 39450.69332884 0 -677.85879772 0 14624.65879021 0 1971.65995278 0 2778.79921509 0 3055
0.05350000 0.05348950 40813.36434427 0 576.08752415 0 14681.45981653 0 -1053.75315299 0 1799.40779558 0 3009
0.05450000 0.05448610 38697.33234818 0 1764.77356354 0 13004.77766924 0 1938.34332740 0 1760.39999524 0 3336
0.05550000 0.05550870 37015.11403848 0 2065.01072333 0 13706.43089300 0 -882.89832318 0 -456.60606703 0 3349
0.05650000 0.05647670 36039.64222196 0 1342.98442190 0 13514.32605740 0 925.12263387 0 1530.08456669 0 3324
0.05750000 0.05747970 34796.55231457 0 875.19752127 0 14172.24359812 0 1331.86780779 0 444.66677918 0 3639
0.05850000 0.05849280 33525.22797889 0 1271.24682940 0 12275.77580318 0 591.90101846 0 -969.32224732 0 3846
0.05950000 0.05951020 31956.61172183 0 1969.76658524 0 12946.53724070 0 -518.12833266 0 1770.77476360 0 3787
0.06050000 0.06049470 31975.21322753 0 977.92433647 0 12540.73653610 0 724.48214307 0 4526.31102424 0 3930
0.06150000 0.06148310 31583.03148245 0 -791.63468586 0 13018.06445903 0 1825.02915521 0 4522.43571055 0 4083
0.06250000 0.06249100 31634.96068585 0 -348.11942846 0 12772.92318754 0 3044.73431258 0 6359.52262749 0 4303
0.06350000 0.06350600 32147.05570871 0 -125.40404366 0 13098.33881396 0 3008.09598976 0 4094.88896000 0 4470
0.06450000 0.06451750 31317.29568680 0 537.24802315 0 11617.85826246 0 779.28129306 0 7247.10232960 0 4479
0.06550000 0.06550280 31376.53262458 0 1208.89856835 0 12648.91314957 0 -194.94710138 0 5657.81404211 0 4636
0.06650000 0.06648880 29961.26806626 0 293.87500194 0 13065.01111626 0 1485.02020468 0 6411.49612019 0 4653
0.06750000 0.06749660 30521.97059508 0 34.93351697 0 11471.59285161 0 -702.02525387 0 3305.08895837 0 5220
0.06850000 0.06852730 30150.82626716 0 107.74457136 0 11015.57915395 0 8.41255310 0 2592.78415813 0 5029
0.06950000 0.06949320 30088.48907843 0 440.12269708 0 10532.40504351 0 -781.66295013 0 193.41579886 0 5040
0.07050000 0.07048030 29952.85309940 0 154.66044753 0 9522.32113961 0 -1590.05227791 0 -2244.39345771 0 5475
0.07150000 0.07148790 29168.93250224 0 1018.69927985 0 11074.87145335 0 808.21770674 0 -2030.48721454 0 5509
0.07250000 0.07249820 28503.70722714 0 1372.30393802 0 10672.19314435 0 -515.83414695 0 -2149.86902074 0 5916
0.07350000 0.07351270 27910.78423310 0 605.26642175 0 11377.36736740 0 786.90569593 0 -946.37485413 0 5721
0.07450000 0.07449140 27100.62222612 0 416.92396212 0 10711.59954838 0 1947.92088837 0 -355.55006565 0 6028
0.07550000 0.07549160 26910.28896249 0 383.55640404 0 10864.53049877 0 2061.45650706 0 820.69068065 0 6183
0.07650000 0.07648840 27151.00130404 0 -72.53590712 0 10642.24250572 0 2413.85538906 0 1850.41799602 0 6330
0.07750000 0.07749960 26609.01100417 0 -16.13115931 0 9291.57389039 0 1957.65346189 0 2301.09483311 0 6583
0.07850000 0.07848650 26609.01100417 0 500.09262276 0 8937.25949619 0 628.74196483 0 3170.58235647 0 6549
0.07950000 0.07947320 26288.35647742 0 444.60145247 0 9528.70987103 0 -532.89770673 0 1684.33312374 0 6828
0.08050000 0.08048110 25684.02898882 0 1138.50072715 0 9141.21171935 0 -419.28679623 0 678.62389537 0 7147
0.08150000 0.08149960 24567.82792385 0 903.13631848 0 8492.90495657 0 -580.50095282 0 953.82542150 0 7386
0.08250000 0.08250610 23905.03856021 0 625.61403307 0 8735.88712471 0 -134.01277621 0 321.75511583 0 7227
0.08350000 0.08350160 23822.54974031 0 -208.82515331 0 8372.32733929 0 680.66563206 0 -503.73873932 0 7798
0.08450000 0.08449610 23571.09724368 0 416.24633584 0 9011.89803779 0 322.20908115 0 -1285.45262215 0 7371
0.08550000 0.08548940 23357.51209793 0 789.55308880 0 8596.58620617 0 384.30821490 0 -607.63922095 0 8256
0.08650000 0.08650700 22797.58463185 0 1053.25600561 0 8708.82636286 0 -655.24578875 0 -134.88970434 0 8037
0.08750000 0.08749060 21926.96773136 0 880.74475600 0 8852.03581206 0 -419.55696096 0 -83.55873865 0 8155
0.08850000 0.08849210 21205.82721592 0 436.13887461 0 8616.40566760 0 530.20381010 0 232.53653691 0 8718
0.08950000 0.08949900 21110.71594573 0 -172.84009765 0 9106.88751241 0 727.26793999 0 183.68543981 0 8571
0.09050000 0.09049190 20786.29682854 0 103.43920858 0 8292.25228621 0 1030.72493183 0 -1952.16158878 0 8932
0.09150000 0.09150830 20657.52569090 0 450.06010860 0 8138.15874171 0 993.54185063 0 -1549.67150929 0 9285
0.09250000 0.09250820 19761.77461307 0 913.14348565 0 6991.67486836 0 479.34308605 0 -924.29331675 0 9204
0.09350000 0.09350330 19231.41025426 0 752.15520449 0 6248.74401768 0 28.08240527 0 -1357.16807000 0 9349
0.09450000 0.09448040 18666.94313500 0 354.06305242 0 7196.98898747 0 89.88546505 0 -683.99840183 0 9564
0.09550000 0.09549270 18631.95458858 0 -5.66181115 0 6796.44763716 0 419.70090118 0 -332.38565489 0 10155
0.09650000 0.09649430 18454.90811473 0 51.82445921 0 6676.72258889 0 1010.00307593 0 -389.02059634 0 9913
0.09750000 0.09749140 18538.94706010 0 127.91967586 0 6843.17284789 0 276.86791102 0 -585.98839700 0 10476
0.09850000 0.09850240 18361.56841651 0 528.40012839 0 6342.68162144 0 566.29958901 0 837.46414552 0 10575
0.09950000 0.09950330 17678.29525195 0 569.01452306 0 6563.46377832 0 771.97355868 0 1061.32662317 0 10882
0.10050000 0.10051200 17541.10914744 0 294.64009959 0 6346.42406723 0 -82.56909425 0 1934.84447276 0 10875
0.10150000 0.10150300 17374.13848918 0 6.03740655 0 7329.85688529 0 886.50457937 0 683.92753896 0 11118
0.10250000 0.10250800 17054.36974842 0 236.18154624 0 6345.67114914 0 243.32098128 0 954.19080822 0 11575
0.10350000 0.10349800 17196.98129208 0 270.35849126 0 6249.77374388 0 267.62916319 0 1137.74780906 0 11364
0.10450000 0.10450100 16977.52781417 0 87.25401633 0 6753.37629361 0 -63.90226184 0 2084.78589545 0 12093
0.10550000 0.10551000 16704.81645389 0 624.91536937 0 6396.11666101 0 70.07430787 0 1736.77165408 0 12067
0.10650000 0.10649700 16408.52104174 0 495.60943844 0 6861.69684731 0 -53.07884289 0 1573.69845415 0 12054
0.10750000 0.10749900 15688.26631229 0 423.15435929 0 6570.18467949 0 559.99168556 0 2263.69251987 0 12807
0.10850000 0.10850100 15327.64069295 0 564.00208161 0 6389.47326612 0 771.71114458 0 1871.03466483 0 12736
0.10950000 0.10950300 15177.16779866 0 292.16764945 0 6249.44157414 0 345.97361191 0 1619.98077189 0 12933
0.11050000 0.11050200 14768.37756636 0 336.09709817 0 5503.90872713 0 252.04154431 0 1278.55456378 0 13428
0.11150000 0.11150900 14629.19844339 0 -59.18301556 0 5126.59711428 0 -70.43858735 0 733.95783865 0 13453
0.11250000 0.11250000 14568.63282663 0 -99.69410543 0 4909.67919876 0 -222.89475646 0 1007.89822699 0 13668
0.11350000 0.11349100 14676.92016336 0 36.52671379 0 5041.20734528 0 109.84709512 0 -502.48535215 0 13791
0.11450000 0.11448600 14517.25723947 0 67.48327313 0 4684.83349867 0 934.42670842 0 -104.08848971 0 14205
0.11550000 0.11549300 14347.29705351 0 222.89254199 0 4262.66789798 0 695.62323566 0 -291.27300561 0 14776
0.11650000 0.11649800 14391.47562953 0 -116.09886189 0 3648.05421962 0 736.37381992 0 219.83990204 0 14553
0.11750000 0.11747300 14247.53540689 0 45.11773062 0 3577.75602935 0 700.10531275 0 435.67272973 0 14568
0.11850000 0.11849100 14375.64220504 0 93.87338428 0 3580.57947218 0 97.22220892 0 992.66713697 0 16015
0.11950000 0.11950300 14276.76634441 0 106.02193907 0 3733.61007350 0 -124.19383856 0 1505.31577607 0 15270
0.12050000 0.12050700 14050.11585537 0 380.53919553 0 3780.41279051 0 46.85043873 0 1305.00634778 0 15999
0.12150000 0.12150000 13778.17955783 0 544.14608151 0 4023.17351215 0 -297.79903386 0 805.08645328 0 15670
0.12250000 0.12250700 13572.45576270 0 173.62180378 0 4111.85176163 0 523.43308348 0 1350.44716883 0 16887
0.12350000 0.12352200 13435.04821170 0 -49.64620075 0 4025.74229151 0 -88.75896672 0 694.06757402 0 16407
0.12450000 0.12449800 13532.92756309 0 -180.93064540 0 4304.97525111 0 430.37905124 0 928.23506438 0 16306
0.12550000 0.12549900 13829.99803798 0 6.31300779 0 5025.28534219 0 -163.49726997 0 1108.26220807 0 17523
0.12650000 0.12650100 13401.49906750 0 265.48002494 0 4508.44029198 0 -106.89299886 0 1212.40849532 0 17154
0.12750000 0.12750600 13311.92395971 0 568.92483723 0 4974.66267312 0 74.68338452 0 1751.33176121 0 18007
0.12850000 0.12850300 13218.91643124 0 208.31804084 0 4638.79477207 0 234.14645294 0 1792.10006120 0 17496
0.12950000 0.12949900 12847.66138007 0 79.68597159 0 4757.13577973 0 632.08359246 0 1670.10518635 0 18405
0.13050000 0.13049000 13163.11191415 0 -59.10406988 0 4183.62257110 0 331.13005326 0 1697.70849212 0 18100
0.13150000 0.13148800 12911.65941752 0 -76.42982231 0 4085.54391786 0 358.96477062 0 1322.02451102 0 19059
0.13250000 0.13249300 12967.46393461 0 49.83044423 0 3726.85595536 0 389.29297553 0 1454.82597490 0 18957
0.13350000 0.13349100 12692.75955586 0 226.97380092 0 3417.34018738 0 -184.04529037 0 785.27584972 0 19468
0.13450000 0.13450700 12849.87584503 0 377.45333860 0 3324.80876887 0 -298.59181231 0 604.99957872 0 19953
0.13550000 0.13551000 12304.45312447 0 223.86690658 0 3787.63194629 0 -381.65639310 0 407.16370779 0 19956
0.13650000 0.13649900 12402.66464561 0 73.15186055 0 3505.49803758 0 -388.42158357 0 395.23659949 0 19723
0.13750000 0.13749600 11941.39159366 0 222.48618767 0 3814.37161072 0 152.61317467 0 234.41883213 0 20946
0.13850000 0.13851100 12166.15978748 0 274.54825897 0 3887.93613682 0 122.22960814 0 123.60700535 0 20955
0.13950000 0.13949800 11750.06182080 0 166.35835870 0 3953.94933739 0 305.65041939 0 58.02053218 0 20506
0.14050000 0.14048300 11473.47514683 0 396.09802636 0 3679.13423539 0 218.66734284 0 253.05576927 0 21447
0.14150000 0.14148400 11205.96777921 0 406.80385723 0 3851.68534536 0 -72.04352083 0 335.50915772 0 21771
0.14250000 0.14249400 10853.40281233 0 369.98394828 0 3741.12818205 0 240.28716428 0 370.88412829 0 22470
0.14350000 0.14350900 10710.59196682 0 -13.77862245 0 3689.46471445 0 380.33767922 0 366.22932293 0 22519
0.14450000 0.14449900 10643.92549909 0 5.60679277 0 3320.08088617 0 396.27518356 0 335.43718761 0 22218
0.14550000 0.14550500 10599.01614962 0 112.42506451 0 3181.96470638 0 166.71710203 0 -175.37787450 0 23559
0.14650000 0.14650700 10613.19979772 0 70.49317391 0 3243.18359030 0 -73.46775398 0 -110.42396325 0 23044
0.14750000 0.14750500 10448.16679629 0 190.02434577 0 3038.60024463 0 -330.81006307 0 56.65996490 0 23649
0.14850000 0.14849900 10373.31788052 0 223.55798872 0 3668.65981611 0 -71.10370190 0 539.33958531 0 23640
0.14950000 0.14949500 10212.78024297 0 81.67389679 0 3375.73039071 0 409.78674154 0 504.84375734 0 24457
0.15050000 0.15050000 10300.09659649 0 87.07752347 0 3431.39096757 0 369.04612237 0 1091.76333686 0 24591
0.15150000 0.15149900 10182.92925526 0 170.89026125 0 3422.36702285 0 357.93393718 0 773.20147950 0 25020
0.15250000 0.15250500 10165.40176508 0 39.41614768 0 3256.50359706 0 205.63743100 0 841.39039190 0 25297
0.15350000 0.15350100 9953.14529830 0 74.18357978 0 3186.82545698 0 105.69851646 0 559.63515670 0 25452
0.15450000 0.15450400 9752.68085746 0 246.10124205 0 3133.93296132 0 -226.85864874 0 467.88876602 0 26061
0.15550000 0.15549900 9777.43857576 0 196.33114199 0 3009.25858386 0 142.07232145 0 681.51820107 0 26128
0.15650000 0.15649500 9467.82315685 0 142.53071569 0 2880.05562555 0 -2.33958223 0 319.94921966 0 26331
0.15750000 0.15749700 9399.04187508 0 172.26544399 0 3031.28143793 0 258.70708385 0 493.91315828 0 27345
0.15850000 0.15849900 9312.97669426 0 176.82834905 0 3190.68969834 0 -32.22976598 0 -14.14921316 0 26980
0.15950000 0.15949700 9109.81060617 0 200.79882505 0 3012.95674035 0 -87.53281747 0 323.99615438 0 27777
0.16050000 0.16050000 8947.63426455 0 -12.07293081 0 2931.38692341 0 52.24830780 0 410.26728044 0 28224
0.16150000 0.16150500 9075.59712248 0 -8.77883667 0 3036.26398409 0 111.95891964 0 -87.86221913 0 28075
0.16250000 0.16249700 9103.51045334 0 -39.86092296 0 2941.06413530 0 47.87274648 0 -157.63558121 0 28590
0.16350000 0.16349900 8961.67397242 0 84.76407193 0 2795.87273996 0 118.92119748 0 -418.55380833 0 29163
0.16450000 0.16449100 8865.76549484 0 105.17557056 0 2719.26332454 0 167.09799000 0 4.44644635 0 28996
0.16550000 0.16550500 8781.53831994 0 138.13278828 0 2539.43769716 0 453.87452450 0 -88.67592428 0 30777
0.16650000 0.16650700 8763.46828584 0 164.50485153 0 2435.29140991 0 367.43288464 0 275.81714739 0 29211
0.16750000 0.16749900 8520.30896050 0 227.60603067 0 2128.63230174 0 150.95786211 0 5.98517840 0 30922
0.16850000 0.16850800 8428.68547262 0 319.70230681 0 2542.78153925 0 -219.45901407 0 482.95155671 0 30867
0.16950000 0.16949900 8167.37860690 0 211.05401230 0 2623.85310157 0 -367.86027638 0 401.54228848 0 30852
0.17050000 0.17049200 8079.70793899 0 103.69863315 0 2606.72421508 0 -103.39049035 0 764.61156991 0 31257
0.17150000 0.17149500 8077.74813749 0 -133.89098064 0 2537.13465359 0 255.84931682 0 634.18179801 0 32608
0.17250000 0.17250900 8263.07671031 0 -150.01007111 0 2395.67463171 0 391.06122580 0 268.69764254 0 32361
0.17350000 0.17350400 8358.58658419 0 -7.51377927 0 2256.67266594 0 332.61485202 0 173.29738467 0 32508
0.17450000 0.17449800 8234.15579788 0 175.58271251 0 2248.01410793 0 77.29733896 0 251.15575833 0 32791
0.17550000 0.17549800 8103.09268900 0 247.91488885 0 2270.83416938 0 3.30979470 0 426.15717378 0 33633
0.17650000 0.17650100 7886.73946205 0 135.75666737 0 2057.96872474 0 71.98727342 0 380.60120055 0 33984
0.17750000 0.17750300 7863.46543528 0 100.43894073 0 2137.18013650 0 249.99648592 0 369.34396791 0 34069
0.17850000 0.17849800 7824.73444306 0 40.22741691 0 2140.12537490 0 -22.98138522 0 536.64125975 0 34536
