### header ###
fiducial parameters:
Omega_m = 0.31
Omega_nu = 0
Omega_de = 0.69
Omega_k = 0
H_0 = 100
w_de = -1
zeff = 0
beta = 0
fgrowth = 0
b_1 = 2
gamma = 0.55
Lx = 3500 Ly = 3500 Lz = 3500
nx = 700 ny = 700 nz = 700
xoffset = -685.467585 yoffset = -31.7331281 zoffset = 572.489161
bins = 400 dk = 0.001
kx_ny = 0.628318531 ky_ny = 0.628318531 kz_ny = 0.628318531
############################
A(data) = 8.05734096 (not used)
A(ran) = 8.0630195 (used)
Ngal = 479294
weighted Ngal = 0
Nran = 23820508
weighted Nran = 0
SN(data) = 3480.00952
SN(ran) = 70.231824
SN(data+ran) = 3550.24134
############################
13 columns: k_central k_mean P_0(k) sigma^{lin}_{P_0(k)} P^img_1(k) sigma^{lin}_{P_1(k)} P_2(k) sigma^{lin}_{P_2(k)} P^img_3(k) sigma^{lin}_{P_3(k)} P_4(k) sigma^{lin}_{P_4(k)} N_modes
### header ###
0.00050000 0 0 0 0 0 0 0 0 0 0 0 0
0.00150000 0.00179520 32483.98655294 0 -64662.37694089 0 -24747.42103241 0 -80297.60681730 0 28943.72141543 0 3
0.00250000 0.00253879 51755.36789980 0 -57355.08545358 0 -48098.62190519 0 -22661.17359008 0 -26201.32800435 0 6
0.00350000 0.00331552 80741.05342629 0 -37740.90493034 0 -11616.41886023 0 -58409.28149956 0 -17216.35786051 0 7
0.00450000 0.00420575 94195.36748317 0 -4539.98534539 0 -14247.75685339 0 -54607.15588009 0 38832.63615746 0 24
0.00550000 0.00557378 65190.41611150 0 29887.63710622 0 -556.62237712 0 -27453.71866459 0 37775.00769078 0 45
0.00650000 0.00659388 44561.12484888 0 29728.52779858 0 -19206.38680017 0 -9307.87235252 0 42832.51349820 0 40
0.00750000 0.00754703 42209.80595040 0 -1312.10370798 0 15427.29161632 0 13575.11312065 0 17850.13773313 0 57
0.00850000 0.00846663 37439.18407903 0 -12311.98230534 0 15364.51153459 0 19217.45912499 0 13288.11846135 0 75
0.00950000 0.00948925 55150.58558219 0 -12475.07764992 0 19717.81748354 0 11318.90549236 0 12990.27292373 0 112
0.01050000 0.01054430 62999.42447638 0 -13867.75466561 0 8281.10245511 0 11662.59045473 0 25501.99996880 0 105
0.01150000 0.01145670 79185.61323577 0 -4707.28817340 0 18278.41525712 0 -2555.84688254 0 6620.74091461 0 144
0.01250000 0.01249090 79308.73748775 0 3829.96144407 0 14134.48697049 0 -17319.33048133 0 22779.64746564 0 169
0.01350000 0.01339930 92686.20961039 0 -4738.35711684 0 21653.81347808 0 -7226.96177075 0 6876.96558324 0 180
0.01450000 0.01448870 85953.01816492 0 -2382.52070983 0 25385.74055821 0 1250.58587129 0 -5558.53957778 0 267
0.01550000 0.01550050 93605.87690983 0 5959.10307275 0 16559.65827552 0 12862.05540233 0 2904.89085012 0 238
0.01650000 0.01653350 85346.25476486 0 7352.35584933 0 23132.19028787 0 -65.13328292 0 -5354.63164392 0 315
0.01750000 0.01747870 85739.43301917 0 3534.09785259 0 15742.52070390 0 10484.66117890 0 -9413.62412686 0 297
0.01850000 0.01844180 78187.77532311 0 5023.75736137 0 22727.82898549 0 13134.65603937 0 5988.27864864 0 388
0.01950000 0.01947590 71447.94048275 0 1918.55708295 0 15355.32150500 0 21378.33403659 0 16609.15156746 0 399
0.02050000 0.02045430 74874.04995139 0 -829.13665002 0 9373.24335825 0 19051.15280621 0 8363.32553922 0 462
0.02150000 0.02154770 69784.76657174 0 -1462.85341039 0 9033.38942027 0 4725.72359422 0 4958.27563239 0 571
0.02250000 0.02255340 70950.12875891 0 3826.73939755 0 7467.17585770 0 3717.75450436 0 2319.77384508 0 510
0.02350000 0.02348930 67530.21979217 0 2748.40568346 0 10025.61366424 0 -16412.83924842 0 14790.63293924 0 555
0.02450000 0.02439640 66108.09039247 0 5608.27646087 0 18205.89152956 0 -12191.95830431 0 8591.44864746 0 592
0.02550000 0.02547300 63747.02784814 0 5821.68444942 0 22291.91155738 0 -12528.44625555 0 11904.74219851 0 837
0.02650000 0.02652900 60926.68527033 0 3774.64410928 0 26631.48782355 0 -2388.53298220 0 13748.83789706 0 723
0.02750000 0.02749970 56603.82821464 0 1226.03852717 0 26304.74351815 0 217.29216010 0 507.59744452 0 826
0.02850000 0.02848090 57545.08654747 0 -681.15502882 0 32799.32636378 0 4948.41019097 0 148.71793080 0 831
0.02950000 0.02946900 58286.26797083 0 1922.32167339 0 35341.97503513 0 -492.75277864 0 -9892.57968154 0 996
0.03050000 0.03053250 56295.68541493 0 4947.90086403 0 33209.22382857 0 -1049.49473687 0 -2575.84350116 0 1041
0.03150000 0.03150510 52774.13250636 0 242.79283139 0 30749.61759335 0 -1257.84931637 0 3752.58803824 0 1036
0.03250000 0.03246190 54605.71647786 0 282.52697623 0 29289.06722652 0 3536.54483637 0 -6973.40553241 0 1059
0.03350000 0.03345080 55039.08727126 0 -193.25635738 0 29694.20359164 0 5964.50636726 0 1857.81430900 0 1302
0.03450000 0.03451200 53769.09161457 0 1386.50973077 0 25356.06672769 0 6744.45199981 0 -1460.30677568 0 1339
0.03550000 0.03553350 52241.88585233 0 1118.99129082 0 22660.73069709 0 7505.13178717 0 4983.06656766 0 1365
0.03650000 0.03647120 49734.55789715 0 1351.10043600 0 23007.29446391 0 5323.66235140 0 19.20295438 0 1308
0.03750000 0.03744890 48332.80157511 0 2457.26997468 0 22693.06188556 0 6764.84722212 0 3037.60373540 0 1579
0.03850000 0.03847530 45919.58838088 0 1072.82523249 0 19438.46272837 0 3923.11291277 0 3676.74261323 0 1662
0.03950000 0.03950240 44352.96514229 0 437.87833684 0 17929.74774858 0 3761.87771876 0 4892.95998828 0 1683
0.04050000 0.04050350 45874.52401887 0 400.29111577 0 15892.99359819 0 4162.81767277 0 177.94665386 0 1822
0.04150000 0.04152450 44098.41239471 0 -1681.97471855 0 14122.30741319 0 -264.67285246 0 2279.82489713 0 1887
0.04250000 0.04250150 45087.50317076 0 1878.33132688 0 13491.73851477 0 -811.50618721 0 5519.58713907 0 1920
0.04350000 0.04349210 44043.93655660 0 1605.08849501 0 14420.48512056 0 -2669.07247613 0 296.16808041 0 2005
0.04450000 0.04448520 43029.15798698 0 2359.94423952 0 15402.04671573 0 652.90177758 0 -257.76372178 0 2151
0.04550000 0.04548030 40910.02573993 0 1838.95813983 0 13291.99377504 0 -1467.02767685 0 2701.74690667 0 2274
0.04650000 0.04648670 41016.43078144 0 887.22095879 0 18435.19937655 0 -412.09975019 0 5188.10387865 0 2311
0.04750000 0.04749250 39151.40838899 0 874.48446355 0 18778.55216918 0 2329.28497210 0 519.99401939 0 2568
0.04850000 0.04851840 39888.38232892 0 928.16641597 0 19014.72485756 0 920.06811760 0 2275.07486979 0 2493
0.04950000 0.04949480 37199.80041645 0 1314.78321059 0 16726.96110353 0 2678.43966293 0 1178.09536070 0 2644
0.05050000 0.05050630 37656.42309198 0 937.95767280 0 15932.41107454 0 3502.05454456 0 7157.38328159 0 2829
0.05150000 0.05149060 36840.39275284 0 -96.53550333 0 14236.35235882 0 2201.15602930 0 6628.63548220 0 2784
0.05250000 0.05249300 38296.84635949 0 -937.85912911 0 16121.19421270 0 2342.20637516 0 5701.90403953 0 3055
0.05350000 0.05348950 38389.30027172 0 -51.41821561 0 14371.76689135 0 426.78608183 0 5011.69959964 0 3009
0.05450000 0.05448610 37621.43454555 0 1503.00166018 0 16170.90895114 0 -519.82018389 0 5191.79096281 0 3336
0.05550000 0.05550870 36692.57721651 0 963.83701760 0 17130.10445018 0 -1607.64620204 0 5262.88636047 0 3349
0.05650000 0.05647670 35430.55363368 0 2004.63333609 0 18236.78331580 0 -1483.91297219 0 4115.37276092 0 3324
0.05750000 0.05747970 35716.99467674 0 -94.45423844 0 18782.31675961 0 22.25703373 0 2384.79053641 0 3639
0.05850000 0.05849280 33670.93977350 0 -449.26179398 0 15072.31288263 0 3729.84548306 0 1711.39388559 0 3846
0.05950000 0.05951020 34114.49710574 0 536.87156411 0 13667.23486314 0 1636.10207683 0 -2429.47843938 0 3787
0.06050000 0.06049470 34639.43602539 0 -86.78809290 0 13451.65669893 0 2218.52850694 0 -698.54079325 0 3930
0.06150000 0.06148310 34434.15512325 0 510.90253348 0 10358.79099036 0 1843.78567345 0 -164.38969935 0 4083
0.06250000 0.06249100 32679.41308599 0 1222.15214116 0 10066.09408378 0 1188.96838368 0 2430.82926301 0 4303
0.06350000 0.06350600 32742.74678396 0 -86.63928086 0 9308.01629274 0 2842.06647910 0 1252.82248091 0 4470
0.06450000 0.06451750 32889.12291806 0 71.89581602 0 8055.68099413 0 2351.79500845 0 -2161.05206880 0 4479
0.06550000 0.06550280 31531.43444880 0 1540.23788855 0 7914.67493757 0 -1181.21775630 0 -1462.25550485 0 4636
0.06650000 0.06648880 30774.53032419 0 1430.06825660 0 8953.90120039 0 -1587.16240113 0 -18.34872452 0 4653
0.06750000 0.06749660 30130.01029650 0 687.82167559 0 9385.51149415 0 -2079.16115445 0 -281.80395342 0 5220
0.06850000 0.06852730 29675.15919295 0 -138.98203559 0 8944.83296637 0 -493.71496366 0 -2096.00216049 0 5029
0.06950000 0.06949320 30829.55977854 0 -374.83694825 0 11692.48573174 0 -720.59132813 0 -1183.95262053 0 5040
0.07050000 0.07048030 30503.92270563 0 296.76155702 0 11238.29896768 0 -62.70025026 0 -3010.52082889 0 5475
0.07150000 0.07148790 30708.53926827 0 1172.70313852 0 12480.06019609 0 -976.38749779 0 -461.72591003 0 5509
0.07250000 0.07249820 29895.27701035 0 1008.05213230 0 11858.57060402 0 876.26378615 0 -606.77336515 0 5916
0.07350000 0.07351270 28791.58767242 0 -298.29285954 0 12009.59711454 0 2613.79943064 0 -1143.64935819 0 5721
0.07450000 0.07449140 28311.38094504 0 1326.99598487 0 11696.69321517 0 1868.15586038 0 -938.96303990 0 6028
0.07550000 0.07549160 26483.34011748 0 1764.60747867 0 10861.16451203 0 1382.42404291 0 -1436.82237474 0 6183
0.07650000 0.07648840 25673.39955700 0 844.94128647 0 9217.00178273 0 1910.38570723 0 238.82118848 0 6330
0.07750000 0.07749960 24289.35895466 0 366.47623578 0 8682.40779584 0 1293.90080598 0 -589.62897740 0 6583
0.07850000 0.07848650 24518.66680166 0 635.83378887 0 7966.19446495 0 709.30641467 0 -125.77718101 0 6549
0.07950000 0.07947320 23998.48898168 0 153.48567387 0 8173.01442023 0 1272.57550838 0 268.80947302 0 6828
0.08050000 0.08048110 23506.98848298 0 186.55538640 0 7512.86026990 0 652.39466510 0 1575.54753239 0 7147
0.08150000 0.08149960 23242.69208956 0 894.41243376 0 7095.72150468 0 280.04234655 0 1205.52150928 0 7386
0.08250000 0.08250610 23019.36329797 0 659.19196531 0 7934.12901227 0 712.12875027 0 1622.97029959 0 7227
0.08350000 0.08350160 22357.45972031 0 176.25923156 0 8208.34620873 0 517.19161398 0 2066.36154696 0 7798
0.08450000 0.08449610 22581.67429788 0 -749.81783672 0 6941.25150113 0 270.66851635 0 611.73044498 0 7371
0.08550000 0.08548940 22984.70692128 0 -225.69826910 0 7970.99985392 0 211.81025208 0 1205.07861629 0 8256
0.08650000 0.08650700 23475.21091075 0 618.57978511 0 7660.56508298 0 -726.88705202 0 -278.89525369 0 8037
0.08750000 0.08749060 22094.49200586 0 747.89789560 0 7804.17313588 0 -965.64734271 0 463.67131750 0 8155
0.08850000 0.08849210 22062.82515688 0 820.64860582 0 7698.00061319 0 -945.54110807 0 -792.98108056 0 8718
0.08950000 0.08949900 21128.87455843 0 905.35189068 0 8404.11598385 0 392.18506677 0 -172.96300046 0 8571
0.09050000 0.09049190 20459.99541614 0 375.80688390 0 8084.95622095 0 684.68377874 0 -1230.42316780 0 8932
0.09150000 0.09150830 19975.47048207 0 592.31623064 0 7290.50584289 0 1121.87009527 0 -1095.54675025 0 9285
0.09250000 0.09250820 18951.39115960 0 706.94579502 0 6639.25384171 0 1684.37741304 0 -1440.16621684 0 9204
0.09350000 0.09350330 18926.58915200 0 562.40877407 0 5595.37720245 0 1221.49887399 0 -1950.95470537 0 9349
0.09450000 0.09448040 18264.46412785 0 193.69592868 0 5279.46163073 0 80.72566289 0 -528.62711105 0 9564
0.09550000 0.09549270 17988.76323986 0 197.48930716 0 5486.18193509 0 313.87826396 0 -864.74856834 0 10155
0.09650000 0.09649430 17805.18409437 0 332.55616870 0 5748.50745470 0 -328.17706423 0 672.91168299 0 9913
0.09750000 0.09749140 17697.11820414 0 226.74460380 0 5752.77029975 0 102.31426038 0 -25.99206107 0 10476
0.09850000 0.09850240 17568.01489675 0 248.98336820 0 6055.33264774 0 554.37026625 0 705.53518084 0 10575
0.09950000 0.09950330 17604.77501515 0 36.71405753 0 6521.02355729 0 511.12619444 0 531.12059860 0 10882
0.10050000 0.10051200 17559.26776015 0 -22.09803515 0 5744.60999636 0 291.39812288 0 1078.01483113 0 10875
0.10150000 0.10150300 17298.73595716 0 328.64099464 0 6344.36461481 0 25.00274884 0 971.60978963 0 11118
0.10250000 0.10250800 17612.85781227 0 36.88844664 0 5584.71455365 0 9.10560312 0 564.83693490 0 11575
0.10350000 0.10349800 17022.03855995 0 -11.37227410 0 5634.25213489 0 582.43085904 0 735.67847793 0 11364
0.10450000 0.10450100 17123.68250178 0 496.08887010 0 5396.47395941 0 -512.61874383 0 -404.88945227 0 12093
0.10550000 0.10551000 16944.31083972 0 227.04577103 0 5931.99802159 0 375.28094847 0 -967.36244583 0 12067
0.10650000 0.10649700 16490.78841515 0 320.33342933 0 5670.56936030 0 -1166.84587869 0 -1127.97094625 0 12054
0.10750000 0.10749900 16386.70856185 0 295.23800513 0 6200.83406819 0 -194.36248263 0 -1008.18389297 0 12807
0.10850000 0.10850100 16181.09548997 0 314.87809489 0 6618.13891828 0 98.92557537 0 -234.56941575 0 12736
0.10950000 0.10950300 16073.36176948 0 424.16304808 0 6170.62876608 0 577.23793870 0 -679.17640438 0 12933
0.11050000 0.11050200 15629.36154426 0 35.92947259 0 6524.57777356 0 790.57617161 0 -227.23510779 0 13428
0.11150000 0.11150900 15409.57589661 0 373.26246366 0 5713.77357174 0 656.18693635 0 -224.66854290 0 13453
0.11250000 0.11250000 15340.37386649 0 166.94962085 0 6088.44997128 0 479.83359004 0 761.21679512 0 13668
0.11350000 0.11349100 15211.27055910 0 -116.30480713 0 5449.00106835 0 750.86417141 0 606.14224264 0 13791
0.11450000 0.11448600 15141.73635924 0 86.01568752 0 5058.42481037 0 599.54756598 0 1292.52783770 0 14205
0.11550000 0.11549300 15168.53138530 0 378.40334407 0 5124.74803604 0 284.54546105 0 494.65168234 0 14776
0.11650000 0.11649800 14849.98060027 0 275.18270318 0 5135.11173207 0 345.36574128 0 1089.20562983 0 14553
0.11750000 0.11747300 14546.15600725 0 315.96207549 0 4618.73171950 0 384.93269402 0 1145.65344899 0 14568
0.11850000 0.11849100 14426.35345271 0 93.98133944 0 4917.29695823 0 244.63194454 0 1713.67478451 0 16015
0.11950000 0.11950300 14137.25505170 0 171.41841114 0 4785.80202869 0 257.45701838 0 1429.49249571 0 15270
0.12050000 0.12050700 14150.76328797 0 273.36241298 0 4963.22496158 0 376.21988162 0 1522.35608397 0 15999
0.12150000 0.12150000 13616.08072248 0 292.67808363 0 4280.19538817 0 349.21115969 0 1558.75081564 0 15670
0.12250000 0.12250700 13649.29769694 0 193.79447237 0 4248.32923734 0 643.38400717 0 1059.60266219 0 16887
0.12350000 0.12352200 13291.77232854 0 -77.82338511 0 3726.95560628 0 324.48222944 0 652.71908422 0 16407
0.12450000 0.12449800 13358.75989370 0 116.02910624 0 3429.05470704 0 237.49915289 0 571.49250935 0 16306
0.12550000 0.12549900 13214.81967105 0 126.91652323 0 3481.91398572 0 -380.90236778 0 111.45069993 0 17523
0.12650000 0.12650100 13151.70741959 0 357.20537821 0 3666.04674745 0 -174.17542002 0 -11.92555817 0 17154
0.12750000 0.12750600 12848.99005905 0 310.76140452 0 3958.22325477 0 -750.18433067 0 -134.79891127 0 18007
0.12850000 0.12850300 12807.91173397 0 279.65702964 0 4178.48501239 0 -355.57221030 0 104.43660360 0 17496
0.12950000 0.12949900 12644.92711264 0 -37.07025422 0 4542.52090777 0 -385.57599609 0 -350.46565409 0 18405
0.13050000 0.13049000 12768.16208787 0 32.55507088 0 4559.83802379 0 -36.11050510 0 -318.60061049 0 18100
0.13150000 0.13148800 12769.71221334 0 156.64239367 0 4859.43298873 0 -26.75693726 0 -1167.99740047 0 19059
0.13250000 0.13249300 12462.34447638 0 429.31389359 0 4698.56318144 0 116.25941060 0 -640.54949201 0 18957
0.13350000 0.13349100 12116.00215605 0 318.01488451 0 4021.43515716 0 742.36726935 0 -389.17450166 0 19468
0.13450000 0.13450700 11955.56416943 0 -204.78375475 0 3442.44114774 0 1065.23072490 0 -479.30322568 0 19953
0.13550000 0.13551000 12096.95775736 0 -302.34200873 0 3042.70807714 0 1241.62836051 0 -874.98050370 0 19956
0.13650000 0.13649900 12226.94685073 0 1.75547281 0 2802.37219462 0 725.91600913 0 -296.39949200 0 19723
0.13750000 0.13749600 12073.04153576 0 183.91020801 0 2742.12767529 0 -275.52151632 0 -9.29417589 0 20946
0.13850000 0.13851100 12110.90888664 0 267.47193618 0 2970.73796582 0 -330.65615776 0 855.53085792 0 20955
0.13950000 0.13949800 11946.04197009 0 99.69377326 0 3222.19046245 0 -211.55448138 0 1087.78726502 0 20506
0.14050000 0.14048300 11939.73074494 0 210.39963790 0 3514.53305464 0 -246.57292308 0 890.01672080 0 21447
0.14150000 0.14148400 11854.69529033 0 283.26660753 0 4067.93892140 0 -277.69612092 0 885.11057368 0 21771
0.14250000 0.14249400 11569.91509600 0 259.71355818 0 4002.40183079 0 -208.79747250 0 853.44815363 0 22470
0.14350000 0.14350900 11352.67608305 0 249.54473507 0 4237.64444389 0 306.00805548 0 1153.08297894 0 22519
0.14450000 0.14449900 11124.69691504 0 274.36113668 0 4133.45386735 0 407.10059554 0 689.55117273 0 22218
0.14550000 0.14550500 11040.33687225 0 135.28387910 0 3748.20339761 0 508.08130512 0 397.03585228 0 23559
0.14650000 0.14650700 10776.87090319 0 223.24132023 0 3968.42086593 0 128.60726723 0 794.27322087 0 23044
0.14750000 0.14750500 10483.28821062 0 354.20699265 0 3549.48838409 0 66.86100848 0 784.02356978 0 23649
0.14850000 0.14849900 10404.45325791 0 162.08001239 0 3890.84815825 0 -212.94184368 0 1197.60479703 0 23640
0.14950000 0.14949500 10325.49650963 0 29.25684676 0 3573.22744850 0 163.96230761 0 778.23274390 0 24457
0.15050000 0.15050000 10207.19979127 0 -104.93552256 0 3712.70552424 0 374.47709769 0 993.08345638 0 24591
0.15150000 0.15149900 10273.21299183 0 219.34496912 0 3356.50883482 0 296.58772152 0 461.79788014 0 25020
0.15250000 0.15250500 10126.29431382 0 156.05113153 0 3244.14688256 0 101.72000871 0 585.33291538 0 25297
0.15350000 0.15350100 9903.20911337 0 139.41607072 0 3087.05273804 0 31.20247568 0 372.08547553 0 25452
0.15450000 0.15450400 9839.98613866 0 91.20373604 0 2892.32376145 0 47.45233031 0 -0.14327478 0 26061
0.15550000 0.15549900 9702.09140536 0 146.70498215 0 2754.08578609 0 105.47618418 0 185.22227850 0 26128
0.15650000 0.15649500 9630.13236637 0 40.64351488 0 2742.07231366 0 119.86788125 0 -14.54438444 0 26331
0.15750000 0.15749700 9609.67071010 0 64.99742549 0 2411.61877945 0 177.27345651 0 59.01150525 0 27345
0.15850000 0.15849900 9580.81623163 0 15.48929664 0 2440.38467933 0 453.33087335 0 -34.81393586 0 26980
0.15950000 0.15949700 9528.21161641 0 60.65795995 0 2077.71067989 0 342.60541070 0 298.49216139 0 27777
0.16050000 0.16050000 9498.69279845 0 89.39817203 0 2181.85696714 0 75.17300272 0 42.09897198 0 28224
0.16150000 0.16150500 9357.03347472 0 181.08676518 0 2390.63672392 0 -123.95799804 0 109.60018228 0 28075
0.16250000 0.16249700 9112.81120619 0 351.34811838 0 2452.61959825 0 -296.55339732 0 84.70638511 0 28590
0.16350000 0.16349900 8996.98361626 0 338.56954830 0 2594.30106663 0 -299.65254103 0 328.56238113 0 29163
0.16450000 0.16449100 8775.57033686 0 58.07744392 0 2364.76070082 0 268.48837560 0 340.67218279 0 28996
0.16550000 0.16550500 8740.69251369 0 -78.26007760 0 2458.97511270 0 443.45768131 0 132.76935413 0 30777
0.16650000 0.16650700 8700.79892736 0 46.05090615 0 2223.54427008 0 391.02579437 0 -100.11142136 0 29211
0.16750000 0.16749900 8675.85297955 0 111.64114391 0 2206.28251569 0 64.74586227 0 53.91480341 0 30922
0.16850000 0.16850800 8539.57480568 0 164.95217345 0 1949.69246034 0 -65.54495195 0 140.44358246 0 30867
0.16950000 0.16949900 8396.24356090 0 171.33979764 0 2034.68362565 0 -31.59886491 0 65.25319619 0 30852
0.17050000 0.17049200 8314.78446721 0 197.55463388 0 2023.89918128 0 -32.09490506 0 258.50888924 0 31257
0.17150000 0.17149500 8221.68836014 0 91.35343387 0 2087.99686965 0 -98.70534683 0 54.85329366 0 32608
0.17250000 0.17250900 8086.50634643 0 160.08920839 0 1992.61986366 0 84.89173583 0 -37.30830920 0 32361
0.17350000 0.17350400 8083.20679363 0 48.56753486 0 1936.47210451 0 209.00341774 0 -91.77894331 0 32508
0.17450000 0.17449800 8033.53634449 0 -83.21593947 0 1774.98224703 0 116.36902661 0 -237.20462905 0 32791
0.17550000 0.17549800 8039.06143458 0 -24.49807228 0 1747.48966450 0 252.47225775 0 -176.75527171 0 33633
0.17650000 0.17650100 8053.04578082 0 174.84861737 0 1783.69616666 0 14.48415099 0 -232.08921499 0 33984
0.17750000 0.17750300 7940.46238207 0 203.08526013 0 1531.57933054 0 235.75969067 0 123.56714498 0 34069
0.17850000 0.17849800 7684.25985809 0 155.99576990 0 1561.43031825 0 -84.72266143 0 136.14641320 0 34536
