### header ###
fiducial parameters:
Omega_m = 0.31
Omega_nu = 0
Omega_de = 0.69
Omega_k = 0
H_0 = 100
w_de = -1
zeff = 0
beta = 0
fgrowth = 0
b_1 = 2
gamma = 0.55
Lx = 3500 Ly = 3500 Lz = 3500
nx = 700 ny = 700 nz = 700
xoffset = -685.467585 yoffset = -31.7331281 zoffset = 572.489161
bins = 400 dk = 0.001
kx_ny = 0.628318531 ky_ny = 0.628318531 kz_ny = 0.628318531
############################
A(data) = 8.02516088 (not used)
A(ran) = 8.02159951 (used)
Ngal = 477117
weighted Ngal = 0
Nran = 23820508
weighted Nran = 0
SN(data) = 3489.11899
SN(ran) = 69.8710409
SN(data+ran) = 3558.99003
############################
13 columns: k_central k_mean P_0(k) sigma^{lin}_{P_0(k)} P^img_1(k) sigma^{lin}_{P_1(k)} P_2(k) sigma^{lin}_{P_2(k)} P^img_3(k) sigma^{lin}_{P_3(k)} P_4(k) sigma^{lin}_{P_4(k)} N_modes
### header ###
0.00050000 0 0 0 0 0 0 0 0 0 0 0 0
0.00150000 0.00179520 9029.76877005 0 -20955.70339827 0 -8867.71422401 0 -13525.06621247 0 30352.23185561 0 3
0.00250000 0.00253879 16462.44326361 0 -18613.24235963 0 -12788.53516554 0 -8618.86372371 0 -5403.21700523 0 6
0.00350000 0.00331552 26830.12533080 0 -9932.69471436 0 -2739.75819778 0 -6169.42188268 0 170.63338332 0 7
0.00450000 0.00420575 32558.61402222 0 -2491.89313439 0 -4195.08242729 0 -11882.37610238 0 9389.81862850 0 24
0.00550000 0.00557378 27408.65430257 0 3101.74571307 0 3087.10809966 0 160.73251046 0 12719.99747491 0 45
0.00650000 0.00659388 30698.46345269 0 1529.87419252 0 20293.13548112 0 2754.76119790 0 32338.27475833 0 40
0.00750000 0.00754703 36149.14751441 0 -4148.27971028 0 18062.83709290 0 33269.56799883 0 9745.92673932 0 57
0.00850000 0.00846663 39350.93168222 0 -8431.76357892 0 24861.35525480 0 23959.73584481 0 40414.76065080 0 75
0.00950000 0.00948925 61811.03185360 0 -11035.34325375 0 22615.55561183 0 21618.93565490 0 21905.15525147 0 112
0.01050000 0.01054430 64743.97997481 0 -6075.32926637 0 15798.87883723 0 11894.66638293 0 22420.23980203 0 105
0.01150000 0.01145670 75554.99792773 0 -4938.60011119 0 27286.74800632 0 1474.55685772 0 21096.54336996 0 144
0.01250000 0.01249090 78653.14513524 0 -1413.44869705 0 24768.01555657 0 -8729.71983979 0 7729.56781125 0 169
0.01350000 0.01339930 81927.67447711 0 998.98057658 0 46188.20298098 0 -13099.77821619 0 -4460.82929526 0 180
0.01450000 0.01448870 79177.41971540 0 2485.29402879 0 31041.59479882 0 -8237.27819348 0 -21270.71103936 0 267
0.01550000 0.01550050 80194.30202675 0 4923.06563947 0 31663.63800713 0 300.96018259 0 -15818.91974515 0 238
0.01650000 0.01653350 72568.45975440 0 5592.18837291 0 33009.03619584 0 -15499.15100439 0 -32443.46184411 0 315
0.01750000 0.01747870 77439.28616537 0 9304.94925877 0 30587.18658826 0 18156.84113061 0 -23141.26959422 0 297
0.01850000 0.01844180 63324.39720981 0 -1611.55473270 0 19613.62690700 0 10103.09779332 0 -17527.15801817 0 388
0.01950000 0.01947590 74883.57215073 0 -7416.19887423 0 13956.11181766 0 14589.89169028 0 -18422.90909600 0 399
0.02050000 0.02045430 74969.60411457 0 -10922.36125130 0 12016.68340243 0 12836.92122499 0 -33762.50789975 0 462
0.02150000 0.02154770 80059.99472670 0 2624.82746616 0 10670.66516353 0 1349.91569724 0 -20848.52329402 0 571
0.02250000 0.02255340 76731.65388621 0 2083.77831389 0 8826.14871664 0 -2683.06789470 0 -28200.10408061 0 510
0.02350000 0.02348930 75417.59037673 0 2395.56390846 0 10864.19832903 0 -7141.01838551 0 -4109.30512692 0 555
0.02450000 0.02439640 77621.75807838 0 579.43690241 0 9708.51335376 0 -6784.87705772 0 -12280.86907260 0 592
0.02550000 0.02547300 71699.61442588 0 2387.66934087 0 10631.44698902 0 2506.81862824 0 -9422.88059041 0 837
0.02650000 0.02652900 70316.68105603 0 4348.65557252 0 10095.21429805 0 4869.01054970 0 -2233.76402589 0 723
0.02750000 0.02749970 66956.11975033 0 2990.50206562 0 4799.78637493 0 -1473.63785476 0 -9992.21953259 0 826
0.02850000 0.02848090 64116.40060409 0 3851.97322581 0 9273.79173673 0 -262.75069688 0 -3998.41579386 0 831
0.02950000 0.02946900 61931.05585463 0 3863.05662295 0 10843.10555025 0 -9498.74816007 0 -6960.68343119 0 996
0.03050000 0.03053250 57527.81372075 0 3049.11895321 0 15059.80115559 0 -9260.18384953 0 -3539.61187035 0 1041
0.03150000 0.03150510 58186.94921721 0 2030.15504480 0 24390.11711051 0 -1796.47362950 0 -3419.64323094 0 1036
0.03250000 0.03246190 56606.48557259 0 -1247.26417385 0 17507.67072649 0 3110.82501942 0 -7119.44949677 0 1059
0.03350000 0.03345080 56186.62301547 0 -1535.93075419 0 23769.18113468 0 2821.12871287 0 -6268.00986286 0 1302
0.03450000 0.03451200 57902.27974612 0 1893.96544953 0 19570.44484021 0 1999.69507922 0 -14294.70351062 0 1339
0.03550000 0.03553350 58853.06027830 0 2441.95694945 0 21288.20531257 0 -1352.78342937 0 -9319.93011425 0 1365
0.03650000 0.03647120 51988.77250698 0 5244.16305921 0 20251.83570955 0 -2697.32904907 0 957.14379725 0 1308
0.03750000 0.03744890 49574.00918728 0 5152.25169089 0 17564.25030632 0 840.71276562 0 -2109.75398792 0 1579
0.03850000 0.03847530 48002.95701876 0 1228.29728143 0 18583.67925237 0 8318.51584068 0 -1228.38586003 0 1662
0.03950000 0.03950240 46321.51377180 0 431.10428851 0 16769.92172383 0 5852.68695891 0 -4369.13937344 0 1683
0.04050000 0.04050350 43776.98280523 0 1472.04343999 0 11629.59492677 0 8019.75130009 0 -5205.04453562 0 1822
0.04150000 0.04152450 41896.23771153 0 796.26402487 0 8568.21890999 0 6075.73894239 0 -2196.51672520 0 1887
0.04250000 0.04250150 41937.31603661 0 -1137.99140021 0 3499.33075266 0 1177.33137029 0 -8760.31267326 0 1920
0.04350000 0.04349210 41429.42849718 0 286.78982129 0 3246.95925307 0 1056.88662091 0 -2065.67506282 0 2005
0.04450000 0.04448520 43187.16006214 0 -1380.19850562 0 3464.72973760 0 -1596.35243073 0 -3551.30424536 0 2151
0.04550000 0.04548030 41719.41268418 0 -124.21819768 0 5127.18394750 0 -2068.96354329 0 1515.48017025 0 2274
0.04650000 0.04648670 43849.28508629 0 1959.23680433 0 7772.99346919 0 -881.38584361 0 -1812.49528351 0 2311
0.04750000 0.04749250 41316.93367702 0 2978.48859319 0 12146.11887956 0 -4049.96853822 0 39.15727672 0 2568
0.04850000 0.04851840 41089.50812524 0 2123.17364560 0 17599.12812949 0 -5309.04688264 0 3483.06550750 0 2493
0.04950000 0.04949480 38841.38329407 0 1050.97953562 0 18511.70914105 0 -2858.59746005 0 1315.84615377 0 2644
0.05050000 0.05050630 39989.69410101 0 -299.80201742 0 20643.24239188 0 2505.34600904 0 754.39070687 0 2829
0.05150000 0.05149060 39950.05517816 0 -1632.49249894 0 18681.00498752 0 4642.43756694 0 -722.70724940 0 2784
0.05250000 0.05249300 39868.67359074 0 -780.01649543 0 11757.81244817 0 7078.30473774 0 -4720.19850414 0 3055
0.05350000 0.05348950 40858.53942953 0 -197.56127727 0 9329.86198961 0 3435.16663034 0 -3527.64268722 0 3009
0.05450000 0.05448610 39406.51475281 0 2373.72928392 0 7692.95163307 0 -1351.11150832 0 -7809.19997134 0 3336
0.05550000 0.05550870 35832.70047110 0 3466.52345422 0 6269.62642228 0 -38.80196582 0 -2702.22301664 0 3349
0.05650000 0.05647670 34551.63248958 0 1111.45103762 0 8012.02281737 0 -2008.82974720 0 -1086.31464582 0 3324
0.05750000 0.05747970 33407.19699632 0 681.41633569 0 9087.09019564 0 -381.78483207 0 838.32335792 0 3639
0.05850000 0.05849280 33895.92941382 0 738.56060408 0 12028.75223648 0 988.64899029 0 -1705.75807226 0 3846
0.05950000 0.05951020 32328.08821950 0 451.46075769 0 9859.83881706 0 304.08479266 0 -69.62920041 0 3787
0.06050000 0.06049470 32784.15727878 0 1650.89470278 0 12347.30302151 0 1739.63938621 0 2346.93425786 0 3930
0.06150000 0.06148310 30565.26338512 0 338.82421178 0 9305.13748829 0 3253.70229888 0 2661.64294618 0 4083
0.06250000 0.06249100 30715.73627941 0 300.42206761 0 9750.41103087 0 3956.34095955 0 1942.38472596 0 4303
0.06350000 0.06350600 30448.56108153 0 835.72246882 0 7769.28424037 0 1894.17582370 0 1445.01589511 0 4470
0.06450000 0.06451750 29973.55834681 0 -22.14830350 0 7648.52946590 0 149.86391642 0 3154.69357035 0 4479
0.06550000 0.06550280 30013.86160915 0 -249.88244097 0 6260.75749011 0 -1132.92027544 0 2666.53691375 0 4636
0.06650000 0.06648880 30538.91125205 0 -598.96294723 0 8081.68988513 0 -1819.24940165 0 1730.59329683 0 4653
0.06750000 0.06749660 31241.11809205 0 -101.35683645 0 7813.93892637 0 -772.89699057 0 -87.26785674 0 5220
0.06850000 0.06852730 30352.78547185 0 1175.30513485 0 9185.25742748 0 -1034.21714308 0 775.55988469 0 5029
0.06950000 0.06949320 29554.91374542 0 1240.13359666 0 9058.45716366 0 660.66015558 0 692.31925394 0 5040
0.07050000 0.07048030 29416.73113168 0 349.18790781 0 10318.58737894 0 614.71665098 0 -136.56716155 0 5475
0.07150000 0.07148790 28907.62563652 0 566.11689565 0 9691.99344513 0 -206.11686266 0 -1492.84833832 0 5509
0.07250000 0.07249820 28611.10877788 0 623.26670020 0 9032.85794868 0 -277.49571184 0 -2267.14708522 0 5916
0.07350000 0.07351270 27352.84978549 0 530.05876265 0 8785.61293548 0 -767.91887333 0 -1541.00187896 0 5721
0.07450000 0.07449140 27127.19580568 0 1015.80718860 0 9082.76091663 0 -599.16224907 0 -2210.05817845 0 6028
0.07550000 0.07549160 26785.50386178 0 385.64353727 0 8347.60283797 0 1028.98879130 0 -2448.05780043 0 6183
0.07650000 0.07648840 25766.84997846 0 347.53148801 0 7677.49466763 0 982.23700699 0 -2421.71673968 0 6330
0.07750000 0.07749960 25874.25152921 0 304.08700712 0 7187.48893278 0 1722.77623551 0 -2153.13535656 0 6583
0.07850000 0.07848650 25426.26526704 0 689.33969133 0 6938.60521550 0 -0.07195173 0 -1959.70184198 0 6549
0.07950000 0.07947320 25187.65666720 0 589.72419940 0 7344.48342638 0 816.32043404 0 505.49370281 0 6828
0.08050000 0.08048110 24564.61694966 0 -132.31317435 0 7134.99504081 0 385.29254457 0 183.73747974 0 7147
0.08150000 0.08149960 24287.58738269 0 536.85495562 0 8264.52718486 0 350.34939468 0 -529.78527623 0 7386
0.08250000 0.08250610 24513.01991600 0 550.67653869 0 7960.53650696 0 656.33309104 0 -431.27923124 0 7227
0.08350000 0.08350160 23656.79703778 0 744.56955475 0 8271.66883437 0 -636.34754474 0 776.52096248 0 7798
0.08450000 0.08449610 23455.61289582 0 810.58496979 0 7872.64439255 0 216.83044416 0 1914.09493605 0 7371
0.08550000 0.08548940 22779.20457265 0 23.30148613 0 7856.34593042 0 1150.39240401 0 2720.75808839 0 8256
0.08650000 0.08650700 22296.78338030 0 264.35175505 0 6476.73425802 0 2043.60791945 0 1919.98541285 0 8037
0.08750000 0.08749060 23049.81219122 0 64.02084644 0 7008.40515116 0 159.34625540 0 260.73331929 0 8155
0.08850000 0.08849210 21882.01409259 0 330.62515525 0 6434.09473514 0 -233.06136511 0 265.76236923 0 8718
0.08950000 0.08949900 22084.85908327 0 782.59413265 0 7148.56971104 0 -355.81247974 0 179.20779165 0 8571
0.09050000 0.09049190 21509.43036245 0 6.83036217 0 6651.96487060 0 -775.47352056 0 -736.31513660 0 8932
0.09150000 0.09150830 21321.31156378 0 90.20146920 0 7409.76585351 0 -282.57680170 0 -544.79159805 0 9285
0.09250000 0.09250820 21126.66009347 0 750.59179222 0 6913.89178651 0 175.03573966 0 -1705.24874532 0 9204
0.09350000 0.09350330 20392.23278825 0 752.46633682 0 7216.48735148 0 390.86303119 0 -613.07573244 0 9349
0.09450000 0.09448040 20032.27150839 0 216.30893766 0 6166.26627010 0 1156.27180849 0 -487.95624753 0 9564
0.09550000 0.09549270 19485.40938560 0 241.69777847 0 6134.62156577 0 1261.99036585 0 -628.89033398 0 10155
0.09650000 0.09649430 19253.33345740 0 748.02412010 0 5451.45912446 0 918.79037131 0 -1217.68999426 0 9913
0.09750000 0.09749140 18771.57660454 0 564.76607202 0 5774.26168222 0 -49.65683018 0 -11.85978856 0 10476
0.09850000 0.09850240 18259.48158168 0 540.00060310 0 5413.75785845 0 -298.46448058 0 99.40921452 0 10575
0.09950000 0.09950330 18031.94530665 0 -230.82254103 0 5576.36602074 0 -263.70845297 0 346.06329774 0 10882
0.10050000 0.10051200 17977.91236154 0 61.44553441 0 6216.41282921 0 357.86971770 0 446.34423639 0 10875
0.10150000 0.10150300 18244.97683617 0 298.75457549 0 6545.98057743 0 -219.48337318 0 23.48905132 0 11118
0.10250000 0.10250800 17751.48331900 0 770.60834103 0 7536.43324944 0 -653.55725921 0 -359.09763852 0 11575
0.10350000 0.10349800 17343.02525644 0 978.29858105 0 7705.99483171 0 -1213.07283481 0 768.21782610 0 11364
0.10450000 0.10450100 16215.30897366 0 1020.56385935 0 8182.14908821 0 -123.19068593 0 1079.85172982 0 12093
0.10550000 0.10551000 16257.71597771 0 156.41873271 0 8637.67560357 0 89.08360728 0 980.81864218 0 12067
0.10650000 0.10649700 16137.69197668 0 -601.23830998 0 7889.80649602 0 1687.64374886 0 133.30414742 0 12054
0.10750000 0.10749900 16281.63219932 0 38.05746270 0 7299.98375293 0 1574.87212058 0 42.57176025 0 12807
0.10850000 0.10850100 15789.24591464 0 438.24150909 0 5479.89285459 0 1337.88008016 0 295.99203045 0 12736
0.10950000 0.10950300 15820.91276362 0 211.79142913 0 5656.67359265 0 900.96835728 0 680.08101331 0 12933
0.11050000 0.11050200 15145.50094968 0 150.52714868 0 4770.83224553 0 679.20629965 0 1003.23899270 0 13428
0.11150000 0.11150900 15347.01726138 0 58.87099744 0 4969.10436606 0 -89.99497034 0 745.77533093 0 13453
0.11250000 0.11250000 15015.06896332 0 114.15123995 0 5029.65891049 0 1.94325944 0 762.84553410 0 13668
0.11350000 0.11349100 15014.29390058 0 465.11957759 0 5468.87589140 0 -320.33121486 0 750.49767746 0 13791
0.11450000 0.11448600 14791.62944848 0 199.70045043 0 5461.96676071 0 -24.80699014 0 1612.04191500 0 14205
0.11550000 0.11549300 14813.88482136 0 -80.48417549 0 5481.46512472 0 300.94800304 0 558.08724569 0 14776
0.11650000 0.11649800 14686.66380920 0 265.93952642 0 5356.36999892 0 38.70021115 0 110.72546265 0 14553
0.11750000 0.11747300 14600.41039886 0 315.36416995 0 5335.84190870 0 26.98004461 0 662.01097921 0 14568
0.11850000 0.11849100 14346.74343726 0 20.82017814 0 4764.01169345 0 585.81677597 0 119.37959173 0 16015
0.11950000 0.11950300 14001.50834942 0 134.10799820 0 4750.69168669 0 223.41958466 0 47.51798919 0 15270
0.12050000 0.12050700 14399.55842665 0 142.62372322 0 4749.99413022 0 118.16052877 0 -741.81918927 0 15999
0.12150000 0.12150000 13979.25297653 0 103.74735138 0 5206.26249135 0 -443.29934707 0 -192.68502542 0 15670
0.12250000 0.12250700 14128.50791509 0 126.61314153 0 4848.69283366 0 -376.49779697 0 -40.98852852 0 16887
0.12350000 0.12352200 14000.40111694 0 216.66657375 0 5501.19600755 0 405.48846504 0 508.57734527 0 16407
0.12450000 0.12449800 13958.43700587 0 291.88198347 0 5129.22125526 0 357.34156780 0 642.70305919 0 16306
0.12550000 0.12549900 13767.66084925 0 86.64049881 0 5172.42546671 0 931.11829776 0 1293.81222738 0 17523
0.12650000 0.12650100 13897.87138912 0 -105.53486750 0 4849.19108828 0 919.29305486 0 1776.88668690 0 17154
0.12750000 0.12750600 13674.76404402 0 33.93457183 0 4564.03443490 0 919.92417737 0 1387.19621490 0 18007
0.12850000 0.12850300 13709.64186720 0 111.19825092 0 4396.93090873 0 -41.22669423 0 1089.80464260 0 17496
0.12950000 0.12949900 13414.01079454 0 497.68660658 0 4515.67052009 0 -127.44245866 0 1611.73188990 0 18405
0.13050000 0.13049000 12972.55720402 0 346.37553730 0 4296.65993517 0 46.07958347 0 1567.59760317 0 18100
0.13150000 0.13148800 12970.01056931 0 -78.92851385 0 3951.11482223 0 349.81570862 0 892.38176939 0 19059
0.13250000 0.13249300 13005.22056224 0 -203.05204315 0 3728.59431035 0 309.61652614 0 980.54515575 0 18957
0.13350000 0.13349100 12911.21652453 0 318.13114392 0 3602.62447089 0 296.06621502 0 551.93767649 0 19468
0.13450000 0.13450700 12776.57705473 0 463.73110805 0 3580.21408546 0 -333.99667815 0 710.52215594 0 19953
0.13550000 0.13551000 12229.82565519 0 398.05450616 0 3612.32382743 0 -369.56541440 0 1126.27688055 0 19956
0.13650000 0.13649900 12049.12531415 0 380.18820283 0 3817.09540263 0 -31.48039103 0 928.21956313 0 19723
0.13750000 0.13749600 11947.70281881 0 -121.80664533 0 4084.69134885 0 280.93920486 0 913.82000470 0 20946
0.13850000 0.13851100 11797.45137102 0 95.00420081 0 3921.78423379 0 484.13740270 0 213.41573918 0 20955
0.13950000 0.13949800 11896.65940139 0 160.19439548 0 3575.91802343 0 242.11077618 0 16.32880030 0 20506
0.14050000 0.14048300 11677.53809323 0 87.48598154 0 3448.98489171 0 113.12815714 0 83.45344084 0 21447
0.14150000 0.14148400 11550.53852756 0 168.19304293 0 3001.33079929 0 -71.59575602 0 26.67345193 0 21771
0.14250000 0.14249400 11311.15486498 0 203.02436234 0 3106.96077806 0 160.54428094 0 -356.98171725 0 22470
0.14350000 0.14350900 11256.90047337 0 54.67347911 0 2848.25590867 0 183.16725501 0 -571.61098323 0 22519
0.14450000 0.14449900 11107.42408832 0 144.06644715 0 2726.80357774 0 208.51069929 0 -377.51423639 0 22218
0.14550000 0.14550500 10897.20492931 0 340.17060647 0 2786.35054061 0 272.39137010 0 -422.39701227 0 23559
0.14650000 0.14650700 10563.86151832 0 293.96358054 0 2648.46687965 0 247.56943232 0 10.82340788 0 23044
0.14750000 0.14750500 10429.24419318 0 272.59177918 0 2830.35195944 0 -145.63539557 0 -239.72136849 0 23649
0.14850000 0.14849900 10205.09604955 0 257.56220547 0 2886.87617764 0 -22.11519725 0 203.22698588 0 23640
0.14950000 0.14949500 9995.65195328 0 202.72762403 0 3203.21249771 0 -373.20267310 0 79.74365841 0 24457
0.15050000 0.15050000 10019.96677858 0 76.89065247 0 3098.49044957 0 -39.68044407 0 427.65968826 0 24591
0.15150000 0.15149900 9917.95745003 0 -33.48647484 0 3080.03288410 0 268.33668475 0 64.63159588 0 25020
0.15250000 0.15250500 9990.95728756 0 -70.29962968 0 2618.46087939 0 696.79800932 0 294.20163552 0 25297
0.15350000 0.15350100 9880.46655819 0 110.39296074 0 2463.09401753 0 728.79149189 0 303.32190948 0 25452
0.15450000 0.15450400 9798.98531985 0 229.93675504 0 1980.55102961 0 456.25507434 0 347.53259525 0 26061
0.15550000 0.15549900 9517.29430414 0 77.13457579 0 1847.43954064 0 717.81438906 0 403.68921226 0 26128
0.15650000 0.15649500 9483.87802784 0 64.61288365 0 1526.98431574 0 201.57720949 0 732.51400749 0 26331
0.15750000 0.15749700 9351.16514256 0 27.23072204 0 1455.82248413 0 182.14638666 0 762.08154369 0 27345
0.15850000 0.15849900 9394.38042633 0 143.79517519 0 1772.45775697 0 -286.91604579 0 739.54825545 0 26980
0.15950000 0.15949700 9261.66754105 0 106.27206289 0 1820.37877878 0 -269.52142350 0 918.24561293 0 27777
0.16050000 0.16050000 9275.68510427 0 40.18069170 0 2092.04934053 0 -222.48840214 0 573.69036583 0 28224
0.16150000 0.16150500 9195.56576189 0 180.81881492 0 2252.64233970 0 -281.89363926 0 741.95094994 0 28075
0.16250000 0.16249700 9131.93311115 0 385.00355690 0 2464.75486625 0 -244.47028860 0 600.30380576 0 28590
0.16350000 0.16349900 8770.64315232 0 323.94632892 0 2577.10574619 0 -115.84641288 0 848.83542311 0 29163
0.16450000 0.16449100 8559.08424201 0 300.04560856 0 2411.19803111 0 279.06798196 0 1027.35008723 0 28996
0.16550000 0.16550500 8378.90430024 0 -22.28250008 0 2416.15843263 0 314.66772072 0 479.35637284 0 30777
0.16650000 0.16650700 8427.79968664 0 -82.65623345 0 2176.35402170 0 332.71450294 0 525.25005198 0 29211
0.16750000 0.16749900 8404.07169455 0 10.92412175 0 1865.29920057 0 75.72219003 0 387.03865020 0 30922
0.16850000 0.16850800 8420.62482015 0 60.42068003 0 1827.27683715 0 105.77580129 0 685.60278170 0 30867
0.16950000 0.16949900 8455.23690754 0 -22.44880640 0 1680.40244843 0 -202.92249695 0 263.26334552 0 30852
0.17050000 0.17049200 8418.96397143 0 -10.00824119 0 1670.21590959 0 52.08410522 0 147.94840423 0 31257
0.17150000 0.17149500 8417.44706293 0 168.12660898 0 1686.94619239 0 -84.72100058 0 -164.64768452 0 32608
0.17250000 0.17250900 8187.97313106 0 258.93185205 0 1766.32368902 0 -54.54459724 0 -216.86919729 0 32361
0.17350000 0.17350400 8118.23962936 0 169.25266441 0 1877.70020437 0 -103.66774137 0 -126.90434368 0 32508
0.17450000 0.17449800 7962.56274241 0 128.55854900 0 1779.97586552 0 204.47372966 0 -95.27890519 0 32791
0.17550000 0.17549800 7917.14406600 0 1.17232668 0 1723.92775729 0 234.31696674 0 -38.50832776 0 33633
0.17650000 0.17650100 7890.84729456 0 -14.52500787 0 1701.67238440 0 121.65052555 0 -192.13473088 0 33984
0.17750000 0.17750300 7946.68502862 0 46.83294446 0 1563.04687767 0 71.65565730 0 -144.68317564 0 34069
0.17850000 0.17849800 7887.53666943 0 69.82562345 0 1537.63589222 0 34.80574234 0 5.92542106 0 34536
