### header ###
fiducial parameters:
Omega_m = 0.31
Omega_nu = 0
Omega_de = 0.69
Omega_k = 0
H_0 = 100
w_de = -1
zeff = 0
beta = 0
fgrowth = 0
b_1 = 2
gamma = 0.55
Lx = 3500 Ly = 3500 Lz = 3500
nx = 700 ny = 700 nz = 700
xoffset = -685.467585 yoffset = -31.7331281 zoffset = 572.489161
bins = 400 dk = 0.001
kx_ny = 0.628318531 ky_ny = 0.628318531 kz_ny = 0.628318531
############################
A(data) = 8.05882394 (not used)
A(ran) = 8.05653919 (used)
Ngal = 478825
weighted Ngal = 0
Nran = 23820508
weighted Nran = 0
SN(data) = 3490.7481
SN(ran) = 70.1753782
SN(data+ran) = 3560.92348
############################
13 columns: k_central k_mean P_0(k) sigma^{lin}_{P_0(k)} P^img_1(k) sigma^{lin}_{P_1(k)} P_2(k) sigma^{lin}_{P_2(k)} P^img_3(k) sigma^{lin}_{P_3(k)} P_4(k) sigma^{lin}_{P_4(k)} N_modes
### header ###
0.00050000 0 0 0 0 0 0 0 0 0 0 0 0
0.00150000 0.00179520 45006.45375309 0 -47776.19580647 0 -8556.50439033 0 28469.60446670 0 -69399.33894481 0 3
0.00250000 0.00253879 75694.28777395 0 -45694.37729407 0 -11765.89524529 0 -31956.50099858 0 65541.07663850 0 6
0.00350000 0.00331552 80229.29057317 0 -7122.60510934 0 5618.68444620 0 -67405.87758446 0 43673.01367518 0 7
0.00450000 0.00420575 84218.09558909 0 4812.01022153 0 -6947.96132997 0 -49721.60327711 0 27890.96477167 0 24
0.00550000 0.00557378 75489.11759506 0 4095.61973344 0 13116.71887316 0 -24505.15856538 0 1132.31129758 0 45
0.00650000 0.00659388 58392.67301234 0 9308.27095621 0 1228.82875302 0 -2540.77744846 0 18436.52805553 0 40
0.00750000 0.00754703 60960.45586103 0 5772.29080841 0 27747.91033502 0 -14331.90652201 0 -32519.75016211 0 57
0.00850000 0.00846663 65882.43641266 0 5644.17293793 0 26051.18727981 0 -31749.55924772 0 -11371.38831200 0 75
0.00950000 0.00948925 59829.86077380 0 8313.25648639 0 36689.80913531 0 -731.48206682 0 -21289.86616129 0 112
0.01050000 0.01054430 52935.12410923 0 -1549.82652184 0 22831.46594579 0 -3868.63707466 0 -17487.29764883 0 105
0.01150000 0.01145670 63189.42557027 0 -8895.49468698 0 35907.10649388 0 7572.05291838 0 -23970.80816963 0 144
0.01250000 0.01249090 67833.82293870 0 -10197.25684358 0 19028.56526358 0 2208.60770390 0 -17384.54647451 0 169
0.01350000 0.01339930 81454.33259111 0 -622.38534315 0 14000.06894719 0 7893.49358019 0 -14083.22210658 0 180
0.01450000 0.01448870 79192.36735391 0 -9366.76604823 0 16852.74271347 0 6940.45429375 0 3530.88687839 0 267
0.01550000 0.01550050 88798.60564332 0 -8760.14658839 0 13812.06087177 0 -518.00210815 0 -283.42051285 0 238
0.01650000 0.01653350 88906.56081030 0 8767.13322535 0 19228.75289630 0 -1651.30437880 0 -12443.96441718 0 315
0.01750000 0.01747870 88791.74080193 0 12358.81823932 0 27009.38626961 0 -15151.92289808 0 -7890.94694548 0 297
0.01850000 0.01844180 71197.81666510 0 8816.84796379 0 21813.69784846 0 462.93500790 0 9125.40043951 0 388
0.01950000 0.01947590 67568.75148254 0 3924.87341241 0 24813.07991859 0 5336.36230797 0 -3069.40345228 0 399
0.02050000 0.02045430 67257.95132488 0 -3555.85497086 0 21180.13942234 0 -1238.87135163 0 -21400.47868623 0 462
0.02150000 0.02154770 64586.75296238 0 2567.22923245 0 19806.94969833 0 -5931.38904372 0 -30070.21974248 0 571
0.02250000 0.02255340 66571.57790937 0 2796.97997244 0 14854.29880695 0 -11612.54354655 0 -24729.70531270 0 510
0.02350000 0.02348930 64383.02218572 0 2026.41259901 0 19904.82904973 0 -9601.58791299 0 -23952.53883368 0 555
0.02450000 0.02439640 65813.23438254 0 4533.49696305 0 22566.50521288 0 -1495.70499813 0 -24530.51418921 0 592
0.02550000 0.02547300 62587.20182338 0 721.33317389 0 20722.07734459 0 4796.59754539 0 -19379.89013008 0 837
0.02650000 0.02652900 60093.49282773 0 -511.71192042 0 21816.02303668 0 8162.27426516 0 -15811.16911778 0 723
0.02750000 0.02749970 65904.13816931 0 -4496.48218118 0 18401.20733936 0 16985.38916480 0 -20788.95418650 0 826
0.02850000 0.02848090 64214.50140198 0 -1233.42376782 0 21178.14640387 0 1785.32379841 0 -11618.74404845 0 831
0.02950000 0.02946900 64108.98214646 0 5698.33875094 0 15626.03984681 0 -1137.13883120 0 -17990.31336534 0 996
0.03050000 0.03053250 58219.50185217 0 6597.21222437 0 20877.86495479 0 -9654.17038355 0 -5633.52136145 0 1041
0.03150000 0.03150510 55056.36009798 0 7299.85088504 0 22008.34931878 0 -8703.75523809 0 2692.52366010 0 1036
0.03250000 0.03246190 53819.35996924 0 1649.49958986 0 29996.03516619 0 -4131.19511309 0 -9006.50581561 0 1059
0.03350000 0.03345080 52323.37816300 0 -2059.40812697 0 28805.42807845 0 2918.81983474 0 -2516.99409475 0 1302
0.03450000 0.03451200 54343.19165641 0 -1009.01542456 0 31435.43739262 0 3331.24178959 0 -11381.02123459 0 1339
0.03550000 0.03553350 55121.90826091 0 -917.25242539 0 27077.70251374 0 2697.08545792 0 -12855.07983770 0 1365
0.03650000 0.03647120 55553.61820559 0 686.02463728 0 28373.60741052 0 5754.48651010 0 -19314.67413689 0 1308
0.03750000 0.03744890 51043.74958370 0 3899.58422253 0 20642.02443615 0 3591.66286932 0 -14293.48555489 0 1579
0.03850000 0.03847530 47743.97534125 0 3995.08302409 0 16147.54634577 0 4386.98796105 0 -16153.19323143 0 1662
0.03950000 0.03950240 44458.37367457 0 1647.27405257 0 10805.62573074 0 4805.51076687 0 -13797.33467976 0 1683
0.04050000 0.04050350 45552.98370614 0 -428.89425248 0 10499.79704692 0 3669.77812092 0 -11170.75778628 0 1822
0.04150000 0.04152450 45393.98512174 0 -707.19049340 0 12484.04623302 0 1053.65239483 0 -14216.42217415 0 1887
0.04250000 0.04250150 44497.45898118 0 2367.52878202 0 12820.53418426 0 193.56638248 0 -7032.14421557 0 1920
0.04350000 0.04349210 43529.73779203 0 3122.62811768 0 13563.59790284 0 -2961.12718787 0 -3798.29459509 0 2005
0.04450000 0.04448520 41767.68802039 0 1787.56040802 0 14973.99063824 0 739.50285892 0 349.29752382 0 2151
0.04550000 0.04548030 40467.35419368 0 280.21286035 0 18099.81865779 0 4897.13425474 0 1426.46975104 0 2274
0.04650000 0.04648670 38621.15475342 0 278.78674491 0 11851.37359289 0 5023.22588977 0 1508.49353329 0 2311
0.04750000 0.04749250 39595.29789097 0 -357.56744323 0 10760.31777758 0 7904.78735150 0 3054.71047724 0 2568
0.04850000 0.04851840 38061.55945709 0 -707.50273296 0 7718.66157130 0 2148.99430708 0 274.43753572 0 2493
0.04950000 0.04949480 40239.04285592 0 535.06123900 0 8657.96010264 0 -175.39116129 0 1852.00133847 0 2644
0.05050000 0.05050630 37842.43814893 0 1016.65643592 0 10285.66935726 0 -5247.44046735 0 1801.91014099 0 2829
0.05150000 0.05149060 38722.68797201 0 2553.86493640 0 13625.16002883 0 -4600.92742119 0 4245.33970964 0 2784
0.05250000 0.05249300 37189.72460087 0 1197.07332544 0 15810.94767128 0 -4649.62350574 0 8572.96893733 0 3055
0.05350000 0.05348950 37258.59446124 0 151.08962278 0 17522.28619525 0 2787.92281074 0 5785.10148822 0 3009
0.05450000 0.05448610 37734.04008895 0 300.97125492 0 17893.43052317 0 2782.37557600 0 4856.62061823 0 3336
0.05550000 0.05550870 36216.91014230 0 579.62291747 0 15810.39405504 0 3162.57706563 0 4569.94705635 0 3349
0.05650000 0.05647670 35974.75839852 0 248.74531321 0 14231.03764291 0 3216.12282845 0 2799.96950014 0 3324
0.05750000 0.05747970 34653.60860116 0 914.99256390 0 11637.67772389 0 3228.72313409 0 6094.30723111 0 3639
0.05850000 0.05849280 33348.84584453 0 1062.32534687 0 10358.07128925 0 1785.66704048 0 1173.16817616 0 3846
0.05950000 0.05951020 32972.27607745 0 1039.57614829 0 10927.44344839 0 -1698.98180947 0 1550.08118531 0 3787
0.06050000 0.06049470 31786.09791963 0 771.23614185 0 9724.33570593 0 -1272.55336373 0 2844.70169241 0 3930
0.06150000 0.06148310 32192.56296372 0 128.95383100 0 13262.20922128 0 -1288.16534173 0 3494.31498952 0 4083
0.06250000 0.06249100 32311.81190201 0 -490.25264769 0 13560.71909839 0 533.50447013 0 2921.96437499 0 4303
0.06350000 0.06350600 33559.88435557 0 -398.73877583 0 13889.12425251 0 2545.52747581 0 2854.99895449 0 4470
0.06450000 0.06451750 32353.77601308 0 394.98525772 0 12983.74025209 0 1635.03913364 0 2714.73474369 0 4479
0.06550000 0.06550280 32467.15661922 0 1376.41177053 0 11591.17395965 0 2294.13034080 0 1340.89175251 0 4636
0.06650000 0.06648880 31825.84756572 0 120.49014591 0 12483.60334003 0 233.17319559 0 3790.42217214 0 4653
0.06750000 0.06749660 31411.07827802 0 505.12056546 0 11119.27147588 0 -447.80246157 0 891.11509543 0 5220
0.06850000 0.06852730 31054.54941886 0 792.86703561 0 10875.82427009 0 -938.87224683 0 338.58837126 0 5029
0.06950000 0.06949320 30109.19432584 0 1499.96784318 0 12399.23222491 0 -1702.50280876 0 55.32951435 0 5040
0.07050000 0.07048030 28960.99424215 0 1420.13638124 0 11891.78757847 0 -865.44833926 0 -680.85939775 0 5475
0.07150000 0.07148790 28450.56006801 0 -105.18996458 0 11792.91171784 0 1485.18628955 0 354.79825479 0 5509
0.07250000 0.07249820 29037.94689964 0 -693.53167350 0 11969.51529870 0 2479.83537266 0 -2130.03848699 0 5916
0.07350000 0.07351270 28783.94776830 0 728.45378598 0 11073.09988138 0 2407.51094694 0 558.16475197 0 5721
0.07450000 0.07449140 28673.99958285 0 716.88652824 0 8513.36661283 0 1859.86268909 0 -299.27718922 0 6028
0.07550000 0.07549160 27628.77211997 0 86.79883306 0 8723.60791649 0 897.40306869 0 1357.47809509 0 6183
0.07650000 0.07648840 27105.38332579 0 1182.19212089 0 8242.30502895 0 408.33073082 0 -22.79083051 0 6330
0.07750000 0.07749960 26142.53395956 0 1324.67079665 0 8169.93631393 0 -426.53363283 0 -1111.21851880 0 6583
0.07850000 0.07848650 25359.27770189 0 188.86396613 0 7599.02510164 0 -1242.58058045 0 -1150.44776563 0 6549
0.07950000 0.07947320 24593.62644068 0 -86.53686185 0 8034.97574672 0 230.04747829 0 -1639.04731523 0 6828
0.08050000 0.08048110 24507.48375359 0 566.11246672 0 7411.86959523 0 1507.85133845 0 -1812.78316396 0 7147
0.08150000 0.08149960 24272.19685120 0 972.33281244 0 7409.96515536 0 1071.92837418 0 -1516.84206621 0 7386
0.08250000 0.08250610 23567.99699273 0 322.59329082 0 7545.35754324 0 586.88636255 0 -903.42752063 0 7227
0.08350000 0.08350160 23384.52857048 0 237.74274404 0 7683.58444628 0 340.78179880 0 -627.37231825 0 7798
0.08450000 0.08449610 22896.46049248 0 811.03118448 0 8672.06624446 0 -43.42831530 0 379.39099545 0 7371
0.08550000 0.08548940 22472.27972868 0 1008.35883570 0 9362.13781646 0 -1018.50219247 0 1402.59781873 0 8256
0.08650000 0.08650700 21870.83104453 0 601.01132732 0 9678.56271512 0 -593.30498924 0 838.15616582 0 8037
0.08750000 0.08749060 21680.94067389 0 98.83278929 0 10883.98457348 0 42.99760186 0 2506.57503709 0 8155
0.08850000 0.08849210 21316.43974086 0 725.13098130 0 10253.24959019 0 388.25882039 0 1101.71182071 0 8718
0.08950000 0.08949900 21284.88361512 0 141.04813140 0 10307.76971759 0 642.92561292 0 2503.28655662 0 8571
0.09050000 0.09049190 20943.96673396 0 59.34954332 0 9036.87720258 0 1717.51688122 0 1351.27759319 0 8932
0.09150000 0.09150830 20670.14814119 0 179.24100863 0 9735.71805584 0 1126.88585842 0 2467.10219912 0 9285
0.09250000 0.09250820 20600.28177159 0 282.67091646 0 9227.06652599 0 830.34131896 0 2294.45143822 0 9204
0.09350000 0.09350330 20425.33903945 0 300.66898045 0 8629.84746993 0 1446.27814014 0 3242.18708107 0 9349
0.09450000 0.09448040 19694.45487817 0 329.86227207 0 7339.91055623 0 1440.54267588 0 3889.10980325 0 9564
0.09550000 0.09549270 20208.76436600 0 -197.45609019 0 7782.81462130 0 760.09406138 0 4268.21513272 0 10155
0.09650000 0.09649430 19290.64719204 0 323.11811902 0 6672.23829734 0 732.84285554 0 2851.15685778 0 9913
0.09750000 0.09749140 19328.62526617 0 783.98038771 0 6794.85322238 0 183.88806336 0 2420.26626513 0 10476
0.09850000 0.09850240 18583.34708262 0 390.63937023 0 5979.56472901 0 -706.16851782 0 2551.06363822 0 10575
0.09950000 0.09950330 18334.44122070 0 455.67709898 0 5843.99518393 0 390.64269193 0 1928.64397086 0 10882
0.10050000 0.10051200 17931.96221354 0 264.24878242 0 5394.15984352 0 296.05403547 0 254.09988950 0 10875
0.10150000 0.10150300 17554.39593723 0 333.43531129 0 4964.26576012 0 504.69095926 0 65.95473869 0 11118
0.10250000 0.10250800 16720.20698539 0 661.68434563 0 4720.08778089 0 2.17587791 0 -775.42812402 0 11575
0.10350000 0.10349800 16175.55932756 0 751.07897452 0 4445.90380141 0 343.55652340 0 -303.84120151 0 11364
0.10450000 0.10450100 15938.16868345 0 342.99626377 0 4974.55194987 0 309.11052089 0 -684.55976870 0 12093
0.10550000 0.10551000 15734.99152303 0 -141.10570749 0 3935.82394166 0 16.38427265 0 7.69465677 0 12067
0.10650000 0.10649700 15998.29140721 0 -39.78197729 0 4649.86709689 0 116.07118107 0 -358.05573275 0 12054
0.10750000 0.10749900 15988.87993112 0 113.73934947 0 4551.94345619 0 108.67376086 0 -119.63646967 0 12807
0.10850000 0.10850100 16199.69699567 0 159.61309842 0 4456.11248489 0 -223.22028281 0 577.51253236 0 12736
0.10950000 0.10950300 15752.04290325 0 221.45867593 0 4764.37708016 0 -157.21926180 0 586.73024277 0 12933
0.11050000 0.11050200 15780.05588504 0 -39.32269725 0 4944.28021382 0 4.20060752 0 724.52864683 0 13428
0.11150000 0.11150900 15913.25595261 0 -143.51283090 0 4744.20330434 0 713.61133456 0 -432.27020431 0 13453
0.11250000 0.11250000 15698.12068138 0 47.08771865 0 4455.28206053 0 25.43401589 0 -868.95937346 0 13668
0.11350000 0.11349100 15912.48088987 0 46.35849534 0 3917.35530386 0 443.37242441 0 -936.80172209 0 13791
0.11450000 0.11448600 15887.90032877 0 -165.29541552 0 4324.98294206 0 -404.58939227 0 -1014.83171679 0 14205
0.11550000 0.11549300 15648.95955919 0 330.74473636 0 4221.00273969 0 -294.72424926 0 -1835.78038261 0 14776
0.11650000 0.11649800 15472.79887132 0 860.53554874 0 4792.34577266 0 -336.64960718 0 -1739.06362532 0 14553
0.11750000 0.11747300 14512.49613980 0 874.74023425 0 4959.42715417 0 -667.34451807 0 -1188.61406928 0 14568
0.11850000 0.11849100 13972.05596540 0 636.35972430 0 5287.26761972 0 114.64174394 0 -1029.61216319 0 16015
0.11950000 0.11950300 13746.62343209 0 99.83428107 0 5469.38521834 0 187.68476354 0 -219.43908388 0 15270
0.12050000 0.12050700 13729.57205187 0 -247.47088863 0 5171.65040397 0 809.76008159 0 -67.46743971 0 15999
0.12150000 0.12150000 14128.28646859 0 -241.72324481 0 5127.97008256 0 907.79112384 0 -105.32161452 0 15670
0.12250000 0.12250700 14164.38224750 0 -31.99292895 0 4799.58707309 0 599.25304214 0 626.18204333 0 16887
0.12350000 0.12352200 14020.55274811 0 -4.71140708 0 4158.48839376 0 623.90003718 0 509.46756018 0 16407
0.12450000 0.12449800 14118.65354600 0 236.14832927 0 4267.57293788 0 587.77104130 0 1243.76531920 0 16306
0.12550000 0.12549900 13917.91229704 0 420.87899654 0 4112.61575204 0 545.13041119 0 1300.65492412 0 17523
0.12650000 0.12650100 13551.19689904 0 115.09349479 0 4031.32274322 0 292.82534555 0 1489.71487040 0 17154
0.12750000 0.12750600 13271.17780438 0 259.52311419 0 3688.50142219 0 257.33854451 0 1433.56711124 0 18007
0.12850000 0.12850300 13095.34928626 0 401.82020383 0 4166.73727575 0 -238.08044995 0 1035.98871505 0 17496
0.12950000 0.12949900 12654.67075848 0 512.46151681 0 4165.19822260 0 -496.69009734 0 835.80108233 0 18405
0.13050000 0.13049000 12355.60726513 0 343.61520672 0 4033.32683401 0 -257.15031498 0 912.90653790 0 18100
0.13150000 0.13148800 12067.72681984 0 10.32879606 0 4161.72151261 0 -162.84843174 0 277.61086402 0 19059
0.13250000 0.13249300 12307.55337541 0 30.14396143 0 4285.68726128 0 -329.04956343 0 49.60445808 0 18957
0.13350000 0.13349100 12359.37185557 0 -71.45369809 0 4111.96248488 0 289.17037113 0 -544.81042100 0 19468
0.13450000 0.13450700 12296.48105060 0 111.34551284 0 4137.47312126 0 15.94027243 0 -355.40169649 0 19953
0.13550000 0.13551000 12235.47254085 0 248.27695387 0 4355.34325671 0 -26.16523223 0 -321.04870151 0 19956
0.13650000 0.13649900 12024.43402980 0 234.99791472 0 4163.34914436 0 196.25363571 0 -235.17507192 0 19723
0.13750000 0.13749600 11914.37512110 0 195.62694213 0 4153.35083505 0 469.63597888 0 166.56208948 0 20946
0.13850000 0.13851100 11743.08625616 0 14.29868955 0 3904.66641962 0 285.68037434 0 -230.37854080 0 20955
0.13950000 0.13949800 11827.67881777 0 103.87822626 0 3884.40406520 0 626.86409854 0 -46.10106378 0 20506
0.14050000 0.14048300 11411.13795810 0 80.45904131 0 3161.52519477 0 354.32435929 0 -137.56588524 0 21447
0.14150000 0.14148400 11487.42627610 0 223.12506082 0 3098.47937725 0 148.64706792 0 -236.16715222 0 21771
0.14250000 0.14249400 11345.58979517 0 23.21744719 0 2890.33074298 0 154.91068207 0 -114.12355914 0 22470
0.14350000 0.14350900 11098.01261223 0 203.68095120 0 2847.48084594 0 0.64392544 0 -279.06133857 0 22519
0.14450000 0.14449900 11156.03159428 0 346.15187634 0 3134.92947055 0 59.78690015 0 -139.35738740 0 22218
0.14550000 0.14550500 10699.48642503 0 418.13416722 0 3288.92336413 0 -325.51527734 0 73.15496080 0 23559
0.14650000 0.14650700 10600.03480351 0 213.65822310 0 3472.42500335 0 -94.76370992 0 187.39577586 0 23044
0.14750000 0.14750500 10360.04216306 0 198.95971190 0 3688.12496314 0 13.99386845 0 463.84404577 0 23649
0.14850000 0.14849900 10317.61301436 0 131.13507899 0 3767.25886862 0 35.18729466 0 293.76981486 0 23640
0.14950000 0.14949500 10152.10390297 0 34.19277844 0 3692.36566355 0 208.66792630 0 41.63847399 0 24457
0.15050000 0.15050000 10194.97594467 0 122.16095972 0 3461.77342687 0 52.37087844 0 -33.87599923 0 24591
0.15150000 0.15149900 10023.34383765 0 44.11502088 0 3142.07112006 0 328.64763803 0 -265.60403498 0 25020
0.15250000 0.15250500 9987.73524104 0 -22.02916529 0 3059.67087876 0 79.78529035 0 -475.82097952 0 25297
0.15350000 0.15350100 9810.41195907 0 215.04337093 0 2786.35054061 0 129.09444953 0 -549.41318643 0 25452
0.15450000 0.15450400 9852.40928710 0 220.91834648 0 2960.15282329 0 172.55000274 0 -272.67371438 0 26061
0.15550000 0.15549900 9636.18892804 0 137.91798517 0 2988.69727667 0 -183.62122033 0 -272.03262677 0 26128
0.15650000 0.15649500 9536.99196999 0 237.82689371 0 3187.24620532 0 -223.09738000 0 -249.17049049 0 26331
0.15750000 0.15749700 9467.07023876 0 190.51817146 0 3392.05099749 0 -94.89602420 0 42.40058211 0 27345
0.15850000 0.15849900 9341.83117274 0 124.10193826 0 3687.60456388 0 -229.45953784 0 144.57245239 0 26980
0.15950000 0.15949700 9283.01498330 0 80.41962384 0 3656.79028391 0 -23.10794190 0 395.00075898 0 27777
0.16050000 0.16050000 9263.63841487 0 -37.64512932 0 3836.04015039 0 452.54584552 0 90.22870712 0 28224
0.16150000 0.16150500 9184.16126732 0 46.27113469 0 3430.05121627 0 368.96307993 0 299.13103453 0 28075
0.16250000 0.16249700 9233.01236442 0 128.26291793 0 3295.61104832 0 386.48946289 0 140.27306866 0 28590
0.16350000 0.16349900 8982.12455636 0 154.78888650 0 3057.13531638 0 485.54580241 0 264.85222413 0 29163
0.16450000 0.16449100 8866.35232805 0 154.92839779 0 2559.24608626 0 413.24462858 0 369.34839684 0 28996
0.16550000 0.16550500 8783.49812144 0 8.42288357 0 2542.48258648 0 177.27345651 0 -23.53943039 0 30777
0.16650000 0.16650700 8655.87850558 0 82.86107146 0 2489.87797127 0 -76.96871236 0 165.99407922 0 29211
0.16750000 0.16749900 8652.56788045 0 218.18237502 0 2504.20555958 0 -248.77520849 0 -48.34298811 0 30922
0.16850000 0.16850800 8581.37283187 0 98.72372689 0 2617.59723805 0 -151.84696980 0 225.45578519 0 30867
0.16950000 0.16949900 8490.17009234 0 18.24818781 0 2520.19399662 0 -109.37873578 0 331.98483673 0 30852
0.17050000 0.17049200 8526.91913841 0 72.46980534 0 2611.58496567 0 437.19738886 0 155.38900650 0 31257
0.17150000 0.17149500 8568.69501995 0 6.04804706 0 2463.14937916 0 340.41198315 0 -1.72598721 0 32608
0.17250000 0.17250900 8365.01960491 0 104.00024328 0 2232.50178086 0 82.29649362 0 -138.96985603 0 32361
0.17350000 0.17350400 8339.55325783 0 51.11682693 0 2092.58081213 0 149.27819044 0 -140.72703398 0 32508
0.17450000 0.17449800 8284.87811788 0 23.81490984 0 1975.08130115 0 0.51201530 0 -225.70491250 0 32791
0.17550000 0.17549800 8240.82133742 0 133.19120971 0 2004.71084236 0 74.99828144 0 -373.92348145 0 33633
0.17650000 0.17650100 8129.90985972 0 44.80239081 0 1881.28763761 0 202.78298566 0 -457.37559361 0 33984
0.17750000 0.17750300 8090.33737081 0 134.09914034 0 1897.04355583 0 1.48627138 0 -161.20972766 0 34069
0.17850000 0.17849800 7958.11166783 0 168.89170662 0 1871.32254527 0 179.48902871 0 -228.74869459 0 34536
