### header ###
fiducial parameters:
Omega_m = 0.31
Omega_nu = 0
Omega_de = 0.69
Omega_k = 0
H_0 = 100
w_de = -1
zeff = 0
beta = 0
fgrowth = 0
b_1 = 2
gamma = 0.55
Lx = 3500 Ly = 3500 Lz = 3500
nx = 700 ny = 700 nz = 700
xoffset = -685.467585 yoffset = -31.7331281 zoffset = 572.489161
bins = 400 dk = 0.001
kx_ny = 0.628318531 ky_ny = 0.628318531 kz_ny = 0.628318531
############################
A(data) = 7.97678632 (not used)
A(ran) = 7.97755139 (used)
Ngal = 473728
weighted Ngal = 0
Nran = 23820508
weighted Nran = 0
SN(data) = 3484.23926
SN(ran) = 69.4873658
SN(data+ran) = 3553.72662
############################
13 columns: k_central k_mean P_0(k) sigma^{lin}_{P_0(k)} P^img_1(k) sigma^{lin}_{P_1(k)} P_2(k) sigma^{lin}_{P_2(k)} P^img_3(k) sigma^{lin}_{P_3(k)} P_4(k) sigma^{lin}_{P_4(k)} N_modes
### header ###
0.00050000 0 0 0 0 0 0 0 0 0 0 0 0
0.00150000 0.00179520 4380.06775803 0 -12427.79882295 0 -5559.77967816 0 -843.74990432 0 -1622.79314240 0 3
0.00250000 0.00253879 16114.99371080 0 -20409.61633821 0 -16308.53794863 0 883.85718651 0 -15381.23074507 0 6
0.00350000 0.00331552 25382.30813751 0 -22546.79647471 0 -19075.29047432 0 -13108.74679929 0 7899.46156326 0 7
0.00450000 0.00420575 38592.92032514 0 -17320.65916030 0 -25186.10654173 0 -16884.52028570 0 -3749.12240057 0 24
0.00550000 0.00557378 51327.42254556 0 -7855.46014444 0 -29575.06537659 0 -28143.19233104 0 -10567.57074714 0 45
0.00650000 0.00659388 43647.21515835 0 8940.85800176 0 3859.67956388 0 -59249.44950680 0 -19753.91326245 0 40
0.00750000 0.00754703 52233.02799247 0 2980.10515261 0 -11883.15116512 0 -23395.71161855 0 5128.36868625 0 57
0.00850000 0.00846663 48144.79349969 0 -6343.52311812 0 13224.89548664 0 -44176.02939169 0 -19019.15378749 0 75
0.00950000 0.00948925 62472.60326151 0 -14369.33097989 0 -2197.71253628 0 -5133.66125752 0 -10209.96787247 0 112
0.01050000 0.01054430 77189.93741046 0 -20461.54554161 0 22346.16594899 0 -14785.53966983 0 -31351.61989374 0 105
0.01150000 0.01145670 89379.79197305 0 -10599.28188542 0 17988.65251661 0 -11373.04916072 0 -25043.38427481 0 144
0.01250000 0.01249090 99472.21604524 0 -854.34944087 0 33087.53897881 0 -8290.42535261 0 -15549.97297531 0 169
0.01350000 0.01339930 93906.15835891 0 8780.28714724 0 21761.10430557 0 1022.28117693 0 -3609.73290343 0 180
0.01450000 0.01448870 92264.35403480 0 7292.83103110 0 27059.54390104 0 3435.50987240 0 1283.37102508 0 267
0.01550000 0.01550050 82455.93509420 0 9286.13737890 0 28305.29116639 0 15691.69873299 0 8471.59073129 0 238
0.01650000 0.01653350 81680.98308015 0 8562.90419407 0 18547.02985722 0 21632.77606093 0 3588.36331653 0 315
0.01750000 0.01747870 71775.12768114 0 1072.48752658 0 11057.90865173 0 -3823.43984475 0 6432.66640524 0 297
0.01850000 0.01844180 70873.50827116 0 7388.98309983 0 15069.21263168 0 683.11593755 0 -9065.98634453 0 388
0.01950000 0.01947590 64836.98750328 0 2344.91909474 0 23906.14579269 0 -10884.63784065 0 11029.86245297 0 399
0.02050000 0.02045430 66261.77426095 0 -1134.10501420 0 31173.13401767 0 -3037.14977008 0 6429.96475798 0 462
0.02150000 0.02154770 70438.25518254 0 -3891.10282172 0 32936.06957529 0 1852.43315913 0 18179.87156623 0 571
0.02250000 0.02255340 76717.59203369 0 -4922.99920552 0 37119.52606152 0 16858.16815263 0 1730.87010495 0 510
0.02350000 0.02348930 79803.33823740 0 -33.06030106 0 36975.58583888 0 3883.07538622 0 15319.89006558 0 555
0.02450000 0.02439640 82657.34068265 0 -341.49707099 0 30032.24166835 0 11657.94007830 0 18445.71808513 0 592
0.02550000 0.02547300 80364.26221271 0 5184.68253028 0 38332.27779891 0 1121.89223992 0 9185.24635515 0 837
0.02650000 0.02652900 74462.49163788 0 9170.60874174 0 33232.91860368 0 1656.03226150 0 11594.93855009 0 723
0.02750000 0.02749970 65689.00289808 0 7311.05607775 0 33154.96943695 0 462.67148657 0 1618.34206782 0 826
0.02850000 0.02848090 62052.74070439 0 3246.70458960 0 28256.01932094 0 6767.42707381 0 -798.91031050 0 831
0.02950000 0.02946900 57538.55387583 0 -1100.61898225 0 28300.75151321 0 3421.16013944 0 -8543.98159096 0 996
0.03050000 0.03053250 59634.21279425 0 279.73010699 0 27314.87171136 0 1523.57403970 0 -15412.23325456 0 1041
0.03150000 0.03150510 58294.57221444 0 2035.91265370 0 30127.02076880 0 -4214.17111528 0 -4682.23150233 0 1036
0.03250000 0.03246190 59047.60102536 0 701.53032095 0 29427.13911701 0 -6034.56096638 0 -6063.85833786 0 1059
0.03350000 0.03345080 58754.73803391 0 1710.44166566 0 36511.32325923 0 5013.22758046 0 3013.61000752 0 1302
0.03450000 0.03451200 58851.84232257 0 2051.61321030 0 33517.80952126 0 6005.88364510 0 5067.61483997 0 1339
0.03550000 0.03553350 58283.49988962 0 2107.18520856 0 34494.83146326 0 10625.32399339 0 7021.48156677 0 1365
0.03650000 0.03647120 55114.93269627 0 1085.06679481 0 29202.03875345 0 7437.46881021 0 8588.62520463 0 1308
0.03750000 0.03744890 53869.84977042 0 3550.41845937 0 28487.65235615 0 7366.83845019 0 6340.38965020 0 1579
0.03850000 0.03847530 49454.09590949 0 4120.68747683 0 26311.49763629 0 2044.18368034 0 9171.26200891 0 1662
0.03950000 0.03950240 46317.52773486 0 1782.21247513 0 22330.22180125 0 2674.30968577 0 6821.82540564 0 1683
0.04050000 0.04050350 44502.10935760 0 -357.23748795 0 24668.03246346 0 2417.19923116 0 8647.88428706 0 1822
0.04150000 0.04152450 47556.74232857 0 -1670.73630886 0 18728.50526100 0 2573.95013362 0 3681.12725386 0 1887
0.04250000 0.04250150 45534.27147719 0 1326.76346604 0 18947.84801565 0 2568.69077933 0 5673.96856402 0 1920
0.04350000 0.04349210 43673.67801467 0 3879.52116996 0 15570.67822272 0 -1640.24312631 0 756.34054327 0 2005
0.04450000 0.04448520 41419.35268159 0 2323.13983182 0 16688.54013641 0 91.14328115 0 -129.16420517 0 2151
0.04550000 0.04548030 39231.90419042 0 492.95429495 0 16290.37933593 0 310.47130961 0 492.15598033 0 2274
0.04650000 0.04648670 39120.18443300 0 1059.25720566 0 14653.55755799 0 3696.13025399 0 -3444.34558761 0 2311
0.04750000 0.04749250 37612.35523920 0 399.70981872 0 12087.87845101 0 -194.74669231 0 -5520.49506970 0 2568
0.04850000 0.04851840 38771.51692446 0 923.32891725 0 13959.21206861 0 440.03301125 0 -5784.13819596 0 2493
0.04950000 0.04949480 36413.00101484 0 730.68928836 0 13807.18904885 0 -2395.90715053 0 -2414.16541416 0 2644
0.05050000 0.05050630 37837.23415626 0 360.34548953 0 14402.76940085 0 -146.81349093 0 -3172.55323029 0 2829
0.05150000 0.05149060 36817.14087072 0 -230.19031128 0 12912.98809650 0 2729.54951429 0 -1305.26101125 0 2784
0.05250000 0.05249300 38309.46880978 0 -48.11401244 0 14975.54076372 0 4100.79050913 0 300.80295558 0 3055
0.05350000 0.05348950 37374.18953235 0 -275.93451404 0 12572.40338508 0 4011.84652386 0 2896.18800281 0 3009
0.05450000 0.05448610 38194.53807816 0 716.63518647 0 14140.02313290 0 2720.78023304 0 972.10582978 0 3336
0.05550000 0.05550870 35516.14270453 0 2669.34928425 0 14830.60403184 0 -1116.46680076 0 5389.49839478 0 3349
0.05650000 0.05647670 34762.67100062 0 1983.78414846 0 13279.59277124 0 753.72636738 0 4332.99930523 0 3324
0.05750000 0.05747970 33495.55414838 0 -105.77325465 0 14058.08792924 0 938.06728882 0 5674.25644446 0 3639
0.05850000 0.05849280 33635.17616434 0 401.47474730 0 12378.74842400 0 1771.78234515 0 2822.23594535 0 3846
0.05950000 0.05951020 33132.71406407 0 903.20607413 0 12486.14997474 0 1640.06596911 0 1888.58429967 0 3787
0.06050000 0.06049470 32173.96145802 0 -36.34878153 0 9509.24472400 0 1196.19861178 0 1749.79270807 0 3930
0.06150000 0.06148310 31860.94683540 0 50.03539296 0 9250.60628856 0 1107.81931508 0 2238.90158460 0 4083
0.06250000 0.06249100 31131.83424609 0 425.46183178 0 10378.62152411 0 414.36404062 0 3393.39074879 0 4303
0.06350000 0.06350600 31705.82356469 0 244.99733126 0 10199.00627090 0 1491.95148001 0 2920.25923697 0 4470
0.06450000 0.06451750 31208.67618033 0 -494.06152743 0 10361.21582949 0 1281.40015126 0 4587.12023214 0 4479
0.06550000 0.06550280 31510.83992463 0 861.29621746 0 10916.12753243 0 901.25845219 0 4961.39802799 0 4636
0.06650000 0.06648880 31246.76497771 0 997.15585745 0 9928.65331580 0 1408.64330808 0 6075.69465309 0 4653
0.06750000 0.06749660 30512.33767249 0 466.28660062 0 10797.08896830 0 551.45049420 0 5657.80296978 0 5220
0.06850000 0.06852730 29588.01999663 0 881.17879113 0 10095.36931060 0 -1432.63703596 0 5638.88036667 0 5029
0.06950000 0.06949320 28930.98824189 0 1608.32161386 0 11700.23635911 0 -528.06352972 0 4730.39611530 0 5040
0.07050000 0.07048030 27867.49144306 0 827.69281887 0 10528.61830843 0 -38.97325468 0 4021.12513206 0 5475
0.07150000 0.07148790 27755.66096239 0 168.12771621 0 10610.50922279 0 727.43734656 0 3769.61727381 0 5509
0.07250000 0.07249820 27653.46340431 0 531.55241927 0 10774.73394450 0 774.49361981 0 2251.46867327 0 5916
0.07350000 0.07351270 26857.14180336 0 1318.53672870 0 10927.38808677 0 666.06234286 0 4192.20362284 0 5721
0.07450000 0.07449140 24829.68840581 0 1526.07638510 0 10711.34488491 0 820.25775275 0 6333.82376158 0 6028
0.07550000 0.07549160 24630.27583583 0 -0.33628422 0 9301.14037903 0 1977.06324729 0 5511.69257147 0 6183
0.07650000 0.07648840 23888.31934973 0 -330.28080595 0 9159.06030696 0 2262.70708296 0 4308.77305853 0 6330
0.07750000 0.07749960 24860.46946881 0 -360.32666657 0 7564.90019654 0 2086.69033532 0 2968.57886248 0 6583
0.07850000 0.07848650 24451.90068300 0 -403.86636946 0 7121.98505915 0 78.05822912 0 2894.87039616 0 6549
0.07950000 0.07947320 24720.18311336 0 178.62206567 0 6716.25078849 0 -314.77069334 0 2610.28950367 0 6828
0.08050000 0.08048110 24842.53230260 0 104.83221777 0 6688.24887903 0 -318.18650555 0 3320.06981385 0 7147
0.08150000 0.08149960 24619.09278776 0 566.73694584 0 6758.49170768 0 -196.44740140 0 1823.33508951 0 7386
0.08250000 0.08250610 24161.36287976 0 907.62946789 0 6885.22553755 0 355.79808572 0 2931.53086363 0 7227
0.08350000 0.08350160 23368.03080650 0 729.11369654 0 6546.29060253 0 1319.67717816 0 3219.44452589 0 7798
0.08450000 0.08449610 22330.77541749 0 302.73950519 0 6544.19793314 0 602.88255021 0 2468.44195042 0 7371
0.08550000 0.08548940 22592.52517621 0 459.76167961 0 7377.45680969 0 396.04709367 0 1906.53253820 0 8256
0.08650000 0.08650700 21971.92137012 0 178.50469903 0 6346.36870560 0 -53.12468231 0 982.10967525 0 8037
0.08750000 0.08749060 21848.24350190 0 711.03037565 0 6167.52851513 0 -656.17586403 0 1298.89442448 0 8155
0.08850000 0.08849210 21247.01626424 0 627.11544031 0 6270.93295661 0 -1079.02905609 0 715.66967975 0 8718
0.08950000 0.08949900 20860.59212807 0 375.54557704 0 6702.08928505 0 -305.36475341 0 518.56458225 0 8571
0.09050000 0.09049190 20809.43798741 0 324.26521187 0 5981.57989213 0 -435.25530309 0 -844.73201953 0 8932
0.09150000 0.09150830 20186.61971636 0 680.20502335 0 6890.54025346 0 149.19293354 0 -2295.78011720 0 9285
0.09250000 0.09250820 19415.76446249 0 782.82997317 0 6416.01362871 0 121.56748311 0 -2253.35096849 0 9204
0.09350000 0.09350330 18820.29483374 0 486.73718456 0 6731.61917534 0 361.17259219 0 -1786.55282646 0 9349
0.09450000 0.09448040 18435.75299279 0 409.43796331 0 5698.79271626 0 661.94011633 0 -1393.30813820 0 9564
0.09550000 0.09549270 18376.51605501 0 -263.49143541 0 5611.90818341 0 1523.93942641 0 -2155.99201636 0 10155
0.09650000 0.09649430 18519.90266141 0 -227.07677354 0 5079.22970871 0 715.27771945 0 -2536.78033920 0 9913
0.09750000 0.09749140 18694.73467030 0 179.02399106 0 4626.07267085 0 -171.33536871 0 -2751.93775508 0 10476
0.09850000 0.09850240 17954.99264917 0 532.27876377 0 4504.91929269 0 -371.83524099 0 -1731.42372119 0 10575
0.09950000 0.09950330 17965.17918800 0 386.66329839 0 5027.80983225 0 -454.25319801 0 -1714.87059559 0 10882
0.10050000 0.10051200 17455.74152309 0 395.39493374 0 4771.07583668 0 244.67734107 0 -1652.16802014 0 10875
0.10150000 0.10150300 17584.62338398 0 82.70284794 0 5372.18127876 0 506.73158872 0 -2060.71466130 0 11118
0.10250000 0.10250800 17041.08295863 0 275.14837898 0 5021.33252223 0 29.29128169 0 -1620.47902651 0 11575
0.10350000 0.10349800 16823.06888295 0 397.30158807 0 4988.39235590 0 37.10701433 0 -1081.85028445 0 11364
0.10450000 0.10450100 16654.65882246 0 332.80640324 0 5302.55850030 0 806.10732163 0 -264.06830353 0 12093
0.10550000 0.10551000 16430.55496813 0 304.65944631 0 5115.42513854 0 601.96022556 0 580.75783076 0 12067
0.10650000 0.10649700 16128.28050058 0 28.79391286 0 4749.48480328 0 871.10851171 0 -138.67201049 0 12054
0.10750000 0.10749900 16272.66361622 0 117.44636382 0 5083.27110727 0 191.50471560 0 887.92626588 0 12807
0.10850000 0.10850100 15772.08381117 0 285.96493309 0 5299.75720212 0 -126.65410914 0 909.73542407 0 12736
0.10950000 0.10950300 15784.92770796 0 354.29889294 0 5765.43703934 0 -798.74090393 0 228.79962728 0 12933
0.11050000 0.11050200 15432.49560898 0 327.75520865 0 5598.74318920 0 -218.08936749 0 571.93761681 0 13428
0.11150000 0.11150900 15079.39917051 0 196.28463822 0 5330.54933744 0 -189.71985684 0 -281.70098080 0 13453
0.11250000 0.11250000 14987.83104426 0 45.62650394 0 5019.01840634 0 761.48917431 0 -563.57468987 0 13668
0.11350000 0.11349100 15087.59269088 0 214.48754022 0 4497.86622178 0 1284.57790848 0 -1327.39458856 0 13791
0.11450000 0.11448600 14668.61591974 0 88.95915435 0 3787.29977654 0 583.74514400 0 -937.85802188 0 14205
0.11550000 0.11549300 14296.47508259 0 612.08033044 0 3498.76606409 0 785.23377488 0 -1450.54098519 0 14776
0.11650000 0.11649800 14070.71037954 0 450.21622838 0 3172.49786866 0 167.44233930 0 -474.35611095 0 14553
0.11750000 0.11747300 13655.49819884 0 154.00053697 0 3341.25117122 0 189.26699875 0 -365.87500854 0 14568
0.11850000 0.11849100 13647.96901796 0 -44.79441873 0 3385.26366238 0 -49.47435826 0 183.75076653 0 16015
0.11950000 0.11950300 13899.08934485 0 -137.31786517 0 3739.41197170 0 -120.92085934 0 -278.04379192 0 15270
0.12050000 0.12050700 13798.99552849 0 335.08508768 0 3619.68692344 0 -47.64100272 0 150.88699923 0 15999
0.12150000 0.12150000 13743.85535089 0 121.70367271 0 3562.14405136 0 -169.34677917 0 902.79086195 0 15670
0.12250000 0.12250700 13653.06228738 0 -88.53054466 0 3221.08322997 0 214.61265749 0 21.54397602 0 16887
0.12350000 0.12352200 13736.43689326 0 -254.14639326 0 3018.47075811 0 623.80370796 0 7.85526084 0 16407
0.12450000 0.12449800 13875.28384649 0 160.30511872 0 3269.46928942 0 240.89060599 0 -742.63521961 0 16306
0.12550000 0.12549900 13434.05170246 0 356.50117835 0 2960.44070374 0 272.64271187 0 -615.42195807 0 17523
0.12650000 0.12650100 13319.34241734 0 233.74120585 0 2845.00064518 0 -123.99896564 0 -8.26232379 0 17154
0.12750000 0.12750600 13010.42455490 0 339.70999776 0 2827.08562362 0 1.47445721 0 -150.90803665 0 18007
0.12850000 0.12850300 13214.15533157 0 84.84700364 0 3508.00038299 0 -224.12710621 0 103.50331734 0 17496
0.12950000 0.12949900 12771.15161557 0 371.27498135 0 3599.40242437 0 -422.13791987 0 249.13948798 0 18405
0.13050000 0.13049000 12774.36258977 0 457.36895021 0 3576.41627805 0 -110.51276329 0 1162.21764691 0 18100
0.13150000 0.13148800 12529.44276478 0 -44.33746389 0 3701.95429684 0 261.43751915 0 702.04961299 0 19059
0.13250000 0.13249300 12498.10808554 0 -100.02970760 0 3830.20503522 0 587.16206344 0 594.41997235 0 18957
0.13350000 0.13349100 12564.20986471 0 -0.24683202 0 3784.86386508 0 42.73673789 0 452.92451903 0 19468
0.13450000 0.13450700 12600.85925986 0 136.47969018 0 3904.92108309 0 308.22030598 0 752.04226677 0 19953
0.13550000 0.13551000 12325.71198812 0 345.32477368 0 3558.73377531 0 -169.93582685 0 823.67024326 0 19956
0.13650000 0.13649900 12164.05604576 0 398.29920454 0 4154.29198266 0 -160.36712374 0 831.32011248 0 19723
0.13750000 0.13749600 11826.90375504 0 241.07772828 0 3961.74425406 0 -137.21821425 0 916.21384133 0 20946
0.13850000 0.13851100 11681.74557666 0 162.56498022 0 4051.86190576 0 -44.06630265 0 638.17115664 0 20955
0.13950000 0.13949800 11604.01785644 0 184.77274211 0 3981.99553615 0 6.31023971 0 676.80471240 0 20506
0.14050000 0.14048300 11445.68361153 0 172.47581817 0 3844.77621468 0 44.32594867 0 -98.50150533 0 21447
0.14150000 0.14148400 11208.40369067 0 284.13799950 0 3792.33768434 0 55.89752461 0 720.57804134 0 21771
0.14250000 0.14249400 11003.66533245 0 231.83676598 0 3395.25089936 0 103.21731919 0 -130.81508880 0 22470
0.14350000 0.14350900 10875.86855939 0 112.14272023 0 3459.11606892 0 225.10036356 0 -22.04677029 0 22519
0.14450000 0.14449900 10777.46880873 0 -108.07950919 0 3486.97403816 0 42.53311784 0 238.44805113 0 22218
0.14550000 0.14550500 10850.96690087 0 65.04647589 0 3607.18626872 0 -41.82581773 0 75.27187858 0 23559
0.14650000 0.14650700 10746.79846898 0 263.81364006 0 3550.89456934 0 272.68810840 0 725.96029843 0 23044
0.14750000 0.14750500 10517.52383896 0 247.26826508 0 3667.45293271 0 217.18918748 0 347.25025096 0 23649
0.14850000 0.14849900 10318.45451104 0 236.11400506 0 3618.42467841 0 435.76795173 0 463.48087351 0 23640
0.14950000 0.14949500 10213.44458246 0 101.49435473 0 3413.60881391 0 125.81814861 0 418.00019209 0 24457
0.15050000 0.15050000 10077.93039901 0 46.41429985 0 3306.74980709 0 199.63733818 0 301.53262179 0 24591
0.15150000 0.15149900 9999.41654372 0 73.19936082 0 3084.90470702 0 199.62183692 0 524.16607138 0 25020
0.15250000 0.15250500 9935.35207232 0 243.02645744 0 3231.83445737 0 193.30396838 0 307.95235572 0 25297
0.15350000 0.15350100 9785.91997657 0 89.95001670 0 2947.46393905 0 206.98161123 0 642.94222141 0 25452
0.15450000 0.15450400 9759.85572394 0 109.36965648 0 3014.27434700 0 186.29297231 0 666.50745032 0 26061
0.15550000 0.15549900 9799.38392355 0 -54.91463434 0 2751.56129603 0 89.31191862 0 622.24915355 0 26128
0.15650000 0.15649500 9760.44255716 0 -60.82194108 0 2854.52284452 0 303.92092225 0 812.47058671 0 26331
0.15750000 0.15749700 9799.18462170 0 31.03151898 0 2571.28170333 0 116.79420388 0 589.75963084 0 27345
0.15850000 0.15849900 9739.65980347 0 285.68812497 0 2832.38926721 0 160.47784699 0 142.44545879 0 26980
0.15950000 0.15949700 9396.21843225 0 391.96472751 0 2516.24117666 0 -382.33291215 0 -252.42464675 0 27777
0.16050000 0.16050000 9042.63481149 0 348.90002736 0 2541.89575327 0 -229.23144795 0 -287.14413568 0 28224
0.16150000 0.16150500 8789.49932149 0 205.48131122 0 2421.41778691 0 -17.71073716 0 -233.74342032 0 28075
0.16250000 0.16249700 8703.79952739 0 -11.05426586 0 2563.42035271 0 191.70291021 0 -297.24763208 0 28590
0.16350000 0.16349900 8776.36754425 0 17.29674294 0 2326.08507023 0 363.76794513 0 -402.83664325 0 29163
0.16450000 0.16449100 8800.07339169 0 -14.89116965 0 2370.56259902 0 452.84922722 0 -148.42119250 0 28996
0.16550000 0.16550500 8710.88581527 0 88.03804765 0 2082.81502164 0 399.40422256 0 199.89421611 0 30777
0.16650000 0.16650700 8569.53651664 0 201.48863089 0 1969.55621107 0 372.56269273 0 253.07459222 0 29211
0.16750000 0.16749900 8550.81321537 0 91.40691320 0 1973.98514099 0 126.45812899 0 472.11285794 0 30922
0.16850000 0.16850800 8449.54573258 0 17.67552717 0 1828.05189988 0 166.40596970 0 572.77357733 0 30867
0.16950000 0.16949900 8295.97258735 0 192.52004778 0 1793.81627154 0 23.05656631 0 278.60183709 0 30852
0.17050000 0.17049200 8147.83595360 0 198.86116821 0 1759.06024394 0 -25.71957115 0 655.77504587 0 31257
0.17150000 0.17149500 8131.93609516 0 -6.04845673 0 1549.20647165 0 193.22092595 0 544.37638587 0 32608
0.17250000 0.17250900 8109.56999902 0 -81.89445750 0 1501.71727050 0 120.74480938 0 447.60315972 0 32361
0.17350000 0.17350400 8135.57889002 0 -2.92843061 0 1587.04060556 0 349.95743438 0 274.07879240 0 32508
0.17450000 0.17449800 8105.88291486 0 147.45347131 0 1581.96948079 0 -196.23259830 0 525.48589250 0 32791
0.17550000 0.17549800 8018.07937905 0 195.77641851 0 1700.84196004 0 -139.78477914 0 477.04225695 0 33633
0.17650000 0.17650100 7870.31920434 0 179.58646516 0 1839.09100773 0 -291.53984864 0 632.28621600 0 33984
0.17750000 0.17750300 7767.81162117 0 174.54966460 0 1837.12013391 0 -30.04231748 0 444.77860966 0 34069
0.17850000 0.17849800 7745.55624829 0 110.97126826 0 1998.82036556 0 -64.26233385 0 332.09555998 0 34536
