### header ###
fiducial parameters:
Omega_m = 0.31
Omega_nu = 0
Omega_de = 0.69
Omega_k = 0
H_0 = 100
w_de = -1
zeff = 0
beta = 0
fgrowth = 0
b_1 = 2
gamma = 0.55
Lx = 3500 Ly = 3500 Lz = 3500
nx = 700 ny = 700 nz = 700
xoffset = -685.467585 yoffset = -31.7331281 zoffset = 572.489161
bins = 400 dk = 0.001
kx_ny = 0.628318531 ky_ny = 0.628318531 kz_ny = 0.628318531
############################
A(data) = 8.01471093 (not used)
A(ran) = 8.00329263 (used)
Ngal = 475581
weighted Ngal = 0
Nran = 23820508
weighted Nran = 0
SN(data) = 3501.49369
SN(ran) = 69.7115813
SN(data+ran) = 3571.20527
############################
13 columns: k_central k_mean P_0(k) sigma^{lin}_{P_0(k)} P^img_1(k) sigma^{lin}_{P_1(k)} P_2(k) sigma^{lin}_{P_2(k)} P^img_3(k) sigma^{lin}_{P_3(k)} P_4(k) sigma^{lin}_{P_4(k)} N_modes
### header ###
0.00050000 0 0 0 0 0 0 0 0 0 0 0 0
0.00150000 0.00179520 116196.29834432 0 -66776.74808826 0 70444.34496119 0 77720.41249252 0 -164512.60215545 0 3
0.00250000 0.00253879 179751.44280335 0 -30535.14666161 0 55618.05913603 0 -8241.12029019 0 126342.97680813 0 6
0.00350000 0.00331552 152476.98507758 0 38430.60004329 0 54246.19809100 0 -113752.63625684 0 136691.17158363 0 7
0.00450000 0.00420575 107368.33376641 0 71560.65674941 0 26055.17331674 0 -11076.20013233 0 87088.26362858 0 24
0.00550000 0.00557378 66822.91968276 0 14414.17389541 0 46582.04557478 0 43665.92738730 0 -8858.01486746 0 45
0.00650000 0.00659388 60804.88969733 0 -5489.69186206 0 80268.92949602 0 49789.36590500 0 -15208.39175465 0 40
0.00750000 0.00754703 73211.54037987 0 -1589.66474654 0 51494.28248057 0 42017.03677530 0 -2891.11687805 0 57
0.00850000 0.00846663 69369.44366780 0 -8435.22921659 0 21404.46472317 0 33307.76751945 0 3133.56757460 0 75
0.00950000 0.00948925 81175.86362192 0 -7223.50720541 0 26839.09391390 0 3414.89320359 0 13336.39379756 0 112
0.01050000 0.01054430 83109.75587474 0 -6830.45074667 0 9550.01302398 0 18847.53275280 0 -7860.60877548 0 105
0.01150000 0.01145670 84747.90633166 0 3420.15255788 0 31169.36942723 0 -6990.52334658 0 13295.53691898 0 144
0.01250000 0.01249090 75021.97621096 0 10700.23934312 0 14263.47955463 0 -4869.86311871 0 4303.89016328 0 169
0.01350000 0.01339930 76438.90161801 0 -2418.68292268 0 31879.21617135 0 -359.99338960 0 -7247.52307794 0 180
0.01450000 0.01448870 73022.31434872 0 992.11684242 0 17935.17318774 0 -2778.62205789 0 -8319.47913294 0 267
0.01550000 0.01550050 81510.13710819 0 2641.44702571 0 21243.91601330 0 -15230.42568104 0 581.13428980 0 238
0.01650000 0.01653350 71708.25083924 0 1736.28447179 0 24246.50905762 0 -48.91631309 0 606.47551962 0 315
0.01750000 0.01747870 80949.43457938 0 1535.17783611 0 22404.95999378 0 23833.84351163 0 2390.76959182 0 297
0.01850000 0.01844180 70600.13257139 0 -1393.35242750 0 13491.95996127 0 10195.13095721 0 -5994.23555940 0 388
0.01950000 0.01947590 75404.52503345 0 6389.45112147 0 24207.75592075 0 7873.03192392 0 -5105.85864990 0 399
0.02050000 0.02045430 70786.03690510 0 7142.88960841 0 16386.37639211 0 4768.24132153 0 16163.82266325 0 462
0.02150000 0.02154770 66371.94389289 0 1784.37157847 0 25732.85794127 0 685.35143993 0 12133.71787576 0 571
0.02250000 0.02255340 68587.51608910 0 -9861.85398017 0 22701.91974542 0 7066.49056716 0 8468.31332315 0 510
0.02350000 0.02348930 77135.35084910 0 -2587.77946731 0 27638.18359606 0 -4320.66473538 0 -3018.96901273 0 555
0.02450000 0.02439640 71785.42494323 0 3848.05362282 0 28073.32596144 0 191.99743405 0 4479.78511535 0 592
0.02550000 0.02547300 68555.51707038 0 7642.10751750 0 26271.08365071 0 -8419.60616627 0 561.40783591 0 837
0.02650000 0.02652900 61924.74462948 0 6054.10361969 0 20338.53201288 0 3627.75864823 0 1486.01671391 0 723
0.02750000 0.02749970 57347.55627270 0 -391.48972478 0 14468.98190326 0 7820.63768288 0 -15169.74934103 0 826
0.02850000 0.02848090 60783.18794068 0 -843.12653243 0 14684.56006748 0 6842.99569069 0 -15592.82287236 0 831
0.02950000 0.02946900 60084.19207488 0 133.80350927 0 13838.30228159 0 -681.64442558 0 -21959.63108957 0 996
0.03050000 0.03053250 54834.58143186 0 4506.58014141 0 11609.33257235 0 -1925.76516641 0 -8943.34927484 0 1041
0.03150000 0.03150510 56915.84632802 0 2234.31764213 0 19438.79489811 0 -642.75731358 0 -895.52963133 0 1036
0.03250000 0.03246190 52567.96581824 0 1243.63245131 0 13916.91578780 0 3475.65812220 0 -811.89704028 0 1059
0.03350000 0.03345080 55941.81391373 0 2231.90387532 0 23000.87251552 0 2925.48537428 0 -586.41911044 0 1302
0.03450000 0.03451200 51367.61508465 0 -404.57831994 0 22910.52234500 0 661.97001161 0 6510.73736754 0 1339
0.03550000 0.03553350 53578.31545794 0 1047.47182312 0 25301.25871984 0 1033.58823503 0 3233.88283746 0 1365
0.03650000 0.03647120 52396.89839979 0 1796.82794389 0 28723.38215154 0 -3982.64880332 0 6760.19684570 0 1308
0.03750000 0.03744890 51511.99820028 0 1748.35330584 0 23835.94725334 0 -292.54300127 0 -456.44330386 0 1579
0.03850000 0.03847530 48548.49046257 0 2982.95074009 0 23093.76932075 0 1718.21443768 0 -299.45656088 0 1662
0.03950000 0.03950240 47837.64720922 0 1868.88663381 0 22311.84174205 0 -584.14596215 0 -6821.16106615 0 1683
0.04050000 0.04050350 46061.20341531 0 1247.17559525 0 19409.56396059 0 5123.03182569 0 -8824.93076091 0 1822
0.04150000 0.04152450 43680.21068631 0 1707.40784866 0 15540.00788297 0 4470.15219276 0 -8444.38602921 0 1887
0.04250000 0.04250150 42578.84653660 0 -22.72118559 0 13260.99126555 0 4523.34364119 0 -8168.81800913 0 1920
0.04350000 0.04349210 41625.74081621 0 563.86257032 0 13266.63815121 0 4386.83294850 0 -7673.82972811 0 2005
0.04450000 0.04448520 40434.35866573 0 1721.32576096 0 10886.98517351 0 2145.87191148 0 -2272.35107788 0 2151
0.04550000 0.04548030 38749.26155158 0 2184.13786605 0 9604.35599419 0 3274.75078836 0 -29.91731094 0 2274
0.04650000 0.04648670 37939.09954460 0 672.05468505 0 10313.05121653 0 3252.55077710 0 8830.90981631 0 2311
0.04750000 0.04749250 38352.09726033 0 -1190.81746192 0 10368.86680594 0 2973.38425145 0 6854.15659411 0 2568
0.04850000 0.04851840 38899.62372261 0 177.53254891 0 9554.46409856 0 1893.52255654 0 4055.26110948 0 2493
0.04950000 0.04949480 39078.33104519 0 126.52456294 0 9828.85845221 0 -2394.72241178 0 6673.21266192 0 2644
0.05050000 0.05050630 39285.82641229 0 -250.65971817 0 11157.36027325 0 -3516.29355428 0 3448.61950499 0 2829
0.05150000 0.05149060 39408.95066427 0 -189.92358761 0 12937.90082734 0 -2761.94713671 0 543.93681458 0 2784
0.05250000 0.05249300 39581.45748495 0 1180.83022493 0 10849.16211193 0 -1360.35689954 0 -2616.55643952 0 3055
0.05350000 0.05348950 38771.51692446 0 318.32380237 0 12996.80559538 0 -181.20745352 0 -1381.43860600 0 3009
0.05450000 0.05448610 38660.57222978 0 371.54071715 0 13627.04232405 0 -572.30521799 0 -6201.19945491 0 3336
0.05550000 0.05550870 37293.02939143 0 2579.76310415 0 14002.72630515 0 -336.93527316 0 -4735.68868656 0 3349
0.05650000 0.05647670 35256.93958053 0 2017.18935244 0 13493.73153324 0 895.22735686 0 -3454.03387183 0 3324
0.05750000 0.05747970 34670.54925813 0 724.62719052 0 14149.76677874 0 -213.35151970 0 -1381.08429160 0 3639
0.05850000 0.05849280 33911.31994532 0 112.76498488 0 14205.12840283 0 3365.74315372 0 -1442.89000874 0 3846
0.05950000 0.05951020 34281.57848725 0 25.25375845 0 12180.11091675 0 2564.29506637 0 -1361.97345897 0 3787
0.06050000 0.06049470 34890.44562903 0 -129.51409064 0 11323.11297579 0 3486.53114517 0 1187.32967960 0 3930
0.06150000 0.06148310 34129.33402100 0 -576.66217781 0 10469.30386437 0 1008.43191304 0 944.52688312 0 4083
0.06250000 0.06249100 35081.66467865 0 -132.28438631 0 11021.80180050 0 -823.75439293 0 -1013.47314253 0 4303
0.06350000 0.06350600 33877.88152436 0 1365.85984498 0 12753.32517261 0 -2167.25257070 0 -0.77896573 0 4470
0.06450000 0.06451750 33651.12031208 0 1116.50001774 0 13495.06021221 0 -287.08102343 0 68.92942948 0 4479
0.06550000 0.06550280 32940.94139821 0 742.74040669 0 14604.39643579 0 -635.08862141 0 762.26091535 0 4636
0.06650000 0.06648880 32836.75082167 0 466.98083539 0 16287.16836173 0 229.29123851 0 1174.41934886 0 4653
0.06750000 0.06749660 31764.83905597 0 1426.77977613 0 15392.96740938 0 1913.16486076 0 1667.97929998 0 5220
0.06850000 0.06852730 31019.56087243 0 1198.30235350 0 14476.95397713 0 1277.34768038 0 1328.29144687 0 5029
0.06950000 0.06949320 30349.02088141 0 139.20680378 0 12827.84191864 0 2588.99742304 0 2657.83406644 0 5040
0.07050000 0.07048030 30200.20883585 0 -204.34418346 0 12612.70664742 0 2395.25388337 0 2653.09511142 0 5475
0.07150000 0.07148790 30444.35359810 0 103.58647050 0 11973.83350538 0 1394.83611903 0 42.65026303 0 5509
0.07250000 0.07249820 28813.84304531 0 885.77380593 0 10609.04767591 0 477.71213260 0 3351.57057795 0 5916
0.07350000 0.07351270 29027.20674456 0 909.32796252 0 10826.29776118 0 866.80359182 0 1809.00750120 0 5721
0.07450000 0.07449140 28039.33392424 0 449.34262195 0 9753.52235415 0 1701.50629953 0 2052.39934536 0 6028
0.07550000 0.07549160 28136.65965940 0 287.67782174 0 9857.31432700 0 -371.95925103 0 782.90083604 0 6183
0.07650000 0.07648840 27412.86178600 0 211.83018227 0 10060.70186159 0 -420.10614827 0 -105.48980314 0 6330
0.07750000 0.07749960 27279.66171844 0 1035.81820125 0 11109.63855329 0 -422.04159065 0 681.47169731 0 6583
0.07850000 0.07848650 26100.90201824 0 1434.69648838 0 9570.47468025 0 -271.12912507 0 -556.71538465 0 6549
0.07950000 0.07947320 24654.96712018 0 838.33775195 0 9166.97701920 0 998.94846684 0 150.47178705 0 6828
0.08050000 0.08048110 24702.24594715 0 251.93082106 0 9575.15827364 0 1557.79859571 0 -529.58708161 0 7147
0.08150000 0.08149960 23968.37225817 0 88.47252568 0 8919.96452482 0 1683.66878425 0 -2115.06870383 0 7386
0.08250000 0.08250610 23702.08284628 0 416.79441592 0 6828.57952378 0 1404.21437815 0 -415.15239015 0 7227
0.08350000 0.08350160 23219.44020744 0 565.08495498 0 7018.85742579 0 730.09138282 0 -831.71096554 0 7798
0.08450000 0.08449610 22389.23729254 0 609.15280776 0 6211.25312584 0 123.83288077 0 -806.42509735 0 7371
0.08550000 0.08548940 22528.41641551 0 509.06563479 0 7218.22570647 0 -540.84431425 0 -1156.08357896 0 8256
0.08650000 0.08650700 21706.96063721 0 682.46377761 0 6966.91715006 0 -818.55482919 0 -250.52463581 0 8037
0.08750000 0.08749060 21549.40145504 0 704.74793854 0 8117.68601312 0 143.99336980 0 -147.27299241 0 8155
0.08850000 0.08849210 21005.08596696 0 329.91431199 0 8267.51671256 0 -441.70493229 0 -178.70842981 0 8718
0.08950000 0.08949900 21129.42817467 0 191.03414179 0 8648.44897562 0 697.82552107 0 590.41511247 0 8571
0.09050000 0.09049190 20645.67830334 0 440.00865213 0 8906.62237342 0 545.60319946 0 281.00342434 0 8932
0.09150000 0.09150830 20136.35136169 0 662.96098468 0 8223.13883469 0 1122.45692849 0 197.93441462 0 9285
0.09250000 0.09250820 19439.90213059 0 494.96281467 0 7085.36888097 0 1202.06694394 0 287.50066454 0 9204
0.09350000 0.09350330 19164.75485885 0 189.72760746 0 6143.74516142 0 655.85919554 0 580.69250404 0 9349
0.09450000 0.09448040 19112.49348571 0 -167.25300255 0 5807.40115041 0 505.30547328 0 -1167.08946983 0 9564
0.09550000 0.09549270 18945.96572043 0 44.36846640 0 5110.05506100 0 768.29754684 0 -1585.34653986 0 10155
0.09650000 0.09649430 18462.32657236 0 710.45350752 0 5100.75430815 0 -534.59177243 0 -2128.76516963 0 9913
0.09750000 0.09749140 18031.28096717 0 624.87883070 0 4974.66267312 0 59.71891608 0 -1218.53149094 0 10476
0.09850000 0.09850240 17600.56753172 0 220.58064057 0 5189.21111113 0 175.94920646 0 -492.48150668 0 10575
0.09950000 0.09950330 17228.09452482 0 181.34696481 0 4979.95524438 0 392.17842338 0 -472.32101765 0 10882
0.10050000 0.10051200 17384.76792100 0 243.02424298 0 5565.23833430 0 327.79728349 0 -1064.55642032 0 10875
0.10150000 0.10150300 17425.29262984 0 173.75577891 0 5643.15428405 0 24.82016621 0 575.54719470 0 11118
0.10250000 0.10250800 17116.70693715 0 419.38866162 0 5856.88337002 0 -781.87664600 0 52.11388978 0 11575
0.10350000 0.10349800 16808.01052120 0 453.02638442 0 6290.48668224 0 29.74192531 0 122.41340873 0 11364
0.10450000 0.10450100 16580.58496943 0 77.53306876 0 6680.69755350 0 524.34101411 0 262.12732499 0 12093
0.10550000 0.10551000 16470.30461423 0 60.53173544 0 6033.03298556 0 654.64234704 0 -159.50901857 0 12067
0.10650000 0.10649700 16472.74052569 0 162.44097018 0 6135.50735176 0 543.54817597 0 -840.20454591 0 12054
0.10750000 0.10749900 16099.27100956 0 245.42804470 0 5728.46654677 0 -276.18364135 0 -838.25470951 0 12807
0.10850000 0.10850100 16036.15875809 0 264.59313173 0 5388.20293277 0 -641.83388169 0 -806.63104260 0 12736
0.10950000 0.10950300 15433.38139497 0 392.74754087 0 5415.66229832 0 237.47147208 0 -823.81307625 0 12933
0.11050000 0.11050200 15668.33612762 0 98.30054263 0 6120.91402765 0 309.14484510 0 -738.33805035 0 13428
0.11150000 0.11150900 15474.12755030 0 133.89540957 0 5250.34141645 0 453.00313254 0 -1012.57849869 0 13453
0.11250000 0.11250000 15460.17642103 0 36.40868281 0 5011.63316569 0 671.15450504 0 -605.26752898 0 13668
0.11350000 0.11349100 15667.33961838 0 10.37454691 0 5050.00984351 0 683.02625172 0 -684.64502560 0 13791
0.11450000 0.11448600 15390.42077467 0 257.45591115 0 4996.10976629 0 49.26021950 0 -266.53853920 0 14205
0.11550000 0.11549300 14948.63501441 0 374.82033976 0 4721.05107315 0 338.17315908 0 -183.76626778 0 14776
0.11650000 0.11649800 14690.31767639 0 351.52416834 0 4681.29035473 0 194.75001400 0 297.09704846 0 14553
0.11750000 0.11747300 14582.36250941 0 216.81494290 0 4768.09738130 0 353.34002961 0 371.85849287 0 14568
0.11850000 0.11849100 14492.56595513 0 -19.24857236 0 4637.70968424 0 357.63055548 0 -24.63858008 0 16015
0.11950000 0.11950300 14083.22210658 0 265.36376553 0 4444.27616966 0 8.51809450 0 93.86474786 0 15270
0.12050000 0.12050700 14113.78172308 0 183.05985346 0 4330.97306979 0 295.59564122 0 232.38927499 0 15999
0.12150000 0.12150000 14036.60761909 0 10.15204854 0 4432.07446771 0 -19.77417562 0 -74.35232201 0 15670
0.12250000 0.12250700 14173.57227710 0 119.10831977 0 4230.61351763 0 206.27962584 0 529.82735106 0 16887
0.12350000 0.12352200 13930.64547058 0 255.15176035 0 4553.73717281 0 -136.73103195 0 355.62646469 0 16407
0.12450000 0.12449800 13847.60303444 0 337.05928320 0 4597.81609792 0 -398.24052122 0 434.98181666 0 16306
0.12550000 0.12549900 13748.39500406 0 309.69624687 0 5192.28921743 0 40.50012828 0 1025.41575208 0 17523
0.12650000 0.12650100 13407.47812290 0 74.44898340 0 5129.07731504 0 162.63695033 0 848.93175233 0 17154
0.12750000 0.12750600 13414.89658053 0 77.28205915 0 5315.57955429 0 715.64753510 0 1468.85461044 0 18007
0.12850000 0.12850300 13130.11638619 0 273.17639793 0 4694.03460059 0 505.03309409 0 1230.41209547 0 17496
0.12950000 0.12949900 12899.25841372 0 362.05284201 0 4458.14979265 0 1108.33971435 0 1292.40604213 0 18405
0.13050000 0.13049000 12575.94652902 0 231.50127454 0 3949.37646724 0 468.54314042 0 1618.20919992 0 18100
0.13150000 0.13148800 12272.89699873 0 314.50606478 0 3603.26666573 0 150.12079436 0 1446.10098294 0 19059
0.13250000 0.13249300 12103.15825926 0 207.08790555 0 3688.11389082 0 0.42512745 0 1273.21770322 0 18957
0.13350000 0.13349100 11977.81954232 0 164.49820813 0 3982.39413985 0 -359.15853630 0 1301.56285476 0 19468
0.13450000 0.13450700 11840.96560756 0 128.60173107 0 4023.06278891 0 -225.17565537 0 638.56533141 0 19953
0.13550000 0.13551000 11725.59198295 0 97.39825888 0 3988.30676130 0 -143.38882087 0 887.89083444 0 19956
0.13650000 0.13649900 11769.10621948 0 117.67223924 0 4161.31183659 0 104.03822135 0 343.35832879 0 19723
0.13750000 0.13749600 11659.82237352 0 56.06493817 0 4093.47170243 0 447.02739883 0 1168.81675251 0 20946
0.13850000 0.13851100 11743.30770266 0 -103.67726356 0 3529.77964591 0 436.37582236 0 480.99286245 0 20955
0.13950000 0.13949800 11646.42486049 0 -78.37755497 0 3411.60472312 0 719.19289350 0 799.59125848 0 20506
0.14050000 0.14048300 11889.68383676 0 24.36099690 0 2904.86870547 0 503.21501836 0 178.54788110 0 21447
0.14150000 0.14148400 11721.16305302 0 239.70033107 0 3057.57820937 0 -20.29114246 0 685.42894620 0 21771
0.14250000 0.14249400 11338.39278404 0 348.93767326 0 2879.59058791 0 13.42120781 0 505.80926406 0 22470
0.14350000 0.14350900 11016.37636134 0 303.98624897 0 2722.18641829 0 93.77373335 0 920.64609295 0 22519
0.14450000 0.14449900 10966.71698453 0 193.72028779 0 2774.04918774 0 266.75777123 0 767.93437459 0 22218
0.14550000 0.14550500 10940.17662194 0 46.02610415 0 2860.12544088 0 170.43408147 0 731.28387220 0 23559
0.14650000 0.14650700 10791.54173357 0 144.82490140 0 2756.47740825 0 61.09808486 0 769.32838028 0 23044
0.14750000 0.14750500 10658.04271323 0 124.67437746 0 2840.56064292 0 -167.19874816 0 497.56923993 0 23649
0.14850000 0.14849900 10580.32606533 0 87.88812837 0 2815.61469511 0 419.57024775 0 894.15444859 0 23640
0.14950000 0.14949500 10519.41720650 0 80.40201884 0 2521.09085493 0 238.66728316 0 644.32294031 0 24457
0.15050000 0.15050000 10575.25494056 0 95.93881575 0 2235.84562295 0 415.61853502 0 802.45899060 0 24591
0.15150000 0.15149900 10467.87553447 0 112.50146355 0 2437.15156048 0 296.19243953 0 723.81780358 0 25020
0.15250000 0.15250500 10188.35469442 0 205.11813896 0 1954.84109138 0 44.85996690 0 739.59365198 0 25297
0.15350000 0.15350100 9950.22220455 0 292.00931521 0 2247.56014261 0 -134.79780404 0 986.24297411 0 25452
0.15450000 0.15450400 9827.80658136 0 258.12800126 0 2135.81824054 0 -71.61690416 0 336.03509315 0 26061
0.15550000 0.15549900 9540.50189696 0 275.46947640 0 2580.08420157 0 -298.86308427 0 878.53471997 0 26128
0.15650000 0.15649500 9547.61032949 0 160.51438566 0 2672.34988428 0 -222.67109550 0 488.73795366 0 26331
0.15750000 0.15749700 9203.28317228 0 87.57101699 0 2672.52704148 0 -152.85344412 0 420.49700134 0 27345
0.15850000 0.15849900 9308.37060714 0 170.46840568 0 2881.69432963 0 -149.49299354 0 43.14729969 0 26980
0.15950000 0.15949700 9090.35653146 0 151.02429606 0 2949.57875309 0 10.44734744 0 100.03424725 0 27777
0.16050000 0.16050000 9151.38718586 0 26.39409718 0 2993.98984794 0 -167.88080337 0 -246.11231437 0 28224
0.16150000 0.16150500 9038.49376201 0 106.79201926 0 2961.00539230 0 246.65817998 0 2.71233205 0 28075
0.16250000 0.16249700 9086.78017054 0 41.43795419 0 2812.27085301 0 107.72386612 0 -232.91963935 0 28590
0.16350000 0.16349900 9013.93534556 0 197.67642945 0 2852.15336701 0 328.32100445 0 -296.78259444 0 29163
0.16450000 0.16449100 8921.78038610 0 65.88487232 0 2564.82653797 0 127.29519674 0 -179.87988177 0 28996
0.16550000 0.16550500 8704.45279455 0 67.02676118 0 2370.96120272 0 120.47464465 0 -315.89231984 0 30777
0.16650000 0.16650700 8755.27476547 0 136.65463291 0 2432.80013683 0 -45.36530780 0 -387.31767278 0 29211
0.16750000 0.16749900 8670.72649316 0 156.19950068 0 2475.82719107 0 -231.11817210 0 -659.36026465 0 30922
0.16850000 0.16850800 8427.83290361 0 118.80825977 0 2419.34726217 0 -92.37264137 0 -398.40328439 0 30867
0.16950000 0.16949900 8393.79657712 0 77.45102283 0 2386.66175931 0 22.61854514 0 -365.53065924 0 30852
0.17050000 0.17049200 8493.95682743 0 -54.36732932 0 2320.15030412 0 305.06580064 0 -321.42073163 0 31257
0.17150000 0.17149500 8428.57474937 0 25.11635090 0 2362.03690891 0 256.08847903 0 -285.10572069 0 32608
0.17250000 0.17250900 8515.37070363 0 65.05810183 0 2233.44292847 0 257.32193602 0 -274.34452819 0 32361
0.17350000 0.17350400 8312.30426645 0 254.03899171 0 2435.55714571 0 3.02108383 0 275.51598016 0 32508
0.17450000 0.17449800 8203.79548323 0 214.06789911 0 2395.09887082 0 -13.76600000 0 486.41497991 0 32791
0.17550000 0.17549800 8099.54954506 0 154.66376923 0 2491.74919416 0 62.40771944 0 717.89632427 0 33633
0.17650000 0.17650100 8056.26782735 0 63.18444302 0 2695.72356197 0 23.46701739 0 703.81121986 0 33984
0.17750000 0.17750300 7859.35760277 0 43.21306930 0 2607.27783132 0 129.89497861 0 762.07711476 0 34069
0.17850000 0.17849800 7895.47552633 0 160.05266972 0 2611.87284612 0 90.19936546 0 540.44681779 0 34536
