### header ###
fiducial parameters:
Omega_m = 0.31
Omega_nu = 0
Omega_de = 0.69
Omega_k = 0
H_0 = 100
w_de = -1
zeff = 0
beta = 0
fgrowth = 0
b_1 = 2
gamma = 0.55
Lx = 3500 Ly = 3500 Lz = 3500
nx = 700 ny = 700 nz = 700
xoffset = -685.467585 yoffset = -31.7331281 zoffset = 572.489161
bins = 400 dk = 0.001
kx_ny = 0.628318531 ky_ny = 0.628318531 kz_ny = 0.628318531
############################
A(data) = 8.08753006 (not used)
A(ran) = 8.09527705 (used)
Ngal = 481482
weighted Ngal = 0
Nran = 23820508
weighted Nran = 0
SN(data) = 3476.88624
SN(ran) = 70.512799
SN(data+ran) = 3547.39904
############################
13 columns: k_central k_mean P_0(k) sigma^{lin}_{P_0(k)} P^img_1(k) sigma^{lin}_{P_1(k)} P_2(k) sigma^{lin}_{P_2(k)} P^img_3(k) sigma^{lin}_{P_3(k)} P_4(k) sigma^{lin}_{P_4(k)} N_modes
### header ###
0.00050000 0 0 0 0 0 0 0 0 0 0 0 0
0.00150000 0.00179520 28121.49057440 0 -9068.16759252 0 14869.13572221 0 -6043.86171923 0 20520.78247939 0 3
0.00250000 0.00253879 57767.19738333 0 -14846.76962607 0 16634.39646805 0 -56490.55833174 0 3572.93956805 0 6
0.00350000 0.00331552 65514.39233569 0 -19663.67381518 0 -17398.27615728 0 11375.04217919 0 5760.76451827 0 7
0.00450000 0.00420575 81576.12816411 0 -16022.65052181 0 14785.09677683 0 -50746.12549258 0 9510.50696903 0 24
0.00550000 0.00557378 99193.74707605 0 1796.52899112 0 39129.37446260 0 -40339.46884203 0 -11191.24158720 0 45
0.00650000 0.00659388 101665.64359182 0 10676.00202409 0 82077.04013891 0 -12508.07317788 0 23268.82277613 0 40
0.00750000 0.00754703 85895.33135262 0 17586.17350946 0 53776.17790245 0 -3001.53010114 0 8243.63370793 0 57
0.00850000 0.00846663 85836.98020083 0 7248.07669418 0 68619.95800082 0 57271.04650821 0 13567.80538627 0 75
0.00950000 0.00948925 79559.96853789 0 -8488.65318384 0 29001.85112073 0 54791.95298131 0 -38704.64008256 0 112
0.01050000 0.01054430 74478.65723211 0 3882.84286740 0 22000.37724491 0 35836.02216854 0 -22763.48187141 0 105
0.01150000 0.01145670 79950.15726450 0 7639.63838907 0 12849.54367529 0 -5883.62303446 0 -42018.14400778 0 144
0.01250000 0.01249090 68501.48412526 0 3075.88076230 0 10648.81946666 0 -15013.96173084 0 -21949.99816698 0 169
0.01350000 0.01339930 63367.13638361 0 6746.45609060 0 9867.41228723 0 -36012.62574940 0 -16025.41860302 0 180
0.01450000 0.01448870 64022.83945937 0 8512.28152500 0 36201.85178055 0 -25999.92241590 0 -37831.80871710 0 267
0.01550000 0.01550050 67953.40404674 0 2482.84704501 0 52415.05701249 0 -19845.59211195 0 -17856.89185127 0 238
0.01650000 0.01653350 62167.67143601 0 -7535.93499482 0 44363.26240437 0 9222.53794514 0 -10757.64934730 0 315
0.01750000 0.01747870 71398.00429782 0 -6993.06998129 0 42427.70930283 0 23630.44490471 0 -16674.47828389 0 297
0.01850000 0.01844180 80572.53264255 0 -10054.61208294 0 40720.57826229 0 29320.62335226 0 -7920.34396787 0 388
0.01950000 0.01947590 78897.73279048 0 2668.37491967 0 41468.95669678 0 29995.03865696 0 -821.62518487 0 399
0.02050000 0.02045430 73830.26189073 0 8638.27350911 0 19161.32243816 0 16635.83587027 0 7008.67088695 0 462
0.02150000 0.02154770 68265.31143688 0 6499.63182574 0 27931.48948051 0 -3226.73011562 0 27938.13287540 0 571
0.02250000 0.02255340 65561.78188591 0 4598.90118575 0 18671.03989519 0 -7601.12884335 0 15512.43779417 0 510
0.02350000 0.02348930 65616.92206351 0 15.55041587 0 34529.26639344 0 -8978.61462939 0 34009.86363620 0 555
0.02450000 0.02439640 67383.84365807 0 615.33448670 0 36018.82625130 0 -393.34987534 0 30016.85113685 0 592
0.02550000 0.02547300 65450.28357499 0 3036.09789922 0 42353.85689629 0 5630.90829280 0 24457.76901516 0 837
0.02650000 0.02652900 67222.40916221 0 -162.25495512 0 44030.42832033 0 10784.62153056 0 25551.16109100 0 723
0.02750000 0.02749970 61669.74898891 0 545.57884035 0 38789.67553716 0 15414.77988927 0 19712.50276763 0 826
0.02850000 0.02848090 68713.74059204 0 -1079.72329085 0 32997.85314778 0 9264.87851525 0 26537.81595559 0 831
0.02950000 0.02946900 63684.57993616 0 41.79924415 0 31801.37772788 0 8535.89879384 0 21889.87544322 0 996
0.03050000 0.03053250 65931.81898135 0 3696.89424440 0 25578.28828680 0 2793.04929713 0 21959.18819658 0 1041
0.03150000 0.03150510 60006.35363141 0 3681.64765312 0 29764.84502398 0 4453.47727158 0 20874.43253410 0 1036
0.03250000 0.03246190 57149.36165845 0 5076.55020610 0 22217.39481135 0 3393.73399086 0 19768.30728471 0 1059
0.03350000 0.03345080 55904.83234883 0 723.89198816 0 21282.77987341 0 6201.34339513 0 11545.99887439 0 1302
0.03450000 0.03451200 52877.54802017 0 723.76797812 0 15271.06111313 0 3741.40499017 0 3361.40280239 0 1339
0.03550000 0.03553350 53631.46261707 0 606.07027253 0 16124.84807989 0 384.91719276 0 3883.28576040 0 1365
0.03650000 0.03647120 50542.50543916 0 1638.40512039 0 12307.44265217 0 2332.77275442 0 625.20103535 0 1308
0.03750000 0.03744890 49484.65552599 0 440.26331560 0 12192.73336705 0 -886.20451937 0 711.32379225 0 1579
0.03850000 0.03847530 48766.50453825 0 555.43431667 0 12292.82718341 0 845.33546123 0 -3107.42581570 0 1662
0.03950000 0.03950240 49759.58135124 0 -993.89062886 0 13619.18097343 0 -118.19042404 0 -4507.51021670 0 1683
0.04050000 0.04050350 49246.04692615 0 636.63763966 0 14457.35596220 0 -461.12357556 0 -4154.67951403 0 1822
0.04150000 0.04152450 47692.48903084 0 3437.58039715 0 18301.55641599 0 -3515.00916460 0 457.00356349 0 1887
0.04250000 0.04250150 47351.79359617 0 4326.36698266 0 22260.35543165 0 -1109.57981473 0 3872.00306141 0 1920
0.04350000 0.04349210 43251.15809959 0 3278.10570278 0 25567.54813173 0 1255.36911561 0 6946.47763845 0 2005
0.04450000 0.04448520 41076.99639820 0 2234.82696907 0 25882.99866581 0 3670.69712388 0 9114.67135676 0 2151
0.04550000 0.04548030 39755.07153810 0 1799.91712252 0 24595.06584291 0 4354.11422866 0 3818.84482995 0 2274
0.04650000 0.04648670 39307.52816893 0 688.07191014 0 25601.98306191 0 4351.52330465 0 8984.48296154 0 2311
0.04750000 0.04749250 38332.72069190 0 499.81249294 0 22845.97069131 0 1167.15590378 0 7106.20699628 0 2568
0.04850000 0.04851840 37875.87656988 0 757.27172579 0 22057.06754798 0 243.59446771 0 3438.77620823 0 2493
0.04950000 0.04949480 39132.36399030 0 -966.75568243 0 22213.40877442 0 718.36025468 0 3488.11448762 0 2644
0.05050000 0.05050630 38506.22402181 0 -1250.48622037 0 19358.52054318 0 56.54735936 0 -1094.65985703 0 2829
0.05150000 0.05149060 38765.42714581 0 1643.12193076 0 18681.55860376 0 489.48090665 0 -4718.43800449 0 2784
0.05250000 0.05249300 38636.87745467 0 945.30969648 0 16800.92423332 0 -697.66165066 0 -3810.15305497 0 3055
0.05350000 0.05348950 37075.01531575 0 1635.30486944 0 16922.94125282 0 4117.76438308 0 -873.21557513 0 3009
0.05450000 0.05448610 35643.91733294 0 122.10006194 0 14627.20542492 0 3846.45920805 0 45.83112051 0 3336
0.05550000 0.05550870 36463.38009277 0 -895.87398063 0 11854.03095084 0 3646.92484249 0 -3805.93449921 0 3349
0.05650000 0.05647670 37677.23906263 0 -470.32578472 0 16831.04095682 0 3003.97708492 0 220.01263031 0 3324
0.05750000 0.05747970 36613.18864756 0 310.65732467 0 13200.20420229 0 332.27603888 0 1174.80688023 0 3639
0.05850000 0.05849280 36703.20664834 0 460.26657762 0 15231.97580652 0 714.56244726 0 6741.30745956 0 3846
0.05950000 0.05951020 36305.26729436 0 370.86862703 0 14606.05728452 0 344.53310245 0 4861.14919908 0 3787
0.06050000 0.06049470 36784.80968225 0 367.86913424 0 15708.86083645 0 2578.25726797 0 6728.61857532 0 3930
0.06150000 0.06148310 35010.58035331 0 944.30654386 0 13951.23999474 0 1799.95033949 0 6509.40868856 0 4083
0.06250000 0.06249100 34883.91295739 0 1382.20259641 0 12183.10044445 0 1673.18329264 0 7009.35737109 0 4303
0.06350000 0.06350600 34051.60630077 0 998.73698543 0 12798.05736488 0 541.47765123 0 6668.87231060 0 4470
0.06450000 0.06451750 33416.49774917 0 43.58332784 0 12822.63792598 0 -13.22113090 0 3869.76645179 0 4479
0.06550000 0.06550280 33012.13644679 0 919.22440644 0 11567.47918454 0 36.21635653 0 919.71601767 0 4636
0.06650000 0.06648880 32071.32100695 0 259.55190224 0 11832.21847095 0 -2157.66393741 0 1307.30939134 0 4653
0.06750000 0.06749660 31444.07380598 0 175.25165000 0 11372.60626773 0 1054.92128326 0 -905.99076382 0 5220
0.06850000 0.06852730 31274.22434326 0 53.11659951 0 11038.88639769 0 1411.88749925 0 -3143.31122044 0 5029
0.06950000 0.06949320 30790.47447193 0 756.47894733 0 10637.83572044 0 160.61292935 0 -5338.73178548 0 5040
0.07050000 0.07048030 29807.36275129 0 1988.94385182 0 9912.11126252 0 -764.35137028 0 -4620.58079774 0 5475
0.07150000 0.07148790 27765.62605473 0 2188.61108528 0 9675.37388558 0 -900.69929979 0 -3769.38475499 0 5509
0.07250000 0.07249820 27121.10602703 0 1449.92093500 0 10649.02984083 0 -125.62106123 0 -3205.82556637 0 5916
0.07350000 0.07351270 25754.67042116 0 725.55726581 0 10272.11683168 0 136.73988981 0 -1482.17461720 0 5721
0.07450000 0.07449140 25904.36825271 0 584.40284009 0 11186.59121077 0 1945.69535108 0 312.27831302 0 6028
0.07550000 0.07549160 24920.92436232 0 7.06600338 0 9782.10002450 0 2057.71406127 0 1217.24710126 0 6183
0.07650000 0.07648840 25277.23177498 0 184.27338026 0 10714.55585911 0 2684.76196040 0 2370.17506765 0 6330
0.07750000 0.07749960 25033.41918248 0 -81.24141178 0 10308.92123938 0 2066.45012555 0 1626.46915424 0 6583
0.07850000 0.07848650 24789.05297373 0 138.15382569 0 10106.58557564 0 1145.28806227 0 4737.74813898 0 6549
0.07950000 0.07947320 24662.60702430 0 147.51326186 0 9863.26016542 0 -812.39529490 0 2592.58485629 0 6828
0.08050000 0.08048110 24733.02701015 0 394.93321779 0 9973.36336342 0 279.03255052 0 3116.85943645 0 7147
0.08150000 0.08149960 24396.64978216 0 625.26968376 0 10062.60630146 0 -958.85557867 0 2935.14044153 0 7386
0.08250000 0.08250610 23714.26240358 0 1290.78948271 0 9616.30303267 0 220.29054566 0 2599.94795229 0 7227
0.08350000 0.08350160 22972.19519424 0 379.42753412 0 10001.64208101 0 511.23359599 0 2148.19709969 0 7798
0.08450000 0.08449610 22352.92006713 0 329.83680572 0 9489.29239467 0 965.44471917 0 2054.00483246 0 7371
0.08550000 0.08548940 22225.92050146 0 118.44065859 0 9133.01819899 0 1662.85281359 0 1127.38411303 0 8256
0.08650000 0.08650700 21936.26848421 0 229.81495947 0 8671.51262822 0 1661.22518184 0 1384.33955510 0 8037
0.08750000 0.08749060 21199.18382103 0 1150.40347633 0 7245.79579527 0 536.62575850 0 1991.94445185 0 8155
0.08850000 0.08849210 20718.97709364 0 421.07719116 0 7123.98914994 0 656.67411865 0 1339.82880933 0 8718
0.08950000 0.08949900 19974.58469609 0 202.73537466 0 6683.24418821 0 179.09374671 0 3240.10548401 0 8571
0.09050000 0.09049190 20145.20922154 0 457.89156395 0 6383.19525795 0 403.56188053 0 503.39328279 0 8932
0.09150000 0.09150830 19480.31611618 0 99.65479868 0 7094.88000799 0 41.50615971 0 1810.05937205 0 9285
0.09250000 0.09250820 19717.70676029 0 359.48738435 0 6895.86604170 0 -423.30605014 0 1710.20914684 0 9204
0.09350000 0.09350330 19292.52948726 0 296.24780115 0 7178.43177107 0 214.75327602 0 2358.38304172 0 9349
0.09450000 0.09448040 19380.99736256 0 -106.29730779 0 8322.46866064 0 -164.15053713 0 2269.87087712 0 9564
0.09550000 0.09549270 19095.44210549 0 78.42638392 0 8156.85989832 0 693.62025210 0 2120.64915554 0 10155
0.09650000 0.09649430 19679.50723967 0 30.88082464 0 8070.24110127 0 218.04286372 0 1731.89983116 0 9913
0.09750000 0.09749140 19077.83710902 0 302.09509589 0 7891.36769382 0 150.91910898 0 2348.86084238 0 10476
0.09850000 0.09850240 19212.80874856 0 354.09405493 0 7738.75784085 0 225.60415434 0 2285.41642117 0 10575
0.09950000 0.09950330 18597.18748865 0 609.71971079 0 7573.90199662 0 743.45346441 0 2138.58632175 0 10882
0.10050000 0.10051200 18198.14090218 0 473.78920792 0 7073.27790227 0 1223.70226663 0 2239.06766948 0 10875
0.10150000 0.10150300 17563.03235058 0 205.71604450 0 5933.94675076 0 1528.23548844 0 1807.16949528 0 11118
0.10250000 0.10250800 17542.88071942 0 353.10197463 0 5996.25072251 0 442.42684787 0 2491.54989232 0 11575
0.10350000 0.10349800 16785.09080883 0 660.74762695 0 5076.12945776 0 891.15606303 0 2153.96578092 0 11364
0.10450000 0.10450100 16558.55104304 0 209.73529841 0 5082.36317663 0 115.27618815 0 2633.74068764 0 12093
0.10550000 0.10551000 16222.72743129 0 297.42368205 0 5011.99855241 0 215.14855802 0 2093.78769553 0 12067
0.10650000 0.10649700 15929.86443983 0 325.76994081 0 5004.66867338 0 -308.37310406 0 1169.55859827 0 12054
0.10750000 0.10749900 15705.87130875 0 410.41564959 0 5434.58490144 0 -290.17020206 0 1175.36049647 0 12807
0.10850000 0.10850100 15644.97352225 0 155.27496156 0 5378.52572088 0 -108.07397303 0 1884.98579410 0 12736
0.10950000 0.10950300 15571.23183896 0 29.17015046 0 5528.01317826 0 -348.48370795 0 1193.80698962 0 12933
0.11050000 0.11050200 15435.70658318 0 198.85673928 0 5658.16835650 0 212.73036228 0 929.90809266 0 13428
0.11150000 0.11150900 15280.47258922 0 361.87347035 0 5649.54301547 0 -77.03558920 0 692.69017682 0 13453
0.11250000 0.11250000 14958.04649050 0 221.49300014 0 5574.68302737 0 396.13235057 0 1044.05268922 0 13668
0.11350000 0.11349100 14976.09437996 0 73.18208800 0 5342.26385710 0 651.82333314 0 562.30801591 0 13791
0.11450000 0.11448600 14613.03284915 0 37.53983151 0 5125.71132830 0 244.23998424 0 1146.97105564 0 14205
0.11550000 0.11549300 14719.77006040 0 255.79174073 0 4770.54436509 0 684.62288095 0 -0.60441717 0 14776
0.11650000 0.11649800 14371.10255187 0 52.85186023 0 4523.57616001 0 137.19053343 0 1059.00475665 0 14553
0.11750000 0.11747300 14451.93052304 0 -120.38495882 0 4292.81783846 0 -3.33329017 0 502.10667864 0 14568
0.11850000 0.11849100 14491.90161564 0 114.94955457 0 4582.27055387 0 493.57102344 0 868.72796188 0 16015
0.11950000 0.11950300 14322.82721566 0 180.18437070 0 4481.06950503 0 489.89390437 0 787.63314767 0 15270
0.12050000 0.12050700 14168.25756119 0 187.81098804 0 4073.59687938 0 -54.32625100 0 669.45490318 0 15999
0.12150000 0.12150000 14077.24305118 0 328.69192733 0 4487.97863572 0 290.88879594 0 756.77347117 0 15670
0.12250000 0.12250700 13737.32267925 0 349.90207276 0 3997.79574367 0 -381.46594912 0 1066.62583782 0 16887
0.12350000 0.12352200 13619.07025018 0 180.93839602 0 4330.96199746 0 -38.71172637 0 1017.02071540 0 16407
0.12450000 0.12449800 13599.02934226 0 206.14122178 0 4389.35743856 0 440.29763981 0 784.97136079 0 16306
0.12550000 0.12549900 13600.35802124 0 141.25186218 0 4647.46440240 0 178.76932759 0 1362.12847151 0 17523
0.12650000 0.12650100 13349.45914085 0 228.04228027 0 4580.83115165 0 -127.51996494 0 1255.23624772 0 17154
0.12750000 0.12750600 13336.72596731 0 33.63296170 0 5255.62291539 0 -203.02657680 0 1563.55620462 0 18007
0.12850000 0.12850300 13207.62265992 0 188.32695838 0 5041.73881687 0 209.80948299 0 1848.13709710 0 17496
0.12950000 0.12949900 13285.68254989 0 186.86762596 0 5589.97390794 0 336.37169183 0 2239.31126062 0 18405
0.13050000 0.13049000 12946.42651745 0 66.78638101 0 5022.45082704 0 609.59570075 0 2439.73141216 0 18100
0.13150000 0.13148800 13116.16525692 0 67.69143284 0 4826.76963052 0 956.20707857 0 2361.39471407 0 19059
0.13250000 0.13249300 12819.20550528 0 -23.44276900 0 4290.35978235 0 641.83720339 0 2280.15706688 0 18957
0.13350000 0.13349100 12678.25481034 0 428.66505535 0 4259.49014076 0 261.57703045 0 2107.78311410 0 19468
0.13450000 0.13450700 12285.40872578 0 407.15152823 0 4134.64967843 0 -431.28144571 0 1904.10769906 0 19953
0.13550000 0.13551000 11938.40206596 0 436.23741830 0 3982.34985055 0 -169.26041504 0 1546.32766720 0 19956
0.13650000 0.13649900 11822.25337861 0 133.38718986 0 4071.18311257 0 -506.47471078 0 1061.36980523 0 19723
0.13750000 0.13749600 11653.28970188 0 76.38420433 0 4079.99668312 0 -105.20668379 0 904.53696757 0 20946
0.13850000 0.13851100 11562.60736162 0 152.02523422 0 4286.75020446 0 302.55570460 0 196.91354627 0 20955
0.13950000 0.13949800 11401.94792850 0 187.72019498 0 3842.80534086 0 -154.22862686 0 439.42071168 0 20506
0.14050000 0.14048300 11096.90537974 0 392.15295703 0 3977.59982320 0 226.02379545 0 31.99979379 0 21447
0.14150000 0.14148400 10945.43597622 0 225.20997958 0 3902.47409931 0 13.28856135 0 272.13892109 0 21771
0.14250000 0.14249400 10679.29050456 0 10.37595309 0 3792.47055223 0 462.25295269 0 383.84207002 0 22470
0.14350000 0.14350900 10854.73149131 0 -155.39122097 0 3514.31160814 0 512.50137718 0 336.16796105 0 22519
0.14450000 0.14449900 10794.16587455 0 -49.54821067 0 3387.54456129 0 509.61925103 0 30.18061082 0 22218
0.14550000 0.14550500 10873.10047818 0 71.42911753 0 3240.89161907 0 142.48753363 0 -2.40686875 0 23559
0.14650000 0.14650700 10655.69538037 0 299.91163343 0 3108.23409542 0 149.35126778 0 257.35293853 0 23044
0.14750000 0.14750500 10550.55258389 0 217.95982129 0 3019.14616992 0 -23.44819444 0 4.23923886 0 23649
0.14850000 0.14849900 10356.68724864 0 227.16756661 0 3237.34847513 0 -494.51327828 0 197.42840938 0 23640
0.14950000 0.14949500 10222.60139509 0 274.41539107 0 3536.27910058 0 -394.98525772 0 -191.76270077 0 24457
0.15050000 0.15050000 10088.09479319 0 139.08832991 0 3507.96716602 0 -505.35529875 0 -312.14433789 0 24591
0.15150000 0.15149900 10031.80309381 0 36.63234377 0 3719.53714865 0 -28.07653694 0 -221.84177837 0 25020
0.15250000 0.15250500 10144.30898630 0 181.44661573 0 3908.81854143 0 191.92546394 0 -296.26773133 0 25297
0.15350000 0.15350100 9929.80483758 0 77.98061213 0 3654.48724034 0 408.23993776 0 -649.96318257 0 25452
0.15450000 0.15450400 9762.88954094 0 84.33922682 0 3283.11039360 0 461.86431409 0 -474.25646003 0 26061
0.15550000 0.15549900 9679.88032178 0 91.86873987 0 3133.50114065 0 495.23519386 0 -367.49156796 0 26128
0.15650000 0.15649500 9602.83908569 0 59.91389972 0 2571.65816238 0 624.75149896 0 -563.77399172 0 26331
0.15750000 0.15749700 9512.18996240 0 67.95993672 0 2489.52365687 0 446.21026126 0 -304.54761583 0 27345
0.15850000 0.15849900 9396.25164922 0 56.37750990 0 2293.56565223 0 96.82471246 0 -134.13789348 0 26980
0.15950000 0.15949700 9349.89182521 0 131.43846069 0 2430.29779142 0 176.65672802 0 72.41134347 0 27777
0.16050000 0.16050000 9218.31938939 0 185.23445805 0 2425.55883640 0 16.57637749 0 115.20975420 0 28224
0.16150000 0.16150500 9056.14304777 0 176.98668330 0 2450.08403587 0 127.69822937 0 670.58981648 0 28075
0.16250000 0.16249700 8897.65379032 0 112.62768806 0 2548.14054446 0 366.09202611 0 881.81766428 0 28590
0.16350000 0.16349900 8967.55337690 0 58.43319772 0 2468.43087809 0 416.77227127 0 1201.50225537 0 29163
0.16450000 0.16449100 8940.32653017 0 -12.52235648 0 2272.06319744 0 448.58970387 0 1495.09602026 0 28996
0.16550000 0.16550500 8875.19911558 0 83.67688035 0 2201.45498207 0 173.75356445 0 1330.35089929 0 30777
0.16650000 0.16650700 8938.46637960 0 164.83148511 0 2360.52000041 0 -49.27904245 0 1472.71885180 0 29211
0.16750000 0.16749900 8707.65269643 0 128.36035439 0 2270.43556569 0 -206.36377550 0 1223.59154338 0 30922
0.16850000 0.16850800 8634.75250982 0 200.31496446 0 2285.17283002 0 -256.58894811 0 1454.67096235 0 30867
0.16950000 0.16949900 8557.13551284 0 30.30351363 0 2362.15870449 0 4.35564221 0 1146.95998331 0 30852
0.17050000 0.17049200 8474.59133132 0 38.87116785 0 2257.79097074 0 176.18836868 0 813.08842243 0 31257
0.17150000 0.17149500 8554.40064861 0 39.88218183 0 2258.08992351 0 -31.04126263 0 782.64506534 0 32608
0.17250000 0.17250900 8531.58058716 0 97.16784380 0 2140.60148486 0 115.23854225 0 758.68566167 0 32361
0.17350000 0.17350400 8280.23881378 0 161.70133888 0 1865.90817844 0 32.58994870 0 727.14060826 0 32508
0.17450000 0.17449800 8254.09705488 0 152.72389792 0 2070.84583851 0 5.55311414 0 551.55789575 0 32791
0.17550000 0.17549800 8150.53760085 0 120.13693875 0 2049.37660068 0 35.97298683 0 512.68739224 0 33633
0.17650000 0.17650100 7988.56056108 0 149.88606107 0 2124.24766111 0 98.35003592 0 419.40305564 0 33984
0.17750000 0.17750300 7914.26526155 0 90.92748154 0 2102.82271258 0 150.32784683 0 463.98355706 0 34069
0.17850000 0.17849800 7766.10648315 0 126.24221865 0 2086.13671908 0 3.01241420 0 472.32987551 0 34536
