### header ###
fiducial parameters:
Omega_m = 0.31
Omega_nu = 0
Omega_de = 0.69
Omega_k = 0
H_0 = 100
w_de = -1
zeff = 0
beta = 0
fgrowth = 0
b_1 = 2
gamma = 0.55
Lx = 3500 Ly = 3500 Lz = 3500
nx = 700 ny = 700 nz = 700
xoffset = -685.467585 yoffset = -31.7331281 zoffset = 572.489161
bins = 400 dk = 0.001
kx_ny = 0.628318531 ky_ny = 0.628318531 kz_ny = 0.628318531
############################
A(data) = 8.04823462 (not used)
A(ran) = 8.05068891 (used)
Ngal = 478934
weighted Ngal = 0
Nran = 23820508
weighted Nran = 0
SN(data) = 3483.90528
SN(ran) = 70.1244201
SN(data+ran) = 3554.0297
############################
13 columns: k_central k_mean P_0(k) sigma^{lin}_{P_0(k)} P^img_1(k) sigma^{lin}_{P_1(k)} P_2(k) sigma^{lin}_{P_2(k)} P^img_3(k) sigma^{lin}_{P_3(k)} P_4(k) sigma^{lin}_{P_4(k)} N_modes
### header ###
0.00050000 0 0 0 0 0 0 0 0 0 0 0 0
0.00150000 0.00179520 12381.07361221 0 -14001.06545643 0 -71.50108764 0 -23672.40901577 0 -77325.79483598 0 3
0.00250000 0.00253879 17719.81647002 0 -5073.30601493 0 -4211.40303407 0 42829.30252400 0 36036.76341750 0 6
0.00350000 0.00331552 46413.30334455 0 -35115.87816234 0 -506.26655108 0 -35329.68475458 0 -45358.55368232 0 7
0.00450000 0.00420575 58095.15964446 0 -33992.25863974 0 -10908.80872572 0 4181.33059986 0 4647.15437731 0 24
0.00550000 0.00557378 87722.81856394 0 10426.22144850 0 1283.24922951 0 -26780.07842262 0 -9158.88314976 0 45
0.00650000 0.00659388 63670.07519065 0 9516.00991446 0 -10843.70345579 0 -20465.64230179 0 43070.78992829 0 40
0.00750000 0.00754703 72578.75701648 0 -1890.42230559 0 5685.41734788 0 10896.46308355 0 26950.48150158 0 57
0.00850000 0.00846663 61833.95156597 0 -12223.95732303 0 -3458.48494640 0 22466.85428952 0 5515.03641357 0 75
0.00950000 0.00948925 73447.60234500 0 -7637.29105621 0 3553.59621660 0 12642.71264767 0 -30343.37399576 0 112
0.01050000 0.01054430 89763.33730477 0 -797.24614008 0 -13389.09806370 0 -7456.16996683 0 9351.23157651 0 105
0.01150000 0.01145670 81958.12337036 0 8445.47111705 0 6481.81645511 0 -24382.03431340 0 5522.53237747 0 144
0.01250000 0.01249090 77556.65280845 0 5904.93725973 0 8772.61402614 0 -16532.19890997 0 29598.98159820 0 169
0.01350000 0.01339930 68962.64645396 0 -1717.33972402 0 23554.26730995 0 2453.20643147 0 16971.54875877 0 180
0.01450000 0.01448870 83657.17161378 0 -1500.92006312 0 22888.26697211 0 13627.15304730 0 8788.59139085 0 267
0.01550000 0.01550050 83732.24197605 0 2743.37884799 0 36858.99425854 0 25404.78495689 0 25316.87069783 0 238
0.01650000 0.01653350 83616.64690494 0 557.96766459 0 19246.35789276 0 11784.60747423 0 8814.09095491 0 315
0.01750000 0.01747870 82926.39817575 0 -5386.55315637 0 22111.87555583 0 6583.02857628 0 6507.70355054 0 297
0.01850000 0.01844180 82426.15054044 0 5910.57307307 0 36146.04726346 0 -9227.38762341 0 -10432.47731203 0 388
0.01950000 0.01947590 83783.94973295 0 7451.81854317 0 44406.99808741 0 -7508.32061672 0 11844.06585851 0 399
0.02050000 0.02045430 72908.93374257 0 7090.44000574 0 37635.71784456 0 1656.59695007 0 14345.63620478 0 462
0.02150000 0.02154770 73241.54638013 0 1100.85703723 0 35351.16506473 0 19584.94958572 0 11494.06967099 0 571
0.02250000 0.02255340 76778.37909695 0 -7967.68922880 0 27359.60390363 0 21658.90674750 0 -2602.41708072 0 510
0.02350000 0.02348930 76646.39698511 0 -626.38909580 0 23246.45668000 0 15335.94493656 0 -2944.87301504 0 555
0.02450000 0.02439640 80301.48213099 0 -888.61053555 0 18475.28119239 0 2870.62200481 0 -80.30402877 0 592
0.02550000 0.02547300 73539.72408749 0 3837.78957772 0 16704.37356090 0 -6736.15882852 0 -1832.95693978 0 837
0.02650000 0.02652900 71055.75873768 0 6837.55917921 0 14212.43613721 0 -5720.23980943 0 5168.53908069 0 723
0.02750000 0.02749970 67923.39804648 0 1663.87146747 0 23744.48985034 0 -1072.45430961 0 -232.17668635 0 826
0.02850000 0.02848090 64192.57819884 0 1333.96047718 0 13577.54903211 0 2861.28803498 0 -4728.80170052 0 831
0.02950000 0.02946900 65599.53851354 0 1058.38359923 0 21679.05837867 0 838.53483933 0 -12348.18880750 0 996
0.03050000 0.03053250 62835.11117607 0 3100.60526362 0 17339.37138925 0 -5041.87168477 0 -10557.99318617 0 1041
0.03150000 0.03150510 61744.15501169 0 2264.61152283 0 16687.21145743 0 844.02892690 0 -9828.81416291 0 1036
0.03250000 0.03246190 59040.51473748 0 2635.21330684 0 17829.76465547 0 -1204.95682071 0 -8853.54164824 0 1059
0.03350000 0.03345080 56752.19736721 0 2408.61817942 0 16157.51143811 0 1917.06231910 0 -6075.75001471 0 1302
0.03450000 0.03451200 55084.48380302 0 783.49984882 0 18358.35744231 0 2548.95989650 0 -12662.19993936 0 1339
0.03550000 0.03553350 54106.35462854 0 2328.69813888 0 18671.37206493 0 -182.00798260 0 -3090.50730338 0 1365
0.03650000 0.03647120 51195.32971047 0 3595.06207304 0 14401.21927537 0 534.58402180 0 -6345.88152331 0 1308
0.03750000 0.03744890 53350.33628992 0 1478.08892934 0 19180.47756009 0 2172.33476779 0 -1762.30443511 0 1579
0.03850000 0.03847530 49756.70254678 0 -485.55023134 0 15502.58342508 0 1578.34883057 0 -1317.87238921 0 1662
0.03950000 0.03950240 50549.37028055 0 -722.41383279 0 14431.66816862 0 2136.90332837 0 -933.96499248 0 1683
0.04050000 0.04050350 52687.54692628 0 -429.13230746 0 17501.58094784 0 -433.61881348 0 83.91571040 0 1822
0.04150000 0.04152450 50711.13694615 0 646.95372469 0 16339.54045812 0 7450.09126050 0 2770.36210357 0 1887
0.04250000 0.04250150 48502.20814483 0 2966.60798866 0 16260.15188917 0 2017.82047495 0 4977.03215063 0 1920
0.04350000 0.04349210 45912.05920001 0 4464.13992038 0 13656.71615457 0 2356.30144466 0 4357.59093865 0 2005
0.04450000 0.04448520 42887.65367579 0 2542.06183814 0 14297.13942208 0 -753.77287114 0 7820.91449100 0 2151
0.04550000 0.04548030 41496.30533908 0 153.05385320 0 12581.15052168 0 1274.61281615 0 3737.45217021 0 2274
0.04650000 0.04648670 41943.73798500 0 -692.94926922 0 16276.98182290 0 -824.37333589 0 7405.08226011 0 2311
0.04750000 0.04749250 43017.75349241 0 -398.17298004 0 15867.74869760 0 1261.81320866 0 2663.45880745 0 2568
0.04850000 0.04851840 41137.89418470 0 2206.93578285 0 14789.96859976 0 373.57691768 0 973.19313208 0 2493
0.04950000 0.04949480 40787.23365770 0 2224.80651511 0 15172.84959198 0 -304.87535665 0 5082.30781501 0 2644
0.05050000 0.05050630 39082.42780537 0 1754.55380774 0 15239.72643389 0 -48.55734832 0 1443.43255266 0 2829
0.05150000 0.05149060 38581.40510732 0 759.69656492 0 14697.73613402 0 -4.23595038 0 2399.38386053 0 2784
0.05250000 0.05249300 38293.41393879 0 -235.89145133 0 16428.67267291 0 1512.85602927 0 2666.91337279 0 3055
0.05350000 0.05348950 37995.78984767 0 568.46755021 0 15239.28354090 0 603.36973250 0 320.75639214 0 3009
0.05450000 0.05448610 37493.43847064 0 758.05675362 0 14118.54282275 0 3416.63155859 0 255.90246398 0 3336
0.05550000 0.05550870 37298.78700033 0 825.33773538 0 13807.96411159 0 2963.70703956 0 -140.64620601 0 3349
0.05650000 0.05647670 33986.50103083 0 1900.25453003 0 10929.52504546 0 2596.88091832 0 -349.90871615 0 3324
0.05750000 0.05747970 33938.55786437 0 1117.79547974 0 10124.31236767 0 3670.74141318 0 1022.43729671 0 3639
0.05850000 0.05849280 32650.84648796 0 -93.57454223 0 10548.73672262 0 1437.03274891 0 980.62487649 0 3846
0.05950000 0.05951020 32747.72933012 0 198.44927772 0 9346.16045174 0 645.34491589 0 1582.33486751 0 3787
0.06050000 0.06049470 32434.49326101 0 -566.03496045 0 8948.84114795 0 -480.30859277 0 362.52784475 0 3930
0.06150000 0.06148310 32653.17167617 0 -80.29904622 0 9454.30384825 0 -457.75315988 0 23.88156523 0 4083
0.06250000 0.06249100 33602.62352937 0 111.05320347 0 10459.39413366 0 -2099.82211256 0 150.43967731 0 4303
0.06350000 0.06350600 33688.87693971 0 482.86408534 0 10634.49187834 0 -1043.01078345 0 -166.18895213 0 4470
0.06450000 0.06451750 32463.72419853 0 1041.12184484 0 10756.01064323 0 -256.77939210 0 77.22547957 0 4479
0.06550000 0.06550280 32458.63092911 0 737.20645875 0 10593.13674514 0 1665.56553317 0 -2356.12428746 0 4636
0.06650000 0.06648880 31178.89162657 0 158.31874365 0 9177.24106431 0 702.37071041 0 -2414.22077578 0 4653
0.06750000 0.06749660 31539.84941566 0 870.06549871 0 10125.12064739 0 662.65760298 0 -3238.84323898 0 5220
0.06850000 0.06852730 29826.96076621 0 1033.26160145 0 9005.79718682 0 4.46913354 0 -1947.22333191 0 5029
0.06950000 0.06949320 29837.03658180 0 1116.75468121 0 9307.80591857 0 -46.71557781 0 -145.91773986 0 5040
0.07050000 0.07048030 28732.68290439 0 622.38977208 0 9360.34409984 0 49.50369992 0 -2123.84905741 0 5475
0.07150000 0.07148790 28312.59890077 0 678.22196998 0 10585.40826242 0 1341.45644108 0 -250.03081012 0 5509
0.07250000 0.07249820 27495.23988266 0 908.89171292 0 10242.24369932 0 388.36290025 0 -2337.46742014 0 5916
0.07350000 0.07351270 27111.36238119 0 787.68075867 0 10950.60675191 0 115.05474166 0 -388.64524453 0 5721
0.07450000 0.07449140 26117.95339846 0 341.35645246 0 10262.60570466 0 -268.89140822 0 745.92812901 0 6028
0.07550000 0.07549160 26428.86427937 0 -272.44894619 0 11222.46554319 0 1215.23193815 0 1425.92720712 0 6183
0.07650000 0.07648840 26411.14855966 0 -457.82623723 0 10193.80227824 0 1563.95480831 0 1134.16037582 0 6330
0.07750000 0.07749960 27042.49252082 0 304.31731148 0 10496.35355391 0 750.46335326 0 -509.52513627 0 6583
0.07850000 0.07848650 26197.67413716 0 1422.83802850 0 10186.95958150 0 -204.76825350 0 1358.79570174 0 6549
0.07950000 0.07947320 25062.98228974 0 1006.19530343 0 9914.80183746 0 1006.74006181 0 1604.39093855 0 6828
0.08050000 0.08048110 24738.67389581 0 253.99470241 0 9711.80183423 0 272.12895600 0 3273.74320680 0 7147
0.08150000 0.08149960 24458.32263140 0 85.02294288 0 10584.05743879 0 288.90463533 0 943.33992990 0 7386
0.08250000 0.08250610 24381.14852741 0 1092.76981119 0 11543.45223968 0 -209.07206616 0 2144.84218527 0 7227
0.08350000 0.08350160 23405.12309465 0 1294.37691595 0 11651.96102290 0 -731.13661028 0 2658.73092475 0 7798
0.08450000 0.08449610 22562.40845270 0 360.93342997 0 11752.94062525 0 396.50548792 0 2578.62265469 0 7371
0.08550000 0.08548940 22742.99807049 0 -220.96706471 0 11247.59972053 0 1277.33660805 0 2919.09664286 0 8256
0.08650000 0.08650700 22595.95759690 0 26.66370829 0 10664.49787860 0 1562.70363560 0 182.56602777 0 8037
0.08750000 0.08749060 22188.38532033 0 649.79599047 0 9918.62178952 0 1557.03460530 0 1475.49800533 0 8155
0.08850000 0.08849210 21215.23869202 0 778.51730265 0 8856.29865712 0 302.65203383 0 200.48990719 0 8718
0.08950000 0.08949900 20885.94775191 0 543.93460011 0 8361.55396725 0 1088.32427277 0 930.94335503 0 8571
0.09050000 0.09049190 19783.69781621 0 559.37606430 0 7366.14089372 0 311.03710541 0 243.39405863 0 8932
0.09150000 0.09150830 19729.99704084 0 438.44523987 0 6978.44344020 0 1387.40658908 0 -492.97090344 0 9285
0.09250000 0.09250820 19772.40404490 0 -155.45101152 0 7144.70546968 0 -472.54135691 0 -248.44414598 0 9204
0.09350000 0.09350330 19356.41680146 0 498.67868688 0 7505.50824622 0 -85.72603551 0 -794.72607895 0 9349
0.09450000 0.09448040 19225.32047561 0 416.53200182 0 7506.11722408 0 -273.28712117 0 566.20768872 0 9564
0.09550000 0.09549270 19086.14135264 0 -201.65914469 0 7125.41747984 0 646.07126040 0 279.80429156 0 10155
0.09650000 0.09649430 19873.49437049 0 -349.73488065 0 7684.68060643 0 449.84530550 0 250.45377293 0 9913
0.09750000 0.09749140 19401.70260997 0 373.98880817 0 7255.05225882 0 645.81770416 0 -103.03030763 0 10476
0.09850000 0.09850240 19199.96485177 0 731.29826623 0 7144.46187853 0 -67.52335495 0 559.41149574 0 10575
0.09950000 0.09950330 18551.45878715 0 395.05169167 0 7049.37275299 0 -529.16522604 0 -258.18004119 0 10882
0.10050000 0.10051200 18051.43259834 0 646.74335052 0 7290.17367314 0 125.43393894 0 -300.87271123 0 10875
0.10150000 0.10150300 17392.18637863 0 549.66342097 0 7072.15959747 0 679.11993552 0 -418.43976338 0 11118
0.10250000 0.10250800 17073.41414710 0 403.18542148 0 6334.46595642 0 461.47678272 0 -1189.37805969 0 11575
0.10350000 0.10349800 16474.73354416 0 282.72959978 0 5822.68095866 0 621.43090875 0 -904.34320189 0 11364
0.10450000 0.10450100 16490.45624540 0 -100.05683480 0 5538.16650012 0 1278.88673353 0 -914.28061341 0 12093
0.10550000 0.10551000 16532.08818672 0 -264.67285246 0 4287.64706277 0 769.08921807 0 -1293.04823697 0 12067
0.10650000 0.10649700 16718.76758316 0 21.76509034 0 4603.90587657 0 374.55238950 0 -1328.32466384 0 12054
0.10750000 0.10749900 16184.52791066 0 513.10260442 0 4576.30257079 0 -65.33756731 0 -1560.42273669 0 12807
0.10850000 0.10850100 16044.24155521 0 748.81468409 0 4399.23395229 0 -311.65826283 0 -795.07707165 0 12736
0.10950000 0.10950300 15477.22780125 0 507.02832703 0 4638.16364956 0 63.17613878 0 296.67740735 0 12933
0.11050000 0.11050200 15174.73188720 0 235.34447849 0 4608.95485668 0 797.29818001 0 800.00093449 0 13428
0.11150000 0.11150900 15187.68650724 0 -23.72610979 0 4866.28675780 0 731.70019162 0 466.79371310 0 13453
0.11250000 0.11250000 15299.18481816 0 8.08476799 0 4657.70630286 0 897.80167238 0 1204.64679562 0 13668
0.11350000 0.11349100 15195.10496487 0 47.94837046 0 4725.50214773 0 -116.50743067 0 605.25424219 0 13791
0.11450000 0.11448600 15090.91438833 0 391.83739577 0 5100.41106609 0 -704.04263145 0 1828.43943125 0 14205
0.11550000 0.11549300 14825.28931593 0 579.85432906 0 5481.94123469 0 -609.45729669 0 1331.12596202 0 14776
0.11650000 0.11649800 14449.82678133 0 304.93957613 0 5562.02736010 0 -566.03274598 0 1809.38396024 0 14553
0.11750000 0.11747300 14194.72041750 0 215.00351056 0 5540.85707505 0 970.77936526 0 2191.03592441 0 14568
0.11850000 0.11849100 14200.14585667 0 -102.77763717 0 4913.58772942 0 1351.90871571 0 1559.55909536 0 16015
0.11950000 0.11950300 13962.31231956 0 -27.32926573 0 3883.18610947 0 1179.01436366 0 1049.83465724 0 15270
0.12050000 0.12050700 13767.43940275 0 50.54106604 0 3693.28466651 0 662.83365294 0 558.02966961 0 15999
0.12150000 0.12150000 13926.65943365 0 251.56211265 0 3615.86697138 0 -90.69308042 0 608.80956569 0 15670
0.12250000 0.12250700 13445.34547378 0 203.08415289 0 3513.08258008 0 -618.17896695 0 1029.86018326 0 16887
0.12350000 0.12352200 13363.07810038 0 170.50937328 0 3626.82857295 0 22.21938783 0 1372.19321477 0 16407
0.12450000 0.12449800 13460.29311228 0 34.20274353 0 3921.81745076 0 -22.36089214 0 915.28155158 0 16306
0.12550000 0.12549900 13304.83767183 0 114.80339988 0 3667.03218436 0 204.19138538 0 130.59032061 0 17523
0.12650000 0.12650100 13273.39226935 0 187.98371631 0 3875.60156697 0 -157.53593029 0 -280.27597260 0 17154
0.12750000 0.12750600 13161.11889568 0 80.79087889 0 3827.60303888 0 -391.15866226 0 34.15856496 0 18007
0.12850000 0.12850300 13067.00413473 0 279.26617658 0 3805.14836415 0 51.57887504 0 -484.27248506 0 17496
0.12950000 0.12949900 12909.11278281 0 161.19201194 0 3784.15523629 0 138.65650924 0 214.83521122 0 18405
0.13050000 0.13049000 12726.19797681 0 218.69834535 0 3496.90591352 0 460.25107636 0 3.68193553 0 18100
0.13150000 0.13148800 12471.20233623 0 88.29038593 0 3381.72051844 0 559.78463309 0 312.71124092 0 19059
0.13250000 0.13249300 12571.51759909 0 92.43951821 0 3591.34177190 0 396.73800674 0 514.20762244 0 18957
0.13350000 0.13349100 12371.10851987 0 73.53784179 0 3492.73164707 0 192.20337929 0 1101.92994551 0 19468
0.13450000 0.13450700 12316.30051202 0 272.51980906 0 3513.82442585 0 57.87127724 0 1073.83613575 0 19953
0.13550000 0.13551000 12368.22971542 0 236.19815473 0 3617.19565035 0 -292.74451758 0 834.73149575 0 19956
0.13650000 0.13649900 11894.00204344 0 342.86671757 0 3865.57004069 0 -142.54068079 0 753.61896583 0 19723
0.13750000 0.13749600 11784.16458124 0 320.47847678 0 4011.84652386 0 -268.02223072 0 1124.07348791 0 20946
0.13850000 0.13851100 11565.26471957 0 170.12516361 0 3782.22865178 0 626.45885145 0 1149.05265270 0 20955
0.13950000 0.13949800 11311.15486498 0 48.17789975 0 3354.88120308 0 768.37837481 0 1515.42480863 0 20506
0.14050000 0.14048300 11356.32995024 0 29.89472339 0 3152.68947956 0 1077.84985349 0 929.03116454 0 21447
0.14150000 0.14148400 11271.73738863 0 99.59434379 0 2958.83521664 0 413.31992039 0 1292.74928420 0 21771
0.14250000 0.14249400 11185.26253180 0 122.75111464 0 2908.96546565 0 30.11351253 0 1442.39175413 0 22470
0.14350000 0.14350900 11096.79465650 0 82.59622145 0 3312.57384994 0 -831.57588318 0 1390.80579279 0 22519
0.14450000 0.14449900 11040.73547594 0 260.57166335 0 3423.77320810 0 -684.50440708 0 1168.06383442 0 22218
0.14550000 0.14550500 10928.36245135 0 110.38244203 0 3609.36751671 0 -357.19873481 0 946.10136771 0 23559
0.14650000 0.14650700 10780.31439620 0 181.31485507 0 3439.62877724 0 -82.51018949 0 584.31426149 0 23044
0.14750000 0.14750500 10805.76967096 0 128.19980568 0 3436.10777794 0 297.21441511 0 -74.33095242 0 23649
0.14850000 0.14849900 10504.13739825 0 237.91547231 0 2987.87792464 0 629.54803007 0 -262.61782898 0 23640
0.14950000 0.14949500 10259.17328396 0 192.28863620 0 2707.01733329 0 158.20912764 0 -180.43571248 0 24457
0.15050000 0.15050000 10214.06463265 0 17.46415649 0 2608.78366750 0 549.31464274 0 -295.05752623 0 24591
0.15150000 0.15149900 10093.45379840 0 212.70821763 0 2741.62942067 0 9.79368168 0 -387.04529359 0 25020
0.15250000 0.15250500 9956.48914040 0 147.26634902 0 2629.62178280 0 102.99974801 0 -18.14145060 0 25297
0.15350000 0.15350100 9814.44228530 0 134.51213806 0 2616.68930742 0 128.72131218 0 44.04316149 0 25452
0.15450000 0.15450400 9760.85223318 0 170.31450036 0 2884.09702411 0 -28.85049244 0 297.02397112 0 26061
0.15550000 0.15549900 9580.90481022 0 176.92246381 0 2876.56784323 0 -99.92385617 0 370.77894120 0 26128
0.15650000 0.15649500 9490.99753270 0 88.02431797 0 2659.57242144 0 402.64509203 0 624.01408213 0 26331
0.15750000 0.15749700 9380.78361145 0 150.01892897 0 2651.04673133 0 258.20329307 0 773.32659677 0 27345
0.15850000 0.15849900 9337.56832768 0 80.02832788 0 2441.00472952 0 278.63837576 0 583.37089942 0 26980
0.15950000 0.15949700 9198.34491542 0 121.15669986 0 2607.44391619 0 53.90195951 0 748.75157184 0 27777
0.16050000 0.16050000 9208.65324982 0 84.70649584 0 2192.60819454 0 117.90918699 0 1055.01539802 0 28224
0.16150000 0.16150500 9076.74864426 0 -88.17700533 0 2283.17981155 0 83.94018024 0 840.57657602 0 28075
0.16250000 0.16249700 9195.93114860 0 127.96950132 0 2371.31551711 0 124.70205827 0 761.61096988 0 28590
0.16350000 0.16349900 9028.84976709 0 178.27439467 0 2385.18914011 0 -280.58267600 0 498.95992393 0 29163
0.16450000 0.16449100 8854.49386817 0 234.11434320 0 2237.73899050 0 -171.71736391 0 359.86605786 0 28996
0.16550000 0.16550500 8749.61680749 0 49.47480116 0 2310.69453873 0 74.93494774 0 425.71538802 0 30777
0.16650000 0.16650700 8678.22245706 0 -64.07687240 0 2067.57950269 0 259.57958305 0 225.25869781 0 29211
0.16750000 0.16749900 8729.22158517 0 43.69604411 0 1905.96784963 0 338.02478992 0 -315.36638441 0 30922
0.16850000 0.16850800 8546.01889872 0 178.19467393 0 1800.06106274 0 136.66349077 0 -223.66871196 0 30867
0.16950000 0.16949900 8578.11756837 0 220.22854064 0 1893.32325469 0 -161.26508929 0 -381.38069222 0 30852
0.17050000 0.17049200 8342.69779808 0 158.01204025 0 2061.32363916 0 -239.34712391 0 35.61446495 0 31257
0.17150000 0.17149500 8333.64063638 0 96.43330578 0 2157.60857579 0 36.65393480 0 25.68347537 0 32608
0.17250000 0.17250900 8423.02751464 0 -29.81954231 0 2303.08785158 0 2.41392182 0 -156.58371035 0 32361
0.17350000 0.17350400 8253.55451096 0 37.19005677 0 2314.07159780 0 163.48841211 0 60.24717670 0 32508
0.17450000 0.17449800 8272.45496943 0 207.16651905 0 2298.02779914 0 21.55637702 0 -22.41104977 0 32791
0.17550000 0.17549800 8129.43374975 0 271.03501031 0 2224.45220072 0 -27.90192637 0 36.92498531 0 33633
0.17650000 0.17650100 7835.82891253 0 200.74457066 0 2149.14931962 0 195.74652324 0 332.31479201 0 33984
0.17750000 0.17750300 7857.63032010 0 45.36785444 0 2119.85194815 0 327.50165242 0 400.29333024 0 34069
0.17850000 0.17849800 7692.02155779 0 -71.32636636 0 1725.36715952 0 517.89692107 0 362.34293692 0 34536
