### header ###
fiducial parameters:
Omega_m = 0.31
Omega_nu = 0
Omega_de = 0.69
Omega_k = 0
H_0 = 100
w_de = -1
zeff = 0
beta = 0
fgrowth = 0
b_1 = 2
gamma = 0.55
Lx = 3500 Ly = 3500 Lz = 3500
nx = 700 ny = 700 nz = 700
xoffset = -685.467585 yoffset = -31.7331281 zoffset = 572.489161
bins = 400 dk = 0.001
kx_ny = 0.628318531 ky_ny = 0.628318531 kz_ny = 0.628318531
############################
A(data) = 8.03451954 (not used)
A(ran) = 8.02899786 (used)
Ngal = 477542
weighted Ngal = 0
Nran = 23820508
weighted Nran = 0
SN(data) = 3494.81009
SN(ran) = 69.9354832
SN(data+ran) = 3564.74557
############################
13 columns: k_central k_mean P_0(k) sigma^{lin}_{P_0(k)} P^img_1(k) sigma^{lin}_{P_1(k)} P_2(k) sigma^{lin}_{P_2(k)} P^img_3(k) sigma^{lin}_{P_3(k)} P_4(k) sigma^{lin}_{P_4(k)} N_modes
### header ###
0.00050000 0 0 0 0 0 0 0 0 0 0 0 0
0.00150000 0.00179520 12912.76665000 0 -429.19652695 0 14804.36262202 0 -35212.87172775 0 -95685.70240376 0 3
0.00250000 0.00253879 35719.87348119 0 -14383.17138592 0 -3419.53250769 0 -7544.56033585 0 34045.51652212 0 6
0.00350000 0.00331552 47527.06849805 0 -27472.87378652 0 -13146.17125718 0 6457.01444752 0 7279.88748339 0 7
0.00450000 0.00420575 64460.52845945 0 -23583.27680098 0 -1553.87899272 0 -16448.27068784 0 5089.25016267 0 24
0.00550000 0.00557378 91881.58376582 0 -7451.85176015 0 14093.51936866 0 -24983.15082780 0 -20302.10406422 0 45
0.00650000 0.00659388 72705.86730540 0 14396.45817570 0 18772.90528352 0 -6747.16471939 0 44876.79682946 0 40
0.00750000 0.00754703 83965.97875297 0 8210.84855414 0 15838.62848333 0 -6096.82064884 0 -8488.55353292 0 57
0.00850000 0.00846663 69096.06796803 0 -3603.45489525 0 25640.29330579 0 -1526.81823087 0 -15104.97624085 0 75
0.00950000 0.00948925 89697.67841859 0 -4745.74235749 0 32628.59111508 0 -19020.48246646 0 -44207.36407093 0 112
0.01050000 0.01054430 83334.52406856 0 -4755.38635241 0 18521.45278689 0 -9695.44801047 0 -21299.05619089 0 105
0.01150000 0.01145670 76047.05204267 0 8184.34140852 0 35935.00875242 0 -19953.65800218 0 -19481.75551841 0 144
0.01250000 0.01249090 86130.61825502 0 2730.35779400 0 19318.99234357 0 -1147.72397373 0 -18862.48039130 0 169
0.01350000 0.01339930 88096.95241956 0 -2457.26997468 0 24637.80501671 0 7846.22582554 0 -37037.92302761 0 180
0.01450000 0.01448870 81275.84671503 0 2703.11987495 0 27292.50561523 0 138.02538672 0 -30612.87438184 0 267
0.01550000 0.01550050 83504.15208478 0 3638.97491327 0 29316.74803857 0 -5956.92182476 0 -20959.57871195 0 238
0.01650000 0.01653350 77834.12526840 0 3710.19210651 0 35852.63065577 0 -3659.30370164 0 -16781.99055788 0 315
0.01750000 0.01747870 83724.15917893 0 3937.81696013 0 38858.54539754 0 1056.57770305 0 4268.56944711 0 297
0.01850000 0.01844180 81496.07525568 0 -149.93920823 0 54074.90922606 0 14221.40472032 0 4662.03558187 0 388
0.01950000 0.01947590 84130.73494627 0 -5408.32134697 0 45251.15213158 0 10869.16980287 0 454.51561211 0 399
0.02050000 0.02045430 94288.04284191 0 -969.32224732 0 51944.37248445 0 17998.17471596 0 3449.60494190 0 462
0.02150000 0.02154770 85821.47894608 0 9735.67376654 0 57323.64005110 0 6656.84776584 0 13349.68058735 0 571
0.02250000 0.02255340 79951.59666672 0 13530.93454463 0 52629.63866748 0 4991.51475149 0 26364.97696517 0 510
0.02350000 0.02348930 69609.82383961 0 8782.39088895 0 54509.49797519 0 19328.84671266 0 34664.90237247 0 555
0.02450000 0.02439640 66639.78343026 0 -1760.73216499 0 43334.08981248 0 18891.71132882 0 22022.18972480 0 592
0.02550000 0.02547300 64036.23697240 0 -253.53298646 0 45072.22336251 0 14044.80113946 0 15129.88897169 0 837
0.02650000 0.02652900 65138.48690810 0 3725.53834870 0 33514.04493082 0 7838.53055979 0 19685.59701832 0 723
0.02750000 0.02749970 60940.74712285 0 602.79507885 0 37634.16771909 0 4288.89823548 0 16647.01891834 0 826
0.02850000 0.02848090 61993.94665960 0 6374.97959293 0 41246.51369117 0 -6003.34808272 0 15726.79800266 0 831
0.02950000 0.02946900 56515.58178583 0 6247.02780733 0 39086.41384230 0 1454.94777047 0 15854.79407756 0 996
0.03050000 0.03053250 52335.00410405 0 3627.06109177 0 38555.16369750 0 8379.57971205 0 16279.74990410 0 1041
0.03150000 0.03150510 49903.96446687 0 -928.22731375 0 33494.00402290 0 14292.15687591 0 19843.70981673 0 1036
0.03250000 0.03246190 50390.70386590 0 -2394.72241178 0 29381.63186201 0 14796.39054815 0 3365.38883933 0 1059
0.03350000 0.03345080 50819.09211313 0 -383.29731164 0 19957.31186937 0 9771.69203917 0 6132.82784915 0 1302
0.03450000 0.03451200 50758.52649638 0 -373.23367561 0 10242.12190374 0 6773.60543106 0 -857.47737263 0 1339
0.03550000 0.03553350 48042.59594161 0 990.22236765 0 13502.03577685 0 2003.90256265 0 4498.49734429 0 1365
0.03650000 0.03647120 47295.76763259 0 1100.91461332 0 8809.08626409 0 465.43513884 0 5042.62460286 0 1308
0.03750000 0.03744890 45723.71895484 0 786.43290766 0 7692.84090982 0 3370.14993900 0 3198.22995154 0 1579
0.03850000 0.03847530 46088.66278086 0 440.03411848 0 5980.66088917 0 -2375.17975847 0 -2809.29239764 0 1662
0.03950000 0.03950240 45186.48975464 0 1051.09468780 0 9516.65210930 0 -4817.57960092 0 -272.86637283 0 1683
0.04050000 0.04050350 45509.02657661 0 2207.21259097 0 11768.88477299 0 -4727.03012855 0 175.47752542 0 1822
0.04150000 0.04152450 43711.10247256 0 -293.98461796 0 11744.41493514 0 -2928.03200899 0 -312.88507642 0 1887
0.04250000 0.04250150 45611.99919742 0 373.99323710 0 15684.50172185 0 -957.19251548 0 860.95851155 0 1920
0.04350000 0.04349210 44657.89696780 0 7.02143728 0 14428.23574793 0 3850.16843686 0 -4072.07997088 0 2005
0.04450000 0.04448520 45310.72123911 0 1157.50083654 0 17756.68731166 0 2486.62270777 0 2138.16557340 0 2151
0.04550000 0.04548030 42882.22823663 0 2503.26441197 0 15073.75228486 0 3357.02923409 0 1883.10349888 0 2274
0.04650000 0.04648670 42546.62607138 0 1626.12591217 0 15386.21329124 0 4705.32837191 0 3815.46777088 0 2311
0.04750000 0.04749250 40741.94784919 0 347.48941318 0 13134.98820911 0 3321.40956515 0 6484.34094517 0 2568
0.04850000 0.04851840 39360.78605131 0 724.07135982 0 11418.55641573 0 2229.41260223 0 4365.25298743 0 2493
0.04950000 0.04949480 37599.17917266 0 1449.82128408 0 11058.29618310 0 2457.51356582 0 2644.89051873 0 2644
0.05050000 0.05050630 37475.72275093 0 1117.87298602 0 11110.52433927 0 -1507.20914361 0 124.52822277 0 2829
0.05150000 0.05149060 35378.73515353 0 656.05296122 0 10955.43428554 0 -3043.59386312 0 -2708.65603736 0 2784
0.05250000 0.05249300 36031.67014809 0 653.15311935 0 9584.02720582 0 -2224.39683909 0 -2349.62483279 0 3055
0.05350000 0.05348950 36691.46998403 0 -998.56647163 0 11382.79280656 0 -2272.99327272 0 -1034.85380176 0 3009
0.05450000 0.05448610 37792.72341049 0 -1350.81255555 0 10889.63145914 0 386.94010651 0 -5539.46196212 0 3336
0.05550000 0.05550870 39259.58500247 0 -16.78387285 0 12875.78508511 0 1464.23745099 0 -4363.72500660 0 3349
0.05650000 0.05647670 38342.46433774 0 1449.79913943 0 13038.76970644 0 1881.22120366 0 -5029.92464629 0 3324
0.05750000 0.05747970 37095.72056316 0 2001.66595304 0 13162.00468167 0 -924.16266331 0 -3126.65844391 0 3639
0.05850000 0.05849280 35223.05826658 0 1969.82194686 0 15692.25234923 0 423.16986055 0 59.35640816 0 3846
0.05950000 0.05951020 33837.91043177 0 1432.06127507 0 15378.46266387 0 -283.46480215 0 -1772.20309350 0 3787
0.06050000 0.06049470 34090.47016088 0 21.74648884 0 16264.24864936 0 -484.56368720 0 3950.22903625 0 3930
0.06150000 0.06148310 34215.91960108 0 -175.81301687 0 15870.18460906 0 1635.01698900 0 -191.41392253 0 4083
0.06250000 0.06249100 33520.35615597 0 229.88028619 0 15032.12034354 0 1817.63284223 0 1279.24104792 0 4303
0.06350000 0.06350600 33819.53037257 0 770.53304922 0 15810.50477829 0 935.51511795 0 2083.53472275 0 4470
0.06450000 0.06451750 32641.76718161 0 1167.96418349 0 13627.70666354 0 3022.19105925 0 1586.70843581 0 4479
0.06550000 0.06550280 31676.14973418 0 961.98129596 0 13964.08389153 0 797.38011521 0 1815.94984886 0 4636
0.06650000 0.06648880 31527.33768861 0 427.41056095 0 12386.49905137 0 1060.91141099 0 98.47947140 0 4653
0.06750000 0.06749660 30517.65238840 0 -220.88402227 0 12162.39519704 0 -147.44129175 0 -597.32645762 0 5220
0.06850000 0.06852730 30790.47447193 0 769.01281902 0 11344.15039294 0 -1545.35330261 0 -1825.31703565 0 5029
0.06950000 0.06949320 30072.87710044 0 1088.97089654 0 12525.23528135 0 -703.41593787 0 -367.47495948 0 5040
0.07050000 0.07048030 29173.25070892 0 950.44393350 0 11565.37544282 0 1169.62503222 0 1730.87010495 0 5475
0.07150000 0.07148790 29041.04715059 0 -527.45676632 0 11394.30802437 0 3339.80069667 0 305.67145680 0 5509
0.07250000 0.07249820 29173.25070892 0 -855.32159099 0 10415.42593181 0 4381.97219790 0 -623.41396212 0 5916
0.07350000 0.07351270 28743.86595245 0 1073.24044467 0 8698.20800336 0 1812.57278979 0 44.78135339 0 5721
0.07450000 0.07449140 28254.69064197 0 1509.40146393 0 8510.80890580 0 -204.16370456 0 1211.00231006 0 6028
0.07550000 0.07549160 26568.81846508 0 655.34433244 0 8288.43233414 0 -659.78322746 0 2194.49048976 0 6183
0.07650000 0.07648840 26818.05649675 0 -258.43249020 0 9090.44511006 0 -1341.71110455 0 1292.70499490 0 6330
0.07750000 0.07749960 26215.94347311 0 -4.98891276 0 8345.29979441 0 1049.06734513 0 340.40312529 0 6583
0.07850000 0.07848650 27161.52001262 0 -172.41824208 0 9336.67146937 0 170.56030597 0 -64.47614044 0 6549
0.07950000 0.07947320 26420.67075901 0 232.77569913 0 7554.48113889 0 546.38712006 0 -1561.35281198 0 6828
0.08050000 0.08048110 26362.54105371 0 1099.35452276 0 8589.75458176 0 -189.18949248 0 -464.24264946 0 7147
0.08150000 0.08149960 25105.83218679 0 1348.84168173 0 8534.34866837 0 -888.98367290 0 -375.91096376 0 7386
0.08250000 0.08250610 24367.19739814 0 1406.25168592 0 9046.68728237 0 -1129.16675733 0 1085.58276515 0 7227
0.08350000 0.08350160 23639.19204131 0 623.06518389 0 10519.26219395 0 -581.38009542 0 23.88843007 0 7798
0.08450000 0.08449610 23000.65106902 0 771.72110967 0 10178.42281906 0 274.69330643 0 -498.64546991 0 7371
0.08550000 0.08548940 22633.82494778 0 558.79033832 0 10096.11115636 0 445.48170229 0 252.30949457 0 8256
0.08650000 0.08650700 22006.24557706 0 -5.10693267 0 8858.70135160 0 1719.84206943 0 -1697.02200798 0 8037
0.08750000 0.08749060 21968.15677968 0 25.54927880 0 8078.85536998 0 2499.04585622 0 -851.10303523 0 8155
0.08850000 0.08849210 22434.52310104 0 -623.91886014 0 7006.70001314 0 1898.82620012 0 -1548.97395283 0 8718
0.08950000 0.08949900 22164.13692897 0 453.62761166 0 6644.53534064 0 814.16686687 0 -1195.67821252 0 8571
0.09050000 0.09049190 21755.56814317 0 1017.93196774 0 6732.11742996 0 -683.40381799 0 -1386.67581564 0 8932
0.09150000 0.09150830 20607.14661298 0 842.09459176 0 6688.10493881 0 -359.69222236 0 197.89898318 0 9285
0.09250000 0.09250820 20020.42412084 0 407.06184240 0 7049.20666812 0 -302.82586933 0 651.63178192 0 9204
0.09350000 0.09350330 20062.83112489 0 256.76942701 0 7399.88933977 0 468.03159901 0 136.34571505 0 9349
0.09450000 0.09448040 19356.74897121 0 561.69128742 0 7145.00442245 0 417.08783252 0 102.63856877 0 9564
0.09550000 0.09549270 19051.15280621 0 467.29971834 0 5933.38206219 0 698.32266845 0 -631.74810102 0 10155
0.09650000 0.09649430 18452.80437301 0 213.65268693 0 6062.77325002 0 931.26777415 0 -71.97321157 0 9913
0.09750000 0.09749140 18243.98032693 0 234.69564025 0 4878.20057930 0 711.28393188 0 -1177.85176956 0 10476
0.09850000 0.09850240 17957.20711413 0 191.61100992 0 4301.14422673 0 444.35453962 0 -1158.50841810 0 10575
0.09950000 0.09950330 17771.30278042 0 30.34049519 0 3994.18616578 0 889.60593755 0 -1032.97372100 0 10882
0.10050000 0.10051200 17809.94519404 0 -196.53265830 0 3151.16149874 0 799.33216608 0 -1259.66517764 0 10875
0.10150000 0.10150300 17739.19303845 0 247.95364199 0 3499.30860801 0 1.30571498 0 -1772.74563741 0 11118
0.10250000 0.10250800 17620.49771639 0 517.78398335 0 3266.82300379 0 -518.42174926 0 -1148.90871248 0 11575
0.10350000 0.10349800 17109.95281901 0 275.32996510 0 3536.43411313 0 336.56656474 0 210.62994226 0 11364
0.10450000 0.10450100 17147.26655364 0 -166.82118188 0 3185.47463335 0 811.35892529 0 -88.35360891 0 12093
0.10550000 0.10551000 17118.25706262 0 48.40875772 0 3901.09005870 0 802.71697577 0 -1070.35167513 0 12067
0.10650000 0.10649700 16912.53326749 0 655.84037259 0 3154.90394453 0 -68.13897621 0 -717.69037902 0 12054
0.10750000 0.10749900 16196.04312847 0 998.11250631 0 3289.42161875 0 -409.23312530 0 398.25602247 0 12807
0.10850000 0.10850100 15666.78600214 0 460.02741540 0 3394.56441523 0 -697.54871295 0 1038.47777367 0 12736
0.10950000 0.10950300 15325.64767448 0 98.34294964 0 3977.36730438 0 126.58435349 0 459.15380897 0 12933
0.11050000 0.11050200 15376.91253839 0 148.69578615 0 4373.73438824 0 -431.73098210 0 383.56083297 0 13428
0.11150000 0.11150900 15449.43626595 0 275.86475839 0 5006.42917302 0 -908.27830613 0 -343.22878259 0 13453
0.11250000 0.11250000 15064.78370175 0 239.84648576 0 5253.95099435 0 -851.22261634 0 774.24449250 0 13668
0.11350000 0.11349100 15255.78130488 0 328.00101427 0 6253.43868340 0 -397.99471561 0 148.66478364 0 13791
0.11450000 0.11448600 15026.91635087 0 -70.01252429 0 5942.69388736 0 -29.89018374 0 767.15599015 0 14205
0.11550000 0.11549300 15107.07998256 0 -48.24311574 0 5807.23506553 0 783.01488099 0 -118.43180073 0 14776
0.11650000 0.11649800 14919.07190714 0 119.96088878 0 5942.46136854 0 315.25123224 0 194.91166995 0 14553
0.11750000 0.11747300 14753.98354409 0 496.88275579 0 5962.51334879 0 486.90326944 0 528.41230795 0 14568
0.11850000 0.11849100 14460.34548990 0 351.80208370 0 5901.25017557 0 -20.39843329 0 758.74877392 0 16015
0.11950000 0.11950300 14069.38170056 0 172.72162378 0 5325.97646729 0 657.06054278 0 1183.17755780 0 15270
0.12050000 0.12050700 14260.49002693 0 -143.89704058 0 5230.33372551 0 864.97776546 0 1156.03928967 0 15999
0.12150000 0.12150000 14232.91993813 0 -138.36641433 0 4977.94008127 0 1082.11712748 0 1367.44318743 0 15670
0.12250000 0.12250700 14410.96292121 0 45.12614558 0 4322.95670662 0 681.97327362 0 314.80833924 0 16887
0.12350000 0.12352200 14197.37777546 0 236.15829436 0 3939.93177417 0 93.45473968 0 352.13868237 0 16407
0.12450000 0.12449800 13989.32879212 0 432.08418926 0 3621.41420611 0 -179.79794657 0 271.27085082 0 16306
0.12550000 0.12549900 13594.26824259 0 236.20590536 0 3071.06430100 0 -160.88973747 0 440.18580933 0 17523
0.12650000 0.12650100 13484.76295013 0 214.41889181 0 3394.66406615 0 -34.69169740 0 -252.50768919 0 17154
0.12750000 0.12750600 13262.87356077 0 169.80517342 0 3250.72384351 0 -154.30834760 0 -218.70941768 0 18007
0.12850000 0.12850300 13311.14889698 0 47.56183560 0 3770.29268562 0 95.09211507 0 -452.94887815 0 17496
0.12950000 0.12949900 13150.93235685 0 83.32976297 0 3728.51680408 0 83.38479242 0 -258.68493920 0 18405
0.13050000 0.13049000 13091.69541907 0 170.86700937 0 3793.48920612 0 55.95941891 0 -209.95453044 0 18100
0.13150000 0.13148800 12975.43600848 0 97.53644150 0 3667.80724710 0 116.16418860 0 -398.95579340 0 19059
0.13250000 0.13249300 12780.23092192 0 79.51302188 0 3784.34346582 0 174.16324047 0 -105.05654307 0 18957
0.13350000 0.13349100 12764.61894393 0 116.23726595 0 3518.17584950 0 352.30476724 0 -268.03441028 0 19468
0.13450000 0.13450700 12704.05332717 0 75.64855907 0 3229.03315919 0 280.75208257 0 -633.56949845 0 19953
0.13550000 0.13551000 12506.85522215 0 235.94349126 0 3023.68582310 0 194.15875186 0 -746.16507676 0 19956
0.13650000 0.13649900 12246.76631216 0 400.81372951 0 3079.06959184 0 -186.82776559 0 -670.22000083 0 19723
0.13750000 0.13749600 12071.93430327 0 309.77153868 0 2864.05611619 0 239.28622612 0 40.15766127 0 20946
0.13850000 0.13851100 11850.93069989 0 44.16794659 0 2980.02764634 0 239.09135320 0 101.95064523 0 20955
0.13950000 0.13949800 11871.96811705 0 83.32887718 0 3202.04990360 0 264.18677741 0 42.97279985 0 20506
0.14050000 0.14048300 11877.28283296 0 129.81636510 0 3148.86952750 0 269.06635095 0 112.77605721 0 21447
0.14150000 0.14148400 11605.34653542 0 157.54368091 0 3047.17022404 0 196.56255358 0 117.58144618 0 21771
0.14250000 0.14249400 11596.59939881 0 170.54037579 0 2776.39652060 0 -87.11638733 0 201.00587753 0 22470
0.14350000 0.14350900 11233.20569826 0 163.84272650 0 3088.79109303 0 46.84191304 0 128.44118236 0 22519
0.14450000 0.14449900 11332.19228214 0 218.92089908 0 2480.15647008 0 -149.12871405 0 -16.09606004 0 22218
0.14550000 0.14550500 11034.91143308 0 171.72400731 0 2819.47893647 0 -61.99416811 0 -420.57118591 0 23559
0.14650000 0.14650700 10998.33954421 0 111.83823130 0 2646.67316303 0 -92.24896350 0 -14.79107583 0 23044
0.14750000 0.14750500 10846.40510305 0 143.37331961 0 2818.93639255 0 85.95777926 0 -584.41944858 0 23649
0.14850000 0.14849900 10702.88562875 0 130.89923847 0 2800.95493705 0 153.32844686 0 -565.89655639 0 23640
0.14950000 0.14949500 10596.81275698 0 115.67368461 0 2550.76468545 0 387.20473507 0 -463.08005536 0 24457
0.15050000 0.15050000 10444.94474977 0 168.45434979 0 2507.89264375 0 59.13961204 0 -724.50539495 0 24591
0.15150000 0.15149900 10391.33255300 0 160.08145776 0 2476.55796451 0 -25.69410480 0 -506.24662089 0 25020
0.15250000 0.15250500 10290.03185323 0 148.60056416 0 2322.12117794 0 104.99741685 0 -216.38201500 0 25297
0.15350000 0.15350100 10120.91316395 0 181.63595249 0 2519.19748739 0 -85.41700692 0 176.84827924 0 25452
0.15450000 0.15450400 10046.49606885 0 81.08706358 0 2543.24657689 0 158.18809022 0 60.54668308 0 26061
0.15550000 0.15549900 10072.39423660 0 128.54747668 0 2661.93082663 0 208.04898334 0 473.47253943 0 26128
0.15650000 0.15649500 9790.92466738 0 254.46638345 0 2727.37933863 0 178.30982611 0 933.06149077 0 26331
0.15750000 0.15749700 9733.68074807 0 231.31747395 0 2746.20229082 0 289.35306449 0 1080.50167529 0 27345
0.15850000 0.15849900 9492.80232164 0 131.48607169 0 2799.06156950 0 364.68805532 0 1335.28915615 0 26980
0.15950000 0.15949700 9338.52054762 0 184.79045783 0 2578.01367682 0 285.20647884 0 1095.93206715 0 27777
0.16050000 0.16050000 9338.67556017 0 2.67674560 0 2801.51962561 0 -40.15234655 0 1024.57646986 0 28224
0.16150000 0.16150500 9276.53767328 0 0.00879395 0 2597.62276408 0 -149.26379642 0 877.11081900 0 28075
0.16250000 0.16249700 9307.39624255 0 125.45940529 0 2700.54002327 0 -270.65965849 0 937.19811132 0 28590
0.16350000 0.16349900 9292.54825497 0 47.78760030 0 2552.84628251 0 -57.40601815 0 539.53667269 0 29163
0.16450000 0.16449100 9177.68395730 0 47.28735267 0 2657.16972695 0 -70.28357480 0 274.29691720 0 28996
0.16550000 0.16550500 9150.71177405 0 216.54145648 0 2757.14174774 0 29.55989629 0 145.57671225 0 30777
0.16650000 0.16650700 8846.83181940 0 244.08386446 0 2512.95269619 0 157.66879819 0 271.41257658 0 29211
0.16750000 0.16749900 8875.79702112 0 62.54224818 0 2441.10438044 0 415.48123819 0 -130.48402629 0 30922
0.16850000 0.16850800 8709.86716139 0 37.34008677 0 2252.18837439 0 68.59404876 0 48.80060730 0 30867
0.16950000 0.16949900 8728.44652244 0 104.83886116 0 2229.01399854 0 232.12132473 0 -79.60901894 0 30852
0.17050000 0.17049200 8548.48802716 0 179.97731823 0 1933.28327496 0 -37.19337847 0 313.45862285 0 31257
0.17150000 0.17149500 8498.17538318 0 101.29394565 0 1995.47652347 0 412.06653322 0 237.84571666 0 32608
0.17250000 0.17250900 8338.06956631 0 183.09971383 0 1810.29189087 0 315.07407504 0 126.22450293 0 32361
0.17350000 0.17350400 8258.89137153 0 202.45303038 0 1889.68045982 0 74.82101352 0 -66.72935854 0 32508
0.17450000 0.17449800 7999.20106523 0 193.38036742 0 1865.68673194 0 -388.77036180 0 356.54657488 0 32791
0.17550000 0.17549800 7828.34402095 0 303.19568497 0 2071.02299570 0 -265.21096745 0 222.00011261 0 33633
0.17650000 0.17650100 7790.77562284 0 31.01003867 0 2100.53074135 0 -181.97365839 0 319.12654592 0 33984
0.17750000 0.17750300 7772.47306992 0 -131.78613169 0 2222.52561620 0 280.24497009 0 195.15193939 0 34069
0.17850000 0.17849800 7869.27840581 0 -56.02397056 0 1884.12215276 0 438.61686090 0 99.25431269 0 34536
