### header ###
fiducial parameters:
Omega_m = 0.31
Omega_nu = 0
Omega_de = 0.69
Omega_k = 0
H_0 = 100
w_de = -1
zeff = 0
beta = 0
fgrowth = 0
b_1 = 2
gamma = 0.55
Lx = 3500 Ly = 3500 Lz = 3500
nx = 700 ny = 700 nz = 700
xoffset = -685.467585 yoffset = -31.7331281 zoffset = 572.489161
bins = 400 dk = 0.001
kx_ny = 0.628318531 ky_ny = 0.628318531 kz_ny = 0.628318531
############################
A(data) = 8.04697646 (not used)
A(ran) = 8.04176048 (used)
Ngal = 478687
weighted Ngal = 0
Nran = 23820508
weighted Nran = 0
SN(data) = 3491.61718
SN(ran) = 70.0466502
SN(data+ran) = 3561.66384
############################
13 columns: k_central k_mean P_0(k) sigma^{lin}_{P_0(k)} P^img_1(k) sigma^{lin}_{P_1(k)} P_2(k) sigma^{lin}_{P_2(k)} P^img_3(k) sigma^{lin}_{P_3(k)} P_4(k) sigma^{lin}_{P_4(k)} N_modes
### header ###
0.00050000 0 0 0 0 0 0 0 0 0 0 0 0
0.00150000 0.00179520 47673.22318566 0 -47219.81148434 0 16322.37835466 0 35803.58025682 0 -82848.33828578 0 3
0.00250000 0.00253879 83671.23346630 0 -45274.51473695 0 -14950.18513988 0 15939.82953217 0 100391.21900519 0 6
0.00350000 0.00331552 85488.64486203 0 -16570.61987709 0 -10877.86157786 0 -63070.17663197 0 27337.01636100 0 7
0.00450000 0.00420575 83280.15895370 0 7976.28135286 0 -41044.44376323 0 -39088.07469103 0 -7702.80600216 0 24
0.00550000 0.00557378 64532.94146376 0 7947.74797180 0 -37617.22706212 0 -44899.82726509 0 -30003.45362382 0 45
0.00650000 0.00659388 68380.46361500 0 8663.05337206 0 -10019.64568116 0 -71725.41294271 0 -14850.53421651 0 40
0.00750000 0.00754703 51301.51330548 0 12218.08899088 0 2981.33418067 0 -50069.49572291 0 -390.92503621 0 57
0.00850000 0.00846663 54570.06359195 0 -758.48857428 0 14794.61897618 0 -20944.29890370 0 -1917.90381579 0 75
0.00950000 0.00948925 55956.20793599 0 -14178.66554652 0 6219.91168385 0 13934.85295401 0 264.30746575 0 112
0.01050000 0.01054430 73070.58968493 0 -15510.77694545 0 9952.81312856 0 14529.21535028 0 -34772.63609296 0 105
0.01150000 0.01145670 79530.51615387 0 -14267.79776131 0 -6065.00985964 0 30785.27047927 0 -21398.37494452 0 144
0.01250000 0.01249090 87489.85684975 0 689.99517296 0 0.43346823 0 -5006.53989627 0 -21239.92997636 0 169
0.01350000 0.01339930 81066.24760622 0 4041.14389534 0 6857.73295503 0 -24615.77109032 0 -11766.22741503 0 180
0.01450000 0.01448870 86851.53732396 0 7317.63303869 0 11886.02996957 0 -32999.40327325 0 -4198.57020961 0 267
0.01550000 0.01550050 80794.75420166 0 5947.49927634 0 13900.63947032 0 -16995.90787337 0 -5944.41009771 0 238
0.01650000 0.01653350 81065.14037373 0 4628.08783397 0 36545.31529642 0 -12390.04219531 0 -5198.00253704 0 315
0.01750000 0.01747870 84511.62292003 0 376.84103904 0 46510.07546346 0 -888.39573245 0 3954.42544736 0 297
0.01850000 0.01844180 80683.36661399 0 -3424.64792176 0 47442.47593644 0 16258.04814746 0 -15231.53291352 0 388
0.01950000 0.01947590 80364.04076622 0 130.96235072 0 40613.06598830 0 3569.82824478 0 -21666.76809812 0 399
0.02050000 0.02045430 82870.15076567 0 5418.41930720 0 42039.18142494 0 3526.30293592 0 -29764.95574723 0 462
0.02150000 0.02154770 75998.55525997 0 7932.44601890 0 42506.87642528 0 -12451.49359806 0 -20890.48740508 0 571
0.02250000 0.02255340 69303.34188863 0 3872.12485698 0 39247.95906141 0 -5388.45759624 0 -10811.77087101 0 510
0.02350000 0.02348930 74148.59122927 0 -3809.32263061 0 37578.58464850 0 10130.54608655 0 -16371.09658386 0 555
0.02450000 0.02439640 75692.73764848 0 -1523.35259320 0 37197.36450499 0 2230.71913656 0 -19393.17691986 0 592
0.02550000 0.02547300 75341.85567498 0 3211.53888597 0 36495.93272773 0 12104.15476850 0 -36024.36241371 0 837
0.02650000 0.02652900 71408.63372965 0 4386.65579130 0 34544.65692494 0 2719.72836218 0 -25578.39901005 0 723
0.02750000 0.02749970 62325.89495766 0 7622.62022582 0 29358.26925664 0 2800.54526103 0 -14835.69730126 0 826
0.02850000 0.02848090 62274.40864726 0 1190.46314753 0 26711.43000874 0 11994.09585980 0 -19096.66006122 0 831
0.02950000 0.02946900 57387.63808855 0 248.86378709 0 22727.27536925 0 9870.40181493 0 -11109.63855329 0 996
0.03050000 0.03053250 60366.97925075 0 2102.99986978 0 17409.23775885 0 10092.49050615 0 -14582.47323265 0 1041
0.03150000 0.03150510 56411.72337903 0 -441.60528137 0 10297.70497433 0 4503.78991556 0 -2942.33745266 0 1036
0.03250000 0.03246190 57067.75862454 0 2248.71166439 0 12185.20418617 0 -1256.01131045 0 -11670.45180535 0 1059
0.03350000 0.03345080 54318.05747907 0 2988.15473276 0 17178.82267938 0 -5807.31257181 0 -5370.89688908 0 1302
0.03450000 0.03451200 51520.96678339 0 4054.75178254 0 18466.53405579 0 -3666.71108694 0 -8274.97945949 0 1339
0.03550000 0.03553350 50910.32806964 0 824.39769500 0 18342.96691081 0 -1262.72113929 0 -3566.76121080 0 1365
0.03650000 0.03647120 51259.54919442 0 -4389.37958321 0 22491.32412736 0 1632.89110263 0 -6723.71353542 0 1308
0.03750000 0.03744890 52710.79880840 0 1413.53727565 0 22331.43975698 0 6652.13095547 0 -7070.32159155 0 1579
0.03850000 0.03847530 52843.99887597 0 2108.40316429 0 20689.41398638 0 3862.51407904 0 -2921.54362665 0 1662
0.03950000 0.03950240 48768.71900322 0 3218.65839083 0 21385.64177097 0 1358.03171133 0 -1710.60775053 0 1683
0.04050000 0.04050350 47471.37470422 0 2888.27129057 0 16979.63155589 0 1597.99113480 0 5932.25268506 0 1822
0.04150000 0.04152450 48219.42096896 0 -2451.13590673 0 20764.37362540 0 -1251.69310377 0 -409.84321039 0 1887
0.04250000 0.04250150 47470.93181122 0 393.12067822 0 19780.15467227 0 -2331.61016031 0 1498.20734354 0 1920
0.04350000 0.04349210 49591.61418374 0 1389.21137802 0 25863.84354388 0 1161.60866905 0 -4761.77508383 0 2005
0.04450000 0.04448520 45255.58106151 0 3128.76218563 0 22624.74564143 0 867.47568194 0 730.30950762 0 2151
0.04550000 0.04548030 43138.10966319 0 4322.81276640 0 21900.61559829 0 4001.22816436 0 708.57785570 0 2274
0.04650000 0.04648670 39803.01470457 0 1378.78124804 0 17767.20602024 0 8343.48393314 0 5192.13420488 0 2311
0.04750000 0.04749250 38860.75986250 0 862.31597857 0 19475.88718625 0 7374.31226944 0 5239.70091230 0 2568
0.04850000 0.04851840 38839.72244534 0 1325.19119592 0 17819.79956313 0 5260.63867854 0 5939.47184084 0 2493
0.04950000 0.04949480 37465.42548885 0 888.59392707 0 18940.20811153 0 1184.43980283 0 10125.81820385 0 2644
0.05050000 0.05050630 35881.08653055 0 610.03527205 0 16312.41326232 0 714.76949974 0 9419.60318227 0 2829
0.05150000 0.05149060 37594.41807299 0 -1557.86502966 0 16449.82081332 0 -1554.15580084 0 11674.65928878 0 2784
0.05250000 0.05249300 37506.50381393 0 -456.86515943 0 16276.42820666 0 128.92393572 0 5087.29036118 0 3055
0.05350000 0.05348950 38470.23896615 0 947.45772750 0 18564.08123744 0 -2087.63148293 0 5046.53313352 0 3009
0.05450000 0.05448610 37033.82626742 0 1476.46129759 0 15643.20195028 0 -730.48555759 0 2138.77455127 0 3336
0.05550000 0.05550870 35002.38683295 0 1134.11608652 0 14605.39294503 0 1800.14964134 0 2412.65957798 0 3349
0.05650000 0.05647670 35486.91176701 0 -142.56503990 0 14454.80932749 0 1316.70979511 0 -1290.54589156 0 3324
0.05750000 0.05747970 35548.03100001 0 142.57057606 0 13789.47332914 0 4976.43424509 0 -601.58487374 0 3639
0.05850000 0.05849280 34766.76776080 0 330.43471126 0 10452.83931737 0 1675.64134875 0 -980.89504122 0 3846
0.05950000 0.05951020 33341.31666365 0 915.85952693 0 8914.91554471 0 2583.95951525 0 -160.67161268 0 3787
0.06050000 0.06049470 33497.65789009 0 859.37738357 0 8966.03646840 0 913.62845348 0 -987.98797250 0 3930
0.06150000 0.06148310 31404.32415988 0 952.43805920 0 7228.10222021 0 2021.52970376 0 -1146.86033239 0 4083
0.06250000 0.06249100 31695.41557936 0 -353.59801478 0 5074.65683856 0 897.56472463 0 1261.24852009 0 4303
0.06350000 0.06350600 32540.67685602 0 -1338.33404548 0 5273.88117902 0 1551.48737056 0 1170.61046913 0 4470
0.06450000 0.06451750 33792.73534651 0 -594.02469036 0 6537.72062312 0 -1364.42044275 0 61.74780888 0 4479
0.06550000 0.06550280 32810.95230484 0 1369.45835054 0 7895.53088795 0 -1773.35461528 0 1112.83507822 0 4636
0.06650000 0.06648880 33049.22873494 0 1818.66256844 0 9636.48788081 0 -2088.94908959 0 3999.74447284 0 4653
0.06750000 0.06749660 31482.93766609 0 234.01801397 0 11482.44372993 0 191.74277058 0 4551.05767021 0 5220
0.06850000 0.06852730 31482.60549635 0 477.86050176 0 11543.45223968 0 1677.84474139 0 2624.47315176 0 5029
0.06950000 0.06949320 31617.35568939 0 374.63321747 0 11236.30594921 0 989.30225745 0 2855.28683493 0 5040
0.07050000 0.07048030 30621.40007195 0 770.32046059 0 9804.73185643 0 892.71726083 0 1712.72256457 0 5475
0.07150000 0.07148790 29789.75775482 0 1224.68770354 0 10057.63482762 0 471.76518694 0 3686.09872770 0 5509
0.07250000 0.07249820 28602.25091802 0 822.47000325 0 10190.98990773 0 1198.95562066 0 3186.88081860 0 5916
0.07350000 0.07351270 27961.93837376 0 1442.42497110 0 9969.16695231 0 965.64512825 0 4129.89965108 0 5721
0.07450000 0.07449140 26936.86254205 0 941.06235268 0 10124.74418834 0 826.41175088 0 5076.30661496 0 6028
0.07550000 0.07549160 26080.52894058 0 212.62738965 0 9858.00081114 0 1133.34102379 0 5624.18739163 0 6183
0.07650000 0.07648840 26361.65526772 0 -219.75243068 0 10821.75810800 0 247.72887379 0 5516.60868369 0 6330
0.07750000 0.07749960 26353.01885436 0 843.39226823 0 10302.43285703 0 -273.86620376 0 5575.71275358 0 6583
0.07850000 0.07848650 25094.09552248 0 1029.84800371 0 10724.19985402 0 930.67761924 0 6137.07962188 0 6549
0.07950000 0.07947320 25056.89251109 0 967.66029136 0 9604.17883699 0 317.52991668 0 5282.71689422 0 6828
0.08050000 0.08048110 24005.35382307 0 311.10796829 0 9039.57884984 0 2227.02098007 0 5400.74787679 0 7147
0.08150000 0.08149960 24219.04969207 0 11.05744361 0 8152.60812559 0 1758.24089190 0 3929.09196817 0 7386
0.08250000 0.08250610 23372.01684344 0 45.24882694 0 7537.77300074 0 465.24469486 0 3247.93361765 0 7227
0.08350000 0.08350160 23427.04629779 0 -98.62728694 0 6853.53654392 0 32.38123538 0 1988.78883928 0 7798
0.08450000 0.08449610 23613.50424773 0 -257.86447993 0 6462.11878926 0 -1221.32171680 0 90.90234736 0 7371
0.08550000 0.08548940 23739.61802742 0 355.36515782 0 6816.96465504 0 -1384.07381931 0 1240.64292360 0 8256
0.08650000 0.08650700 23893.41261915 0 615.93792841 0 7596.85492597 0 -901.31934998 0 -272.74236279 0 8037
0.08750000 0.08749060 22845.63852156 0 464.39101861 0 7804.48316097 0 79.18971000 0 1432.49309574 0 8155
0.08850000 0.08849210 22451.02086502 0 820.76597246 0 7794.04195867 0 1111.53961622 0 -702.34745852 0 8718
0.08950000 0.08949900 21806.27939083 0 850.77418718 0 7729.00312268 0 1078.33482132 0 -1474.06967543 0 8571
0.09050000 0.09049190 21069.19472766 0 537.76510072 0 7084.16199757 0 1546.07300373 0 -681.70421613 0 8932
0.09150000 0.09150830 20342.51804981 0 434.51013563 0 6685.61366572 0 911.58118062 0 480.49571506 0 9285
0.09250000 0.09250820 20026.62462273 0 130.43641529 0 5731.19033868 0 313.46637348 0 -821.13357364 0 9204
0.09350000 0.09350330 19462.15750348 0 527.12902550 0 5498.46114332 0 194.16871695 0 -125.96541053 0 9349
0.09450000 0.09448040 19791.11627384 0 227.24507288 0 4879.96107895 0 -516.76865117 0 249.68535359 0 9564
0.09550000 0.09549270 19087.69147811 0 150.48839554 0 5621.04285138 0 -735.26880191 0 -1030.20563980 0 10155
0.09650000 0.09649430 19380.88663931 0 248.52165225 0 5534.26904178 0 254.13199924 0 -906.70492877 0 9913
0.09750000 0.09749140 19045.72736705 0 127.05049836 0 5411.90878021 0 30.97826110 0 -1005.31616084 0 10476
0.09850000 0.09850240 18747.32821319 0 544.71741348 0 5585.71106289 0 169.26927290 0 -634.82731455 0 10575
0.09950000 0.09950330 18739.46686257 0 271.31624736 0 5676.34911385 0 -3.10347300 0 -1823.39045113 0 10882
0.10050000 0.10051200 18066.26951359 0 733.60795318 0 5927.96769536 0 294.54598483 0 -171.15821151 0 10875
0.10150000 0.10150300 17520.51462328 0 573.70475985 0 4981.82646728 0 569.11638845 0 -557.98870200 0 11118
0.10250000 0.10250800 17206.61421467 0 399.19717008 0 5845.70032195 0 769.74027076 0 -467.51673591 0 11575
0.10350000 0.10349800 16603.61540505 0 619.77559619 0 5031.23118062 0 729.45029521 0 -834.32735590 0 11364
0.10450000 0.10450100 16243.43267870 0 346.69995642 0 4861.66959835 0 243.16486150 0 217.85131250 0 12093
0.10550000 0.10551000 16045.12734120 0 149.67790136 0 5109.60109568 0 -499.03300127 0 762.67391307 0 12067
0.10650000 0.10649700 16075.90840419 0 -115.56296136 0 5331.73407620 0 475.40908904 0 97.78424013 0 12054
0.10750000 0.10749900 16267.12745381 0 129.93594621 0 5666.58332336 0 -414.49137235 0 295.09295767 0 12807
0.10850000 0.10850100 16221.39875231 0 -36.31290720 0 5785.21221147 0 26.38601438 0 144.74628789 0 12736
0.10950000 0.10950300 16168.80520942 0 327.63894924 0 6186.36253965 0 268.04658984 0 1013.65915759 0 12933
0.11050000 0.11050200 16008.81011579 0 247.31144715 0 5625.85931268 0 684.13348420 0 1177.54174446 0 13428
0.11150000 0.11150900 15526.72109319 0 120.96514864 0 5468.57693863 0 1251.52701890 0 1320.85084459 0 13453
0.11250000 0.11250000 15715.50423135 0 228.79962728 0 4717.80688198 0 885.85463391 0 1559.10513004 0 13668
0.11350000 0.11349100 15258.66010933 0 387.27006179 0 4829.41591615 0 507.63176873 0 1678.27656206 0 13791
0.11450000 0.11448600 15067.21961321 0 190.30115389 0 4397.26307848 0 59.75279739 0 2080.02479578 0 14205
0.11550000 0.11549300 14870.57512443 0 136.56937601 0 4617.89022281 0 -150.56811628 0 2423.16721424 0 14776
0.11650000 0.11649800 15119.14881661 0 -170.80943328 0 4798.73450408 0 -143.13637186 0 1796.08609813 0 14553
0.11750000 0.11747300 15035.99565723 0 -46.32018509 0 4953.35952017 0 -78.87282006 0 2035.15973562 0 14568
0.11850000 0.11849100 15173.51393147 0 297.63737791 0 5270.42661368 0 420.03307093 0 1146.50601800 0 16015
0.11950000 0.11950300 14710.80147730 0 113.43486053 0 4788.51474827 0 109.42302508 0 806.48599514 0 15270
0.12050000 0.12050700 14696.51817829 0 291.84323034 0 4576.98905493 0 80.54673413 0 342.59323114 0 15999
0.12150000 0.12150000 14376.63871427 0 377.62717410 0 4675.84277091 0 -67.38616885 0 1085.06347311 0 15670
0.12250000 0.12250700 14130.72238005 0 95.81104112 0 4276.34221913 0 200.07580224 0 769.22762213 0 16887
0.12350000 0.12352200 14253.40373904 0 -65.14966996 0 4124.27491007 0 290.18902501 0 990.84241784 0 16407
0.12450000 0.12449800 14113.44955334 0 415.39819576 0 4742.03312868 0 -27.68978063 0 447.25548872 0 16306
0.12550000 0.12549900 13746.62343209 0 575.34124946 0 4607.65939468 0 114.91412313 0 1276.43974974 0 17523
0.12650000 0.12650100 13317.68156862 0 181.51304968 0 4993.96173528 0 92.40751919 0 1060.85937106 0 17154
0.12750000 0.12750600 13154.47550079 0 31.52124791 0 4508.45136431 0 452.23249873 0 1110.90849370 0 18007
0.12850000 0.12850300 13242.16831336 0 -32.12801131 0 4435.52903305 0 646.41782417 0 790.61492475 0 17496
0.12950000 0.12949900 13241.61469712 0 -94.41072420 0 3905.39719306 0 15.57510715 0 639.49319223 0 18405
0.13050000 0.13049000 13306.27707406 0 193.25857185 0 3609.96542225 0 -33.39645684 0 -33.43465636 0 18100
0.13150000 0.13148800 13010.97817114 0 276.94431006 0 3413.43165672 0 -425.57587673 0 -287.61360226 0 19059
0.13250000 0.13249300 12821.19852375 0 291.70704074 0 3415.86756818 0 24.36819391 0 -579.57862817 0 18957
0.13350000 0.13349100 12696.52414629 0 165.03521589 0 3383.91283875 0 -37.93046313 0 -509.08445774 0 19468
0.13450000 0.13450700 12512.61283106 0 61.37910046 0 3499.36396963 0 450.63033333 0 -598.40711652 0 19953
0.13550000 0.13551000 12366.90103644 0 149.81298373 0 3350.87302149 0 361.80592917 0 -494.75244050 0 19956
0.13650000 0.13649900 12291.94139742 0 300.63797794 0 3360.73846290 0 188.13872885 0 -298.15224102 0 19723
0.13750000 0.13749600 11941.72376341 0 384.09341180 0 3659.69123301 0 416.06364248 0 295.06306239 0 20946
0.13850000 0.13851100 11632.91662421 0 259.93832637 0 3233.59495701 0 348.92549371 0 646.52965465 0 20955
0.13950000 0.13949800 11560.39289665 0 -41.88582973 0 3311.35589421 0 182.71107523 0 1095.37845091 0 20506
0.14050000 0.14048300 11634.68819619 0 69.26137778 0 3541.48309324 0 299.59828664 0 1032.44557111 0 21447
0.14150000 0.14148400 11472.70008409 0 219.23978204 0 3804.36222909 0 -70.64220741 0 1012.89738164 0 21771
0.14250000 0.14249400 11281.70248097 0 338.91500484 0 3652.37242630 0 -277.46028040 0 1342.88477098 0 22470
0.14350000 0.14350900 11058.53977425 0 286.43329243 0 3830.26039684 0 -526.73927967 0 1495.51676860 0 22519
0.14450000 0.14449900 11033.73776665 0 92.46941349 0 4108.35290698 0 -97.34278654 0 933.59517683 0 22218
0.14550000 0.14550500 10867.17678441 0 163.97670163 0 3934.30703316 0 -41.17830817 0 582.82171211 0 23559
0.14650000 0.14650700 10758.41333771 0 232.69265669 0 3805.36981065 0 54.30776022 0 162.66130945 0 23044
0.14750000 0.14750500 10588.29813920 0 268.96891449 0 3906.70372739 0 34.05470655 0 176.01564041 0 23649
0.14850000 0.14849900 10210.25575292 0 207.97922770 0 3384.38894872 0 555.63361851 0 50.89338741 0 23640
0.14950000 0.14949500 10111.74527900 0 166.47572535 0 3434.07047018 0 396.60956777 0 -99.21589173 0 24457
0.15050000 0.15050000 10011.24178663 0 23.80959512 0 3209.98876050 0 518.60444262 0 -111.40198170 0 24591
0.15150000 0.15149900 10139.85791172 0 -139.99515331 0 3149.34563747 0 66.93519306 0 -72.65349521 0 25020
0.15250000 0.15250500 10147.26529702 0 0.46320960 0 3205.44910732 0 -79.75395567 0 -171.98088525 0 25297
0.15350000 0.15350100 10138.65102831 0 4.49019310 0 3226.63046470 0 -270.86560374 0 20.07412490 0 25452
0.15450000 0.15450400 10178.35638511 0 36.64740213 0 3100.62740826 0 204.41947527 0 -298.12566744 0 26061
0.15550000 0.15549900 10115.06697645 0 146.73377019 0 3021.03953747 0 62.29024207 0 -144.39418796 0 26128
0.15650000 0.15649500 10035.64519053 0 177.56133695 0 2930.58971602 0 429.33935994 0 -392.95459335 0 26331
0.15750000 0.15749700 9785.31099870 0 260.61373819 0 2544.90742562 0 -1.34600717 0 -415.13688889 0 27345
0.15850000 0.15849900 9476.03882187 0 342.30202900 0 2746.50124359 0 -110.94469468 0 -292.85966976 0 26980
0.15950000 0.15949700 9339.31775501 0 206.94617979 0 2659.15167310 0 -87.74828491 0 -201.63589281 0 27777
0.16050000 0.16050000 9033.66622839 0 151.53694470 0 2861.49840916 0 38.50533824 0 -318.39355802 0 28224
0.16150000 0.16150500 9203.41604018 0 191.82027686 0 2797.14605731 0 -78.65458454 0 3.52232797 0 28075
0.16250000 0.16249700 9017.57814043 0 -11.60689666 0 2688.75906966 0 529.58708161 0 -347.24028587 0 28590
0.16350000 0.16349900 8953.86798342 0 8.03448856 0 2679.81263121 0 570.88906765 0 180.84649573 0 29163
0.16450000 0.16449100 8848.64768067 0 98.37074117 0 2158.63830199 0 429.09133986 0 63.37776582 0 28996
0.16550000 0.16550500 8836.74493149 0 183.68765428 0 2335.86193304 0 562.47963695 0 234.32028844 0 30777
0.16650000 0.16650700 8703.13518790 0 63.27767200 0 1937.16966097 0 60.81009369 0 455.81328858 0 29211
0.16750000 0.16749900 8474.71312689 0 183.87145487 0 1995.36580022 0 -130.66671965 0 476.89610226 0 30922
0.16850000 0.16850800 8517.12013095 0 208.38115309 0 2304.16186709 0 -298.34711394 0 602.39315346 0 30867
0.16950000 0.16949900 8382.28135931 0 78.63819750 0 2485.85871736 0 -157.39531176 0 395.42925795 0 30852
0.17050000 0.17049200 8334.96931536 0 193.14895583 0 2363.79740856 0 -248.05772184 0 473.88000098 0 31257
0.17150000 0.17149500 8216.81653722 0 71.63528422 0 2520.99120401 0 18.61235657 0 396.39808637 0 32608
0.17250000 0.17250900 8200.18590534 0 -44.41297714 0 2516.98302242 0 146.07607410 0 254.62139599 0 32361
0.17350000 0.17350400 8148.23455729 0 64.30939123 0 2441.31475461 0 376.06597630 0 9.91597550 0 32508
0.17450000 0.17449800 8091.09028890 0 32.09988760 0 2170.04279656 0 160.44684448 0 -173.20769884 0 32791
0.17550000 0.17549800 7938.01539828 0 64.28348199 0 1928.99828525 0 233.66702128 0 25.79718815 0 33633
0.17650000 0.17650100 8108.69528536 0 -33.51028034 0 1867.79047366 0 -56.46077378 0 -107.75309705 0 33984
0.17750000 0.17750300 8075.91013157 0 -6.15838277 0 1896.21313147 0 33.00261425 0 -172.48799772 0 34069
0.17850000 0.17849800 8070.98294703 0 228.26372676 0 2113.98361600 0 -279.62159820 0 100.26798403 0 34536
