### header ###
fiducial parameters:
Omega_m = 0.31
Omega_nu = 0
Omega_de = 0.69
Omega_k = 0
H_0 = 100
w_de = -1
zeff = 0
beta = 0
fgrowth = 0
b_1 = 2
gamma = 0.55
Lx = 3500 Ly = 3500 Lz = 3500
nx = 700 ny = 700 nz = 700
xoffset = -685.467585 yoffset = -31.7331281 zoffset = 572.489161
bins = 400 dk = 0.001
kx_ny = 0.628318531 ky_ny = 0.628318531 kz_ny = 0.628318531
############################
A(data) = 8.03640309 (not used)
A(ran) = 8.03492015 (used)
Ngal = 477491
weighted Ngal = 0
Nran = 23820508
weighted Nran = 0
SN(data) = 3491.51606
SN(ran) = 69.9870685
SN(data+ran) = 3561.50313
############################
13 columns: k_central k_mean P_0(k) sigma^{lin}_{P_0(k)} P^img_1(k) sigma^{lin}_{P_1(k)} P_2(k) sigma^{lin}_{P_2(k)} P^img_3(k) sigma^{lin}_{P_3(k)} P_4(k) sigma^{lin}_{P_4(k)} N_modes
### header ###
0.00050000 0 0 0 0 0 0 0 0 0 0 0 0
0.00150000 0.00179520 12319.73293272 0 -12151.32287222 0 -9453.16339879 0 52642.37184102 0 -9887.19853168 0 3
0.00250000 0.00253879 39281.61892886 0 -37008.80281333 0 -23866.28542334 0 2083.23576998 0 16606.71565600 0 6
0.00350000 0.00331552 58350.48745478 0 -36111.16944028 0 -5340.13797073 0 -1608.78665150 0 -27575.29279109 0 7
0.00450000 0.00420575 80240.36289799 0 -19300.72300762 0 -7270.97426191 0 8628.20876585 0 -3283.57543124 0 24
0.00550000 0.00557378 82566.21544940 0 1393.71781422 0 6600.46748787 0 2602.17348958 0 -10893.93859349 0 45
0.00650000 0.00659388 90049.66762458 0 9682.99164505 0 4998.61211170 0 -31973.33093231 0 -18991.25152894 0 40
0.00750000 0.00754703 74014.50537572 0 16014.67844795 0 35380.72817200 0 -34933.18480283 0 -36163.43081343 0 57
0.00850000 0.00846663 75375.84771217 0 4513.65535697 0 23135.73343181 0 -12960.70981647 0 25655.13022104 0 75
0.00950000 0.00948925 84217.54197285 0 -8912.20282513 0 37862.58978010 0 -6854.53305315 0 17361.73748538 0 112
0.01050000 0.01054430 90953.16932978 0 -17961.52532081 0 42318.09328712 0 2540.05774735 0 -16867.24745898 0 105
0.01150000 0.01145670 103048.79840816 0 -9418.11949074 0 40175.93060446 0 23571.87230642 0 -8470.89317483 0 144
0.01250000 0.01249090 98149.73756890 0 14487.69413221 0 44345.21451492 0 6282.17136630 0 -17990.97770483 0 169
0.01350000 0.01339930 84391.59891900 0 26836.10438620 0 22855.16072091 0 15728.68029788 0 9293.41189631 0 180
0.01450000 0.01448870 69857.17957606 0 9117.56123354 0 28223.24523948 0 -3800.06616706 0 3024.09549912 0 267
0.01550000 0.01550050 61972.57707270 0 4903.96587915 0 35650.11783484 0 -6370.26278256 0 10547.00943995 0 238
0.01650000 0.01653350 68160.78869059 0 -1532.53155047 0 30124.14196435 0 8614.43479378 0 4850.95158792 0 315
0.01750000 0.01747870 71842.00452305 0 -6317.24849133 0 22530.52015722 0 4210.71654993 0 10433.36309801 0 297
0.01850000 0.01844180 72843.16413315 0 -2416.88920606 0 23573.09026215 0 12014.35821422 0 6340.53359042 0 388
0.01950000 0.01947590 84895.94331449 0 -3348.35960376 0 30859.89794855 0 13471.25471385 0 3603.16701481 0 399
0.02050000 0.02045430 83837.87195482 0 1249.33469859 0 30688.16619061 0 16710.90623254 0 9349.41571524 0 462
0.02150000 0.02154770 84255.96293997 0 3192.35054706 0 25792.53777204 0 7212.88884591 0 3313.33784036 0 571
0.02250000 0.02255340 79405.28816017 0 3111.23469544 0 34189.89963775 0 -1257.87146102 0 8628.38592305 0 510
0.02350000 0.02348930 77493.87272673 0 8082.14385045 0 30761.57570416 0 1087.86034236 0 19589.82140864 0 555
0.02450000 0.02439640 76721.13517763 0 -3407.00970832 0 37106.68216473 0 3963.44939208 0 21141.49700872 0 592
0.02550000 0.02547300 75125.05955503 0 647.76864780 0 28312.48817752 0 16097.49943759 0 9698.11644075 0 837
0.02650000 0.02652900 77540.70866071 0 1085.38457053 0 30723.59763003 0 8098.85198860 0 6260.73534546 0 723
0.02750000 0.02749970 67973.11278492 0 6831.94551052 0 24664.60004277 0 2837.93650194 0 2638.69001683 0 826
0.02850000 0.02848090 68053.83003285 0 7805.44645323 0 24646.88432306 0 643.86011713 0 11782.28228602 0 831
0.02950000 0.02946900 58415.59272471 0 3619.67585111 0 20314.72651451 0 -1182.41356738 0 13289.22569384 0 996
0.03050000 0.03053250 59601.99232903 0 936.31232534 0 24890.80763881 0 5525.34474798 0 2088.04115895 0 1041
0.03150000 0.03150510 58327.01412616 0 -2480.79866492 0 16341.31203010 0 -2154.68548203 0 1106.27029684 0 1036
0.03250000 0.03246190 57372.80117329 0 -517.19825737 0 18951.94477584 0 -2300.31977037 0 -14438.09011702 0 1059
0.03350000 0.03345080 59440.77927967 0 2086.62390137 0 18081.88149159 0 -5348.70795014 0 -5154.36650493 0 1302
0.03450000 0.03451200 57145.04345177 0 2087.33253016 0 24300.20983299 0 -3120.95619663 0 -9186.91827620 0 1339
0.03550000 0.03553350 58232.01357922 0 1649.37779428 0 23324.95946296 0 -4337.00748681 0 -6197.04733310 0 1365
0.03650000 0.03647120 54306.54226126 0 2996.84650774 0 24253.15245251 0 1260.82777175 0 -6371.15964087 0 1308
0.03750000 0.03744890 54399.99268273 0 2972.53168244 0 26348.81137093 0 3398.46187356 0 -5765.50347329 0 1579
0.03850000 0.03847530 52233.24943897 0 935.44646954 0 23929.50839806 0 6194.87715743 0 -6004.30030266 0 1662
0.03950000 0.03950240 50967.35054246 0 1158.36447788 0 22569.05184759 0 5593.00772494 0 -3239.61830171 0 1683
0.04050000 0.04050350 50014.13409882 0 236.06417960 0 14603.95354280 0 5745.31862515 0 -5961.69399675 0 1822
0.04150000 0.04152450 49349.90533295 0 1834.42955898 0 17215.58279778 0 2760.43022821 0 -4503.93385578 0 1887
0.04250000 0.04250150 46371.67140323 0 2843.62767690 0 14455.36294374 0 2359.68957605 0 -1270.94787663 0 1920
0.04350000 0.04349210 43774.43617052 0 3113.93634270 0 14929.25844597 0 1669.50728081 0 1543.26063322 0 2005
0.04450000 0.04448520 42861.85515897 0 981.69557030 0 15553.40539600 0 7228.81084900 0 2654.31306715 0 2151
0.04550000 0.04548030 41967.76492986 0 -1964.24149515 0 13700.89473059 0 4125.89146950 0 2397.45727601 0 2274
0.04650000 0.04648670 44056.00539066 0 -274.94796990 0 14450.04822782 0 2981.06844487 0 3403.98696365 0 2311
0.04750000 0.04749250 42528.79962842 0 1281.23406639 0 13242.83265285 0 373.82272329 0 2727.83330395 0 2568
0.04850000 0.04851840 41364.21250400 0 2572.59930999 0 15286.78381437 0 -1373.14543471 0 3704.45664225 0 2493
0.04950000 0.04949480 39055.18988631 0 2256.89411243 0 13566.80887704 0 -777.08122212 0 5774.42776710 0 2644
0.05050000 0.05050630 38358.74065522 0 672.09565265 0 13561.71560762 0 1203.50634616 0 2914.92237641 0 2829
0.05150000 0.05149060 37441.06637425 0 1183.07790687 0 11897.54518738 0 2740.30074169 0 3529.38104222 0 2784
0.05250000 0.05249300 37650.55475982 0 1908.66949689 0 12732.84137170 0 2000.72480543 0 1061.39970051 0 3055
0.05350000 0.05348950 34782.60118530 0 1069.50907121 0 10414.14154213 0 1153.39300403 0 1874.43386855 0 3009
0.05450000 0.05448610 33427.23790425 0 1369.52478449 0 10729.75816108 0 1634.07584139 0 4306.28178544 0 3336
0.05550000 0.05550870 33381.39847950 0 -870.58257628 0 8648.63720514 0 4794.98098596 0 2640.57231205 0 3349
0.05650000 0.05647670 33788.86003282 0 -1521.53673193 0 8318.19474326 0 3228.23595180 0 3937.78374315 0 3324
0.05750000 0.05747970 35314.18349984 0 -1287.87746128 0 4898.49615069 0 -414.85565184 0 -140.15127309 0 3639
0.05850000 0.05849280 35722.75228565 0 239.42241572 0 7734.39534487 0 -964.94092839 0 1737.19240242 0 3846
0.05950000 0.05951020 35406.63741207 0 1849.68722258 0 6507.07242802 0 -3101.77893005 0 1732.97384667 0 3787
0.06050000 0.06049470 32679.30236275 0 2665.91686356 0 8093.94694870 0 -1594.78016060 0 3285.07019509 0 3930
0.06150000 0.06148310 32514.32472295 0 1106.77740931 0 9560.06669492 0 -635.21706038 0 687.94236393 0 4083
0.06250000 0.06249100 31470.75810879 0 353.33006452 0 9325.75415710 0 1502.29303139 0 -379.98336482 0 4303
0.06350000 0.06350600 30780.06648660 0 728.58222495 0 9027.74253461 0 -1685.07496950 0 52.26967739 0 4470
0.06450000 0.06451750 31045.58083575 0 340.01780839 0 11348.13642988 0 10.70872074 0 10.03412828 0 4479
0.06550000 0.06550280 29937.35184466 0 212.51555917 0 9994.62222707 0 -724.10679126 0 341.60115084 0 4636
0.06650000 0.06648880 30122.37039238 0 1010.56776450 0 10516.48304043 0 781.29202725 0 -727.54031918 0 4653
0.06750000 0.06749660 29760.96971029 0 138.05306754 0 10332.11775987 0 1067.61127473 0 -709.46696338 0 5220
0.06850000 0.06852730 29807.36275129 0 131.82156313 0 9170.32086130 0 741.24675008 0 -2524.62292655 0 5029
0.06950000 0.06949320 28232.10309934 0 275.86808009 0 8823.56886495 0 324.12791504 0 -1684.89781230 0 5040
0.07050000 0.07048030 28295.76896704 0 1481.25561424 0 7534.21878447 0 -260.78203752 0 -1943.38123519 0 5475
0.07150000 0.07148790 27260.83876624 0 563.53815120 0 8728.54617336 0 799.16718844 0 105.98872209 0 5509
0.07250000 0.07249820 26899.88097716 0 234.50962519 0 8276.77317611 0 1009.05971386 0 -1783.95083013 0 5916
0.07350000 0.07351270 27155.31951072 0 -11.11107796 0 7580.91077823 0 1871.58828107 0 -710.53876442 0 5721
0.07450000 0.07449140 27349.74953454 0 -555.88274582 0 6971.17999512 0 1008.83383843 0 -1117.31936977 0 6028
0.07550000 0.07549160 27341.11312118 0 -87.02670150 0 7130.01249464 0 312.61934063 0 -1122.25762664 0 6183
0.07650000 0.07648840 27803.27195911 0 545.38286020 0 8145.47754841 0 -1918.05882833 0 -1508.30530377 0 6330
0.07750000 0.07749960 27202.81978419 0 1142.47569176 0 9135.81949716 0 -1257.80502707 0 -506.68065603 0 6583
0.07850000 0.07848650 26158.25666080 0 604.17911945 0 8744.06957276 0 -1116.33393287 0 484.68326831 0 6549
0.07950000 0.07947320 25793.64500453 0 547.96160465 0 8612.26461811 0 5.43395378 0 -2111.31518572 0 6828
0.08050000 0.08048110 25990.95383279 0 143.18398286 0 9790.65893159 0 897.11075932 0 -1435.36082787 0 7147
0.08150000 0.08149960 25895.17822311 0 332.78204412 0 9951.36265401 0 678.70250887 0 -3569.03103739 0 7386
0.08250000 0.08250610 24672.35067014 0 469.99472220 0 8790.38510747 0 938.96746883 0 -1860.19485883 0 7227
0.08350000 0.08350160 24725.82999902 0 637.29644298 0 9341.94189599 0 587.71014351 0 -1836.81010881 0 7798
0.08450000 0.08449610 24166.45614918 0 381.07731052 0 8787.66131557 0 1267.48223896 0 -354.50483818 0 7371
0.08550000 0.08548940 23698.42897909 0 295.30665354 0 8488.04420597 0 1000.52516589 0 -760.86690966 0 8256
0.08650000 0.08650700 23176.81175689 0 1247.70706684 0 8114.99543818 0 186.88423445 0 197.01651889 0 8037
0.08750000 0.08749060 22202.89006584 0 590.96208531 0 8412.64167396 0 -90.60605195 0 1153.22691916 0 8155
0.08850000 0.08849210 21697.77060761 0 501.04041376 0 8171.45322243 0 752.69110501 0 1410.95742396 0 8718
0.08950000 0.08949900 21301.15993261 0 419.97217314 0 7617.52695641 0 722.64413715 0 1286.86987972 0 8571
0.09050000 0.09049190 21039.29945065 0 -42.85897635 0 7841.52008749 0 1777.80568986 0 531.06855867 0 8932
0.09150000 0.09150830 21268.27512790 0 -41.93853399 0 6877.25346368 0 1067.53598292 0 945.57653951 0 9285
0.09250000 0.09250820 20734.25690189 0 425.55816101 0 6249.66302064 0 1312.33622681 0 1314.17423273 0 9204
0.09350000 0.09350330 20145.54139129 0 992.11794966 0 5816.58010768 0 190.93338364 0 835.52870314 0 9349
0.09450000 0.09448040 19429.05125227 0 984.09605032 0 6000.33641037 0 573.28954767 0 2071.25551452 0 9564
0.09550000 0.09549270 18351.71404742 0 733.51051673 0 6163.04422358 0 -439.95218327 0 1940.49135842 0 10155
0.09650000 0.09649430 17843.05144525 0 868.02819095 0 6782.25291674 0 -159.71828551 0 2087.39896411 0 9913
0.09750000 0.09749140 17194.98827361 0 465.51153789 0 6558.75804027 0 -79.15870749 0 1152.07539738 0 10476
0.09850000 0.09850240 17291.98183902 0 134.96831784 0 6549.08082838 0 -235.62682277 0 1506.63338272 0 10575
0.09950000 0.09950330 17224.32993438 0 -372.50068771 0 6545.68162466 0 -192.54551413 0 767.23460366 0 10882
0.10050000 0.10051200 17455.63079984 0 24.47515257 0 6165.56871364 0 640.12431474 0 468.13124994 0 10875
0.10150000 0.10150300 17504.01685930 0 301.33110547 0 5928.24450348 0 -235.74529664 0 -447.25438149 0 11118
0.10250000 0.10250800 16886.95619716 0 234.91376505 0 5617.22289932 0 87.19411505 0 -324.39807977 0 11575
0.10350000 0.10349800 16941.98565151 0 523.05551720 0 5514.20598921 0 126.49356043 0 -545.87336419 0 11364
0.10450000 0.10450100 16299.68008878 0 551.35084327 0 5916.08709083 0 170.16391674 0 -435.19661976 0 12093
0.10550000 0.10551000 16066.93982109 0 297.83667976 0 6177.20572702 0 559.79681265 0 693.29140405 0 12067
0.10650000 0.10649700 15504.13355056 0 161.94271557 0 5664.49065397 0 1062.11054376 0 499.63755021 0 12054
0.10750000 0.10749900 15750.93567077 0 26.04421172 0 5515.44608959 0 969.03768857 0 1528.81124933 0 12807
0.10850000 0.10850100 15382.44870080 0 137.46069816 0 5271.67778638 0 567.35367433 0 931.96754508 0 12736
0.10950000 0.10950300 15304.83170382 0 367.52699940 0 5188.20352957 0 403.74568112 0 1449.17908924 0 12933
0.11050000 0.11050200 14984.73079331 0 154.18655203 0 4794.52702065 0 195.81074272 0 1318.09383571 0 13428
0.11150000 0.11150900 14766.49527114 0 201.96141916 0 4168.07702706 0 -74.26684366 0 811.19284042 0 13453
0.11250000 0.11250000 15050.94329573 0 -396.42133825 0 4157.84619892 0 -52.17965939 0 114.41365405 0 13668
0.11350000 0.11349100 15035.66348748 0 -339.92037193 0 4071.83637973 0 -40.54120660 0 -306.76872419 0 13791
0.11450000 0.11448600 15172.29597574 0 453.13932213 0 4017.43804790 0 -318.40130865 0 -1138.02461719 0 14205
0.11550000 0.11549300 14812.33469589 0 642.84257048 0 4208.75674844 0 -297.00625540 0 -962.27803427 0 14776
0.11650000 0.11649800 14432.22178486 0 301.07201307 0 4220.11695370 0 -200.91619169 0 -686.89492201 0 14553
0.11750000 0.11747300 14370.21676588 0 124.00450181 0 4518.13964852 0 497.07541425 0 -630.89442477 0 14568
0.11850000 0.11849100 14276.98779091 0 251.88431730 0 4697.85455265 0 -39.16181637 0 -990.77044772 0 16015
0.11950000 0.11950300 14033.61809139 0 473.54008061 0 5010.12732951 0 46.27445639 0 -17.71084789 0 15270
0.12050000 0.12050700 13429.17987954 0 520.40480264 0 4444.51976080 0 177.02875813 0 530.64338140 0 15999
0.12150000 0.12150000 13288.78280084 0 -140.05162217 0 4532.36758591 0 626.61607846 0 1024.84663459 0 15670
0.12250000 0.12250700 13595.48619832 0 -195.94582508 0 4311.35291021 0 818.04550225 0 26.20896791 0 16887
0.12350000 0.12352200 13783.05138075 0 -164.30112075 0 4042.69402081 0 341.53028796 0 284.90088268 0 16407
0.12450000 0.12449800 13577.10613912 0 153.97064170 0 3974.32241505 0 -77.70568630 0 14.23026258 0 16306
0.12550000 0.12549900 13549.64677357 0 99.10550065 0 3807.19674424 0 8.35669322 0 512.96973652 0 17523
0.12650000 0.12650100 13467.93301641 0 130.81841050 0 3679.61034536 0 394.22791070 0 -59.27713032 0 17154
0.12750000 0.12750600 13268.18827668 0 287.90591163 0 3394.94087427 0 -18.84255021 0 150.77295429 0 18007
0.12850000 0.12850300 13085.71636367 0 424.41771155 0 3524.06632630 0 152.30647128 0 130.74754762 0 17496
0.12950000 0.12949900 12650.57399830 0 274.78852842 0 3281.73742532 0 189.82282946 0 197.03755631 0 18405
0.13050000 0.13049000 12684.12314250 0 -44.57208645 0 2980.12729726 0 371.59607877 0 567.04807817 0 18100
0.13150000 0.13148800 12690.43436764 0 -211.39393267 0 3283.17682755 0 473.05732725 0 -143.66230729 0 19059
0.13250000 0.13249300 12857.29430266 0 -144.39418796 0 2917.81225318 0 314.41305725 0 -320.87375878 0 18957
0.13350000 0.13349100 12739.04187360 0 80.22032199 0 2886.26719978 0 387.22355802 0 -457.08882040 0 19468
0.13450000 0.13450700 12721.65832363 0 118.36315231 0 2525.35369999 0 -198.04513787 0 98.24949922 0 19953
0.13550000 0.13551000 12650.68472154 0 234.07116113 0 2564.20648778 0 228.39216573 0 -87.96751694 0 19956
0.13650000 0.13649900 12570.18892011 0 147.44572068 0 2732.72727152 0 215.80182518 0 -146.29973506 0 19723
0.13750000 0.13749600 12216.31741891 0 264.06055290 0 2835.47844583 0 -66.17053830 0 221.16525932 0 20946
0.13850000 0.13851100 12191.18324157 0 459.43172433 0 3045.12184395 0 -537.87914567 0 133.64628226 0 20955
0.13950000 0.13949800 11690.38199002 0 452.20592515 0 3402.47005515 0 -495.72569785 0 793.93772942 0 20506
0.14050000 0.14048300 11614.97945801 0 264.22442331 0 3703.83659206 0 -169.24048485 0 747.74177582 0 21447
0.14150000 0.14148400 11431.95392876 0 141.92173783 0 4187.01070250 0 -265.18439387 0 1087.70090088 0 21771
0.14250000 0.14249400 11229.33038457 0 286.71120778 0 4228.55406522 0 -125.82700647 0 925.52234480 0 22470
0.14350000 0.14350900 11107.31336507 0 180.33273986 0 4270.93892462 0 291.24864649 0 1063.82786134 0 22519
0.14450000 0.14449900 11066.50077579 0 39.07179837 0 4365.26405975 0 249.15941816 0 934.83416997 0 22218
0.14550000 0.14550500 11055.82705467 0 100.73191444 0 4209.34358166 0 194.87734574 0 1141.24666371 0 23559
0.14650000 0.14650700 10956.18720362 0 62.98957011 0 3865.55896836 0 248.28138280 0 911.36637752 0 23044
0.14750000 0.14750500 10807.25336249 0 10.58566293 0 3715.25215895 0 306.15421017 0 679.16754652 0 23649
0.14850000 0.14849900 10713.13860153 0 163.95898591 0 3458.20813828 0 337.54646549 0 621.78743761 0 23640
0.14950000 0.14949500 10478.36102607 0 215.12309167 0 3179.73916909 0 410.83861240 0 361.39293145 0 24457
0.15050000 0.15050000 10268.03114382 0 407.85019193 0 2868.05322545 0 269.34205184 0 159.81350750 0 24591
0.15150000 0.15149900 9921.85490836 0 273.69236826 0 2552.08229210 0 222.59358922 0 312.45547022 0 25020
0.15250000 0.15250500 9696.49988133 0 226.69367110 0 2739.90213800 0 131.03764253 0 438.65229234 0 25297
0.15350000 0.15350100 9582.55458662 0 27.71956518 0 2576.41926205 0 118.75954154 0 190.04870488 0 25452
0.15450000 0.15450400 9453.15232647 0 27.41640493 0 2425.29310060 0 227.97031016 0 -77.71111174 0 26061
0.15550000 0.15549900 9567.10869350 0 73.21962318 0 2672.00664221 0 -36.04971804 0 102.46495472 0 26128
0.15650000 0.15649500 9372.62330806 0 185.77257304 0 2444.13819744 0 -16.30156238 0 420.49478687 0 26331
0.15750000 0.15749700 9284.33258996 0 185.38393444 0 2556.01296741 0 296.88999599 0 453.41280856 0 27345
0.15850000 0.15849900 9111.72611836 0 9.88908083 0 2474.83068184 0 183.26579870 0 379.87042711 0 26980
0.15950000 0.15949700 9200.51509108 0 -80.06398076 0 2320.92536686 0 304.67605480 0 582.94350768 0 27777
0.16050000 0.16050000 9174.86051447 0 87.66557464 0 2374.83651640 0 145.16371453 0 544.52364779 0 28224
0.16150000 0.16150500 9245.87840586 0 106.53292686 0 2029.66786251 0 -4.64274759 0 457.63468601 0 28075
0.16250000 0.16249700 9057.57137767 0 116.66355045 0 2162.95650867 0 -96.59108640 0 678.64714725 0 28590
0.16350000 0.16349900 9039.55670519 0 278.04932808 0 2250.17321127 0 155.89611898 0 608.59254812 0 29163
0.16450000 0.16449100 8755.00902968 0 153.02838685 0 2207.38974817 0 12.80857607 0 982.03327621 0 28996
0.16550000 0.16550500 8678.67642238 0 128.81542694 0 2222.80242432 0 163.56370392 0 657.46246817 0 30777
0.16650000 0.16650700 8653.90763176 0 113.90211264 0 2189.25328012 0 5.15041368 0 769.39813593 0 29211
0.16750000 0.16749900 8487.72310855 0 199.34613603 0 2193.81507794 0 -30.51698805 0 540.32723668 0 30922
0.16850000 0.16850800 8330.30786661 0 178.89555209 0 2169.51132497 0 -222.23484590 0 918.99078039 0 30867
0.16950000 0.16949900 8196.50989350 0 102.28181847 0 2406.00511077 0 87.33750166 0 810.13211170 0 30852
0.17050000 0.17049200 8188.23886686 0 8.97232555 0 2237.09679566 0 193.74464691 0 535.02137863 0 31257
0.17150000 0.17149500 8219.87249887 0 -81.22347462 0 2126.99359766 0 262.62004344 0 416.42460027 0 32608
0.17250000 0.17250900 8235.10801782 0 31.17590210 0 2219.43643757 0 39.45124695 0 450.94700182 0 32361
0.17350000 0.17350400 8301.25408628 0 15.88468935 0 1960.75371283 0 -138.56460894 0 447.04511455 0 32508
0.17450000 0.17449800 8293.82455633 0 47.37936368 0 2161.57246807 0 -225.87874800 0 299.73890517 0 32791
0.17550000 0.17549800 8221.27868412 0 187.40574095 0 2300.45263827 0 -255.55036405 0 291.66275144 0 33633
0.17650000 0.17650100 8101.32111703 0 132.16480520 0 2267.12494057 0 92.23656250 0 228.57818079 0 33984
0.17750000 0.17750300 8031.69833857 0 9.10865908 0 2107.65024620 0 178.03412522 0 161.82534892 0 34069
0.17850000 0.17849800 7956.48403608 0 169.32463452 0 2090.67637226 0 252.48000837 0 -245.31842868 0 34536
