### header ###
fiducial parameters:
Omega_m = 0.31
Omega_nu = 0
Omega_de = 0.69
Omega_k = 0
H_0 = 100
w_de = -1
zeff = 0
beta = 0
fgrowth = 0
b_1 = 2
gamma = 0.55
Lx = 3500 Ly = 3500 Lz = 3500
nx = 700 ny = 700 nz = 700
xoffset = -685.467585 yoffset = -31.7331281 zoffset = 572.489161
bins = 400 dk = 0.001
kx_ny = 0.628318531 ky_ny = 0.628318531 kz_ny = 0.628318531
############################
A(data) = 8.05622447 (not used)
A(ran) = 8.05828527 (used)
Ngal = 478824
weighted Ngal = 0
Nran = 23820508
weighted Nran = 0
SN(data) = 3482.64017
SN(ran) = 70.1905872
SN(data+ran) = 3552.83075
############################
13 columns: k_central k_mean P_0(k) sigma^{lin}_{P_0(k)} P^img_1(k) sigma^{lin}_{P_1(k)} P_2(k) sigma^{lin}_{P_2(k)} P^img_3(k) sigma^{lin}_{P_3(k)} P_4(k) sigma^{lin}_{P_4(k)} N_modes
### header ###
0.00050000 0 0 0 0 0 0 0 0 0 0 0 0
0.00150000 0.00179520 11343.37533021 0 -20870.77866691 0 -16539.72809085 0 -7666.53306605 0 -12552.25175391 0 3
0.00250000 0.00253879 14571.06873809 0 -10725.06349536 0 -3638.13341659 0 2416.40202377 0 25774.93277558 0 6
0.00350000 0.00331552 29702.84000500 0 -18248.74142660 0 -26748.30085039 0 -9168.94789302 0 -37385.81547341 0 7
0.00450000 0.00420575 32509.34217678 0 -12342.54192184 0 -20088.62964172 0 -3794.06496701 0 13383.67262454 0 24
0.00550000 0.00557378 59450.74437201 0 -15467.37343216 0 -22200.23270788 0 -26806.43055569 0 -29142.13747618 0 45
0.00650000 0.00659388 58727.05722186 0 -11882.70827212 0 -9030.11201212 0 -18412.61183392 0 9334.39057046 0 40
0.00750000 0.00754703 77743.66437464 0 4694.48856591 0 -8455.41406473 0 -35089.19385952 0 -17075.85005856 0 57
0.00850000 0.00846663 60207.98066635 0 1417.60081886 0 3769.73906938 0 -13972.05596540 0 14506.95997739 0 75
0.00950000 0.00948925 68095.01908117 0 -6404.89701459 0 15674.42590627 0 -2444.12712512 0 -18224.93592824 0 112
0.01050000 0.01054430 76731.21099322 0 -8435.01884242 0 1193.79591730 0 6459.26212945 0 -6367.40612276 0 105
0.01150000 0.01145670 74544.09467179 0 -4923.68568965 0 7226.78461356 0 -12128.51388310 0 -37169.57296970 0 144
0.01250000 0.01249090 81591.18652587 0 -526.16573324 0 -959.37154900 0 -12897.81901150 0 -11732.78899408 0 169
0.01350000 0.01339930 84349.30263819 0 4210.37330786 0 12619.79293530 0 -34050.49906829 0 -19854.78214155 0 180
0.01450000 0.01448870 78922.42407483 0 6829.22171862 0 15488.96446556 0 -13722.26431749 0 -12879.66039879 0 267
0.01550000 0.01550050 75703.80997330 0 7125.16281637 0 24802.11831702 0 -21558.25931490 0 -6850.48058227 0 238
0.01650000 0.01653350 64638.12854954 0 10044.83522013 0 31591.11427957 0 5396.69540591 0 -10758.20296354 0 315
0.01750000 0.01747870 64623.40235753 0 1753.43550293 0 39016.54747270 0 18274.31849693 0 2910.70382065 0 297
0.01850000 0.01844180 61979.66336058 0 -5348.09897228 0 29811.68095796 0 21839.93925828 0 -8574.99517278 0 388
0.01950000 0.01947590 68767.21992091 0 -8097.24650150 0 22796.14522962 0 22681.65739100 0 6334.68740292 0 399
0.02050000 0.02045430 72890.11079038 0 -4925.53476790 0 13022.16121921 0 12961.70632570 0 4736.10943490 0 462
0.02150000 0.02154770 79439.94453685 0 1308.64914264 0 14365.56638946 0 -6446.71718543 0 7943.07545073 0 571
0.02250000 0.02255340 71444.50806206 0 10274.65239406 0 14415.72402088 0 -4585.40402180 0 9196.62870507 0 510
0.02350000 0.02348930 73432.54398325 0 2050.15166342 0 32930.42268963 0 -11370.28107952 0 18827.15967513 0 555
0.02450000 0.02439640 67710.36651697 0 212.53659659 0 31593.21802128 0 -4856.50989498 0 9111.48252721 0 592
0.02550000 0.02547300 74574.21139530 0 -638.22762550 0 45268.86785129 0 8257.89486229 0 13752.27031775 0 837
0.02650000 0.02652900 73600.17898100 0 -1902.17004222 0 40363.05289389 0 6950.46367538 0 9500.06576672 0 723
0.02750000 0.02749970 72030.78766121 0 5246.59897067 0 43550.22159294 0 281.82609807 0 16346.40529951 0 826
0.02850000 0.02848090 68990.43798926 0 8299.12819992 0 41211.30369825 0 7568.00044749 0 19853.01056958 0 831
0.02950000 0.02946900 65297.15332275 0 2693.68625421 0 35209.66075355 0 9835.88937847 0 19915.90137455 0 996
0.03050000 0.03053250 59189.88039928 0 -394.59329742 0 23345.66471037 0 14946.19910295 0 6860.62283180 0 1041
0.03150000 0.03150510 63493.36088654 0 -110.61152843 0 20108.44910314 0 12221.29996508 0 -900.06153388 0 1036
0.03250000 0.03246190 60270.98219457 0 1725.15678534 0 14218.96880886 0 7090.80539246 0 -1873.24912979 0 1059
0.03350000 0.03345080 56776.33503531 0 1756.46931993 0 6167.92711883 0 -3487.71588392 0 -2977.95712160 0 1302
0.03450000 0.03451200 56713.77640008 0 1266.16463231 0 8574.75158163 0 -3676.44366046 0 -11891.45540873 0 1339
0.03550000 0.03553350 54087.75312285 0 726.98116678 0 9475.21946983 0 -3989.43613843 0 -11117.27845741 0 1365
0.03650000 0.03647120 51696.57385501 0 2638.45749801 0 5953.45618709 0 -86.28253055 0 -9975.54461141 0 1308
0.03750000 0.03744890 52136.47732006 0 1084.02599628 0 6909.46285658 0 406.69645568 0 -11310.60124874 0 1579
0.03850000 0.03847530 50844.00484398 0 1421.21039675 0 6793.49132643 0 -109.41250637 0 -11353.34042254 0 1662
0.03950000 0.03950240 48716.56835332 0 2736.56936823 0 6776.46209086 0 1967.77356677 0 -6099.28977727 0 1683
0.04050000 0.04050350 46461.91085050 0 1463.76134103 0 9386.02082109 0 440.81139568 0 -4776.37948027 0 1822
0.04150000 0.04152450 46761.74940659 0 1668.67685644 0 13115.61164068 0 -1617.11303976 0 -3794.41928140 0 1887
0.04250000 0.04250150 44133.84383413 0 1871.41112387 0 16891.82802008 0 -2296.41123971 0 2271.33242400 0 1920
0.04350000 0.04349210 44146.68773092 0 1046.78755345 0 16162.93687727 0 -2738.09734905 0 3944.75930779 0 2005
0.04450000 0.04448520 45300.86687002 0 -184.13054727 0 21977.56825578 0 3214.99345132 0 6604.84105617 0 2151
0.04550000 0.04548030 43938.86019408 0 -36.14040038 0 18908.98415554 0 5352.72720405 0 7326.71234505 0 2274
0.04650000 0.04648670 44247.66733327 0 1422.22905063 0 17907.04948270 0 7300.38235663 0 3697.76895806 0 2311
0.04750000 0.04749250 41248.17453990 0 1960.58762796 0 13485.64873612 0 617.07727063 0 4137.90494193 0 2568
0.04850000 0.04851840 40134.63083288 0 2608.51793170 0 14885.85493268 0 -1493.75626896 0 3977.16800253 0 2493
0.04950000 0.04949480 37146.65325732 0 1967.38603540 0 13369.83221852 0 -770.45111402 0 3697.75788573 0 2644
0.05050000 0.05050630 37016.11054771 0 943.70199492 0 16261.81273790 0 -2663.60274767 0 494.41584182 0 2829
0.05150000 0.05149060 35599.73875691 0 526.31188793 0 13006.65996446 0 -1311.14041572 0 -1430.90975329 0 2784
0.05250000 0.05249300 35806.56978452 0 1130.40685771 0 15738.20249722 0 935.76978142 0 -1012.25961573 0 3055
0.05350000 0.05348950 35403.98005412 0 19.51508322 0 14466.76743830 0 2053.22976972 0 1723.17483920 0 3009
0.05450000 0.05448610 34979.35639732 0 338.65591244 0 15568.02086476 0 2400.52430998 0 -1713.57513358 0 3336
0.05550000 0.05550870 34070.42925296 0 383.27516699 0 15356.53946073 0 2701.89084690 0 645.29176873 0 3349
0.05650000 0.05647670 34795.77725183 0 562.52060455 0 15680.84785466 0 726.65010427 0 1042.90116744 0 3324
0.05750000 0.05747970 33709.02857088 0 910.20931958 0 15359.63971167 0 -1400.22834122 0 2473.83417261 0 3639
0.05850000 0.05849280 33967.01373915 0 552.70720306 0 17383.99285827 0 172.21451130 0 4711.36278893 0 3846
0.05950000 0.05951020 33080.56341417 0 1148.52118111 0 20188.39128833 0 26.93221217 0 4561.25528137 0 3787
0.06050000 0.06049470 32779.06400936 0 349.82345925 0 18008.36125479 0 2588.04520311 0 8004.06181583 0 3930
0.06150000 0.06148310 32303.28621190 0 -536.71655156 0 18983.39017832 0 3976.74725419 0 5631.46190904 0 4083
0.06250000 0.06249100 33813.99421016 0 -1192.55581692 0 14733.16757344 0 3465.01761805 0 4373.23613362 0 4303
0.06350000 0.06350600 34170.63379257 0 -785.46407924 0 15454.86170511 0 1162.00727274 0 2868.88364981 0 4470
0.06450000 0.06451750 34311.91665725 0 922.17739547 0 13211.05508062 0 -1878.27596526 0 1717.51688122 0 4479
0.06550000 0.06550280 33125.18488319 0 1565.78174190 0 13565.92309105 0 -1092.26823487 0 3418.98996378 0 4636
0.06650000 0.06648880 33025.09106683 0 -520.02170020 0 11438.81877014 0 773.12286600 0 975.07542729 0 4653
0.06750000 0.06749660 32423.97455243 0 44.16916455 0 12490.68962791 0 2073.44783484 0 523.05994613 0 5220
0.06850000 0.06852730 33213.65275849 0 366.82279954 0 10565.03518476 0 1865.53171939 0 -2516.65085268 0 5029
0.06950000 0.06949320 31658.54473771 0 1548.20996242 0 10573.45015162 0 2874.65233104 0 -1307.48654853 0 5040
0.07050000 0.07048030 30264.20687330 0 1327.72675830 0 8879.09657392 0 333.24486730 0 810.92046123 0 5475
0.07150000 0.07148790 29434.77902114 0 136.40993453 0 9376.99687636 0 507.15898046 0 1083.43584136 0 5509
0.07250000 0.07249820 29415.73462245 0 390.53750484 0 9818.45046688 0 408.74151408 0 -632.32054021 0 5916
0.07350000 0.07351270 29396.13660752 0 821.00513468 0 9997.72247802 0 -1421.32112000 0 -170.28017615 0 5721
0.07450000 0.07449140 28791.03405618 0 1042.60110743 0 11519.20384833 0 -419.53592354 0 1244.00891035 0 6028
0.07550000 0.07549160 27646.93073267 0 1364.77475715 0 11146.62011818 0 -638.39592484 0 2076.34878394 0 6183
0.07650000 0.07648840 27389.49918064 0 -169.05668426 0 11174.96526972 0 1266.86218878 0 2109.37752888 0 6330
0.07750000 0.07749960 26748.07940389 0 -264.97180524 0 10601.25275924 0 2682.79108658 0 1543.03918673 0 6583
0.07850000 0.07848650 26877.07198803 0 270.67294528 0 9345.10858089 0 2461.48853043 0 244.19126602 0 6549
0.07950000 0.07947320 26422.77450072 0 311.99043258 0 8224.11319927 0 1355.90582497 0 1096.78574340 0 6828
0.08050000 0.08048110 25786.55871664 0 924.36639409 0 6897.11721441 0 434.73601105 0 888.55960286 0 7147
0.08150000 0.08149960 25061.09999452 0 901.56958452 0 6448.54411903 0 20.83977616 0 1012.84202002 0 7386
0.08250000 0.08250610 23775.16019009 0 740.77285457 0 6643.22880632 0 43.37693971 0 2332.00876400 0 7227
0.08350000 0.08350160 23698.65042559 0 531.16599513 0 6667.98652461 0 997.13703450 0 577.40180911 0 7798
0.08450000 0.08449610 22878.41260302 0 126.82240847 0 6804.70759147 0 449.80212343 0 114.64063671 0 7371
0.08550000 0.08548940 23146.58431013 0 603.08738822 0 7254.60936583 0 -18.35437141 0 384.97144715 0 8256
0.08650000 0.08650700 21961.62410804 0 986.49653034 0 6787.00294409 0 -955.37333251 0 743.02828714 0 8037
0.08750000 0.08749060 21704.85689550 0 878.52032595 0 7606.03388325 0 427.41831158 0 1877.92165087 0 8155
0.08850000 0.08849210 21268.38585114 0 -35.97531201 0 6811.00774429 0 406.84150314 0 1154.61095976 0 8718
0.08950000 0.08949900 21516.07375734 0 18.97486449 0 7648.49624893 0 826.48704269 0 1238.39524167 0 8571
0.09050000 0.09049190 21468.46276062 0 238.31186154 0 6585.15446264 0 814.54664761 0 1567.79690502 0 8932
0.09150000 0.09150830 20736.02847386 0 565.90541425 0 6481.96039533 0 274.57704702 0 1509.85542925 0 9285
0.09250000 0.09250820 20495.64830205 0 531.29554133 0 6377.99126528 0 626.93053249 0 1373.25615796 0 9204
0.09350000 0.09350330 19696.00500365 0 780.33094945 0 6277.85315963 0 424.31584617 0 1201.45796607 0 9349
0.09450000 0.09448040 19402.47767271 0 605.97394330 0 5891.50652973 0 786.26128663 0 2530.71270520 0 9564
0.09550000 0.09549270 18828.93124710 0 267.44425537 0 5730.96889218 0 272.13559939 0 1592.86464841 0 10155
0.09650000 0.09649430 18444.38940615 0 355.65968166 0 5757.13279573 0 173.67716541 0 1991.31332933 0 9913
0.09750000 0.09749140 18065.16228111 0 471.36104709 0 5526.04230444 0 -75.36134297 0 1141.96636482 0 10476
0.09850000 0.09850240 17634.44884567 0 498.15607315 0 6230.16465663 0 -1027.43091520 0 1615.85079473 0 10575
0.09950000 0.09950330 17426.73203207 0 707.22038868 0 6373.62876931 0 -792.59354919 0 1176.55630755 0 10882
0.10050000 0.10051200 16806.23894923 0 82.03064710 0 7133.36740906 0 205.71161557 0 1882.31736382 0 10875
0.10150000 0.10150300 17038.53632393 0 -84.43367375 0 6786.79256991 0 965.54437009 0 2324.77853590 0 11118
0.10250000 0.10250800 17209.82518887 0 5.38594418 0 6872.16019427 0 1232.51583719 0 2084.69731685 0 11575
0.10350000 0.10349800 16987.93579950 0 409.14011777 0 6527.33478244 0 519.79914647 0 1696.87806776 0 11364
0.10450000 0.10450100 16592.32163373 0 375.30530759 0 6624.11797368 0 -60.60935244 0 2236.36602222 0 12093
0.10550000 0.10551000 16361.57438451 0 284.60968053 0 6395.17551340 0 -589.82938648 0 1702.72425526 0 12067
0.10650000 0.10649700 16029.62608645 0 184.66534056 0 6935.06207156 0 419.08195822 0 1703.44395637 0 12054
0.10750000 0.10749900 15885.90731030 0 38.78458227 0 6352.60242448 0 260.75989287 0 775.87544595 0 12807
0.10850000 0.10850100 15740.19551569 0 112.52582267 0 5738.54236236 0 1046.14425138 0 663.65964837 0 12736
0.10950000 0.10950300 15466.93053917 0 309.22345861 0 4967.99713358 0 886.68727273 0 633.98692509 0 12933
0.11050000 0.11050200 15343.14194769 0 157.01885272 0 5035.22828988 0 573.32276464 0 767.80261392 0 13428
0.11150000 0.11150900 14839.12972195 0 498.77390887 0 4038.65262225 0 700.75193652 0 518.71959480 0 13453
0.11250000 0.11250000 14687.21742544 0 436.45111417 0 4383.95414405 0 -3.62754827 0 1338.56656430 0 13668
0.11350000 0.11349100 14390.14695055 0 -9.83771631 0 3898.16696495 0 840.28648111 0 1272.89660580 0 13791
0.11450000 0.11448600 14514.82132801 0 -34.92676285 0 4261.91497989 0 -280.74433194 0 1486.78070432 0 14205
0.11550000 0.11549300 14767.38105712 0 -178.80365180 0 3852.79257785 0 440.97858778 0 1398.53427552 0 14776
0.11650000 0.11649800 14656.87925543 0 -194.90281209 0 4077.35039749 0 267.62473426 0 1577.60698481 0 14553
0.11750000 0.11747300 14767.71322687 0 313.71107185 0 4190.64242504 0 -13.62106327 0 1763.14593180 0 14568
0.11850000 0.11849100 14789.85787651 0 139.23337736 0 4120.64318753 0 311.14782866 0 1561.51889685 0 16015
0.11950000 0.11950300 14435.98637530 0 305.69138699 0 4248.30709269 0 76.09078773 0 2929.15031380 0 15270
0.12050000 0.12050700 14479.27916534 0 136.10212390 0 4213.49570346 0 -73.80080951 0 2435.47963943 0 15999
0.12150000 0.12150000 14290.05313419 0 -22.51158648 0 4773.76641161 0 460.16803393 0 2373.44140348 0 15670
0.12250000 0.12250700 14491.23727615 0 196.00672287 0 5201.16922194 0 -528.26836772 0 1921.09264533 0 16887
0.12350000 0.12352200 14099.60914731 0 380.69642254 0 4942.57507580 0 -627.59708644 0 2448.79964619 0 16407
0.12450000 0.12449800 14026.64252676 0 191.70180298 0 4984.66098243 0 196.39979040 0 2150.21226281 0 16306
0.12550000 0.12549900 13918.46591328 0 133.45583827 0 4829.32733755 0 -199.60412120 0 1377.14254397 0 17523
0.12650000 0.12650100 14013.35573698 0 252.63280646 0 4654.91607701 0 245.30957082 0 994.78084377 0 17154
0.12750000 0.12750600 13410.68909710 0 339.03126425 0 4666.11019740 0 112.89453108 0 929.93134454 0 18007
0.12850000 0.12850300 13148.93933838 0 300.53279086 0 4314.27600396 0 434.36840987 0 1221.36600610 0 17496
0.12950000 0.12949900 12958.60607475 0 68.93906240 0 4478.53394265 0 832.98871183 0 841.62733965 0 18405
0.13050000 0.13049000 12913.20954299 0 35.41903842 0 4122.94623110 0 506.46806739 0 934.32816473 0 18100
0.13150000 0.13148800 12857.40502591 0 196.84711232 0 4383.76591452 0 463.64031499 0 1256.02238278 0 19059
0.13250000 0.13249300 12856.18707018 0 24.07023765 0 3714.70961503 0 -44.29251025 0 1412.54076641 0 18957
0.13350000 0.13349100 12626.65777669 0 8.04738782 0 3854.50878819 0 109.38028591 0 1665.89770291 0 19468
0.13450000 0.13450700 12981.85795687 0 3.98934756 0 3869.31248647 0 -184.77495657 0 1303.43407765 0 19953
0.13550000 0.13551000 12497.77591580 0 288.80498441 0 3600.23284873 0 218.33406587 0 550.93341663 0 19956
0.13650000 0.13649900 12627.65428592 0 413.19480312 0 3638.07805496 0 -345.61265412 0 426.55356301 0 19723
0.13750000 0.13749600 11865.76761515 0 494.45902389 0 3868.43777281 0 -277.19565183 0 582.70655993 0 20946
0.13850000 0.13851100 11658.05080155 0 437.27268067 0 3875.50191605 0 -235.86598498 0 73.90998263 0 20955
0.13950000 0.13949800 11303.62568411 0 210.46164292 0 3940.23072694 0 74.18490845 0 465.14836563 0 20506
0.14050000 0.14048300 11365.74142634 0 -20.42478542 0 4027.13740444 0 216.18935655 0 366.99663504 0 21447
0.14150000 0.14148400 11292.99625228 0 17.00299416 0 4329.47830594 0 206.16558089 0 520.30404448 0 21771
0.14250000 0.14249400 11258.45059885 0 186.84548131 0 4124.25276542 0 377.54413167 0 355.17692830 0 22470
0.14350000 0.14350900 10934.39686838 0 270.98297038 0 3987.73100041 0 -12.34243120 0 635.34549935 0 22519
0.14450000 0.14449900 10891.59126063 0 306.75211571 0 4089.26421900 0 343.36165049 0 529.82956552 0 22218
0.14550000 0.14550500 10468.00840237 0 174.59838283 0 3853.77801475 0 229.90353807 0 580.32933179 0 23559
0.14650000 0.14650700 10450.75772030 0 128.76117255 0 3461.04265344 0 92.83557527 0 542.08441463 0 23044
0.14750000 0.14750500 10326.52623584 0 70.26530547 0 3562.77517387 0 338.85299982 0 200.68145841 0 23649
0.14850000 0.14849900 10247.56948755 0 131.55472010 0 3107.01613969 0 318.65375765 0 303.34626859 0 23640
0.14950000 0.14949500 10145.02868741 0 91.58019508 0 2963.89526908 0 112.77052105 0 33.43554215 0 24457
0.15050000 0.15050000 10080.73169719 0 113.23112976 0 2877.86330524 0 -50.63817033 0 88.25606173 0 24591
0.15150000 0.15149900 10020.07750183 0 104.78903570 0 3062.90399761 0 -56.71621231 0 162.22284538 0 25020
0.15250000 0.15250500 9870.71184003 0 162.32803247 0 3032.12293461 0 160.67825607 0 377.67589233 0 25297
0.15350000 0.15350100 9787.52546367 0 136.63470273 0 3260.56714027 0 263.40728574 0 629.24354114 0 25452
0.15450000 0.15450400 9635.82354132 0 158.36192572 0 3058.41970606 0 257.17245963 0 825.89467332 0 26061
0.15550000 0.15549900 9705.36881351 0 76.46159988 0 3461.65163130 0 142.72669584 0 717.97272331 0 26128
0.15650000 0.15649500 9494.11992830 0 147.55312223 0 3240.28264120 0 -155.82747057 0 947.65702935 0 26331
0.15750000 0.15749700 9399.85015479 0 120.12475919 0 3500.53763606 0 -92.88595435 0 1050.31408890 0 27345
0.15850000 0.15849900 9307.16372373 0 116.70562529 0 3523.19161264 0 50.86127767 0 788.17236989 0 26980
0.15950000 0.15949700 9271.14545110 0 83.94195181 0 3441.02389016 0 207.98476386 0 699.45093835 0 27777
0.16050000 0.16050000 9143.41511199 0 109.33023900 0 2954.72738413 0 473.54340231 0 640.71336242 0 28224
0.16150000 0.16150500 9048.73566247 0 135.69576958 0 2661.63187386 0 406.05426084 0 252.32388859 0 28075
0.16250000 0.16249700 8852.54513900 0 182.33572342 0 2359.88887790 0 167.71028956 0 409.12793821 0 28590
0.16350000 0.16349900 8705.69289493 0 157.17275803 0 1986.66295291 0 230.30989239 0 -49.17640200 0 29163
0.16450000 0.16449100 8602.24416415 0 -10.53934739 0 1885.30689152 0 -120.13915321 0 195.18515637 0 28996
0.16550000 0.16550500 8646.93206712 0 -0.60998766 0 1954.26533049 0 23.81214175 0 -433.13716735 0 30777
0.16650000 0.16650700 8751.54339201 0 -23.04837279 0 1955.64937109 0 -52.20601152 0 -185.14477222 0 29211
0.16750000 0.16749900 8638.37316004 0 28.40704583 0 1794.15951361 0 92.57382551 0 -131.92453575 0 30922
0.16850000 0.16850800 8717.77280131 0 32.97238680 0 1993.01846736 0 35.54138761 0 -276.17367625 0 30867
0.16950000 0.16949900 8585.64674925 0 68.85923094 0 2083.31327625 0 311.31723523 0 -219.72696433 0 30852
0.17050000 0.17049200 8662.27830932 0 252.73910078 0 1999.19682461 0 -72.32198980 0 -29.09640877 0 31257
0.17150000 0.17149500 8366.51436876 0 123.38112992 0 1985.07961046 0 -44.76385912 0 -39.21452064 0 32608
0.17250000 0.17250900 8536.91744772 0 38.73763561 0 2489.75617570 0 -348.22683001 0 65.35517230 0 32361
0.17350000 0.17350400 8320.34277427 0 186.25089747 0 2581.13607242 0 -96.71365704 0 345.43992585 0 32508
0.17450000 0.17449800 8381.12983753 0 170.32225099 0 2894.07318877 0 20.47737897 0 606.60838751 0 32791
0.17550000 0.17549800 8063.24339198 0 123.09767840 0 2664.87606503 0 287.28032528 0 797.89940724 0 33633
0.17650000 0.17650100 8029.45065664 0 194.29272699 0 2545.48318651 0 436.62605690 0 755.45918621 0 33984
0.17750000 0.17750300 7923.03454280 0 64.25203658 0 2256.70588291 0 392.33232869 0 801.57763355 0 34069
0.17850000 0.17849800 7803.47557941 0 -6.37737122 0 2073.81322156 0 264.00962021 0 607.49638796 0 34536
