### header ###
fiducial parameters:
Omega_m = 0.31
Omega_nu = 0
Omega_de = 0.69
Omega_k = 0
H_0 = 100
w_de = -1
zeff = 0
beta = 0
fgrowth = 0
b_1 = 2
gamma = 0.55
Lx = 3500 Ly = 3500 Lz = 3500
nx = 700 ny = 700 nz = 700
xoffset = -685.467585 yoffset = -31.7331281 zoffset = 572.489161
bins = 400 dk = 0.001
kx_ny = 0.628318531 ky_ny = 0.628318531 kz_ny = 0.628318531
############################
A(data) = 8.02223112 (not used)
A(ran) = 8.01533521 (used)
Ngal = 477159
weighted Ngal = 0
Nran = 23820508
weighted Nran = 0
SN(data) = 3491.94789
SN(ran) = 69.8164766
SN(data+ran) = 3561.76437
############################
13 columns: k_central k_mean P_0(k) sigma^{lin}_{P_0(k)} P^img_1(k) sigma^{lin}_{P_1(k)} P_2(k) sigma^{lin}_{P_2(k)} P^img_3(k) sigma^{lin}_{P_3(k)} P_4(k) sigma^{lin}_{P_4(k)} N_modes
### header ###
0.00050000 0 0 0 0 0 0 0 0 0 0 0 0
0.00150000 0.00179520 3499.45254823 0 -11184.59819231 0 -2804.14376660 0 14085.10440180 0 -1595.52200637 0 3
0.00250000 0.00253879 15308.15340127 0 -28824.02958414 0 -24245.62327163 0 10083.37798282 0 -15696.79200240 0 6
0.00350000 0.00331552 29585.80553166 0 -33947.96934047 0 -12939.89384581 0 -4115.78243694 0 -4433.53601458 0 7
0.00450000 0.00420575 52956.05080313 0 -31929.81669577 0 -14256.61471324 0 -4418.53301445 0 -18373.96942030 0 24
0.00550000 0.00557378 66186.70389868 0 1732.36486880 0 6235.16934745 0 -13576.22035313 0 22257.47662719 0 45
0.00650000 0.00659388 55741.51555776 0 28247.93652383 0 10892.06737060 0 -16652.00146451 0 20739.79306430 0 40
0.00750000 0.00754703 53175.72572753 0 6332.08540659 0 13647.41540172 0 9447.37257291 0 39358.57158635 0 57
0.00850000 0.00846663 53646.63170207 0 754.11832768 0 35636.83104505 0 14981.51981912 0 41670.58373173 0 75
0.00950000 0.00948925 66618.19239686 0 -6721.87552950 0 35879.64712833 0 16836.24494949 0 7603.34330831 0 112
0.01050000 0.01054430 70061.68541546 0 -15392.08162339 0 25232.72102921 0 37459.00354046 0 25671.40653853 0 105
0.01150000 0.01145670 81816.06544293 0 -5024.79815990 0 24467.29121450 0 21747.15317630 0 -16315.40279002 0 144
0.01250000 0.01249090 87653.94870357 0 -10365.09114318 0 5202.78578136 0 10546.30081116 0 8403.50700598 0 169
0.01350000 0.01339930 91541.77411714 0 1387.71661417 0 2841.61251378 0 16429.55845890 0 1088.11611307 0 180
0.01450000 0.01448870 85662.59108493 0 1856.06488167 0 -8654.54982660 0 995.08422547 0 10280.78646201 0 267
0.01550000 0.01550050 94016.99233035 0 -3663.98729504 0 -2565.60160070 0 -12284.63366304 0 27716.79710228 0 238
0.01650000 0.01653350 84648.91974778 0 7478.13745927 0 -2431.83684457 0 -5270.62591552 0 3504.65654090 0 315
0.01750000 0.01747870 81542.80046641 0 6902.76410006 0 -2222.59205015 0 -17750.37608652 0 -24253.81679200 0 297
0.01850000 0.01844180 75684.76557461 0 6094.82763037 0 -654.69438697 0 -13861.11127072 0 -2270.57950591 0 388
0.01950000 0.01947590 75950.61209350 0 184.03643251 0 21561.02739610 0 -20368.31656664 0 -8877.67931634 0 399
0.02050000 0.02045430 78800.62850182 0 -693.18621697 0 28222.13800700 0 -11374.93145594 0 -11557.07119921 0 462
0.02150000 0.02154770 76701.20499296 0 3217.96083437 0 34852.46755490 0 -9471.42166242 0 -24868.88443567 0 571
0.02250000 0.02255340 70495.27765536 0 5353.60191771 0 30141.41479106 0 13436.93050692 0 -6221.99328091 0 510
0.02350000 0.02348930 76714.93467574 0 -1512.02560491 0 28639.78609916 0 10332.56065286 0 -18325.91553059 0 555
0.02450000 0.02439640 73498.31359267 0 -638.22541103 0 25487.16305355 0 17962.18966030 0 -4961.17658149 0 592
0.02550000 0.02547300 75930.23901584 0 3132.57106537 0 23389.95400965 0 8685.80699956 0 -11902.08484056 0 837
0.02650000 0.02652900 66409.36835078 0 6219.78988828 0 16851.85692748 0 1726.71798314 0 471.57474296 0 723
0.02750000 0.02749970 65105.49138014 0 3284.78231465 0 13581.09217606 0 4404.77011470 0 6123.78175977 0 826
0.02850000 0.02848090 61779.36500462 0 1279.18568630 0 14470.64275199 0 1120.36425910 0 -1517.43997175 0 831
0.02950000 0.02946900 60797.47123970 0 2059.35276534 0 14062.51685917 0 3755.59971059 0 -2065.79685839 0 996
0.03050000 0.03053250 59692.67466929 0 -1161.53116278 0 9003.35020303 0 3320.72308101 0 1393.07561938 0 1041
0.03150000 0.03150510 58095.04892121 0 472.45167108 0 9696.52202598 0 5786.34158860 0 5391.18138815 0 1036
0.03250000 0.03246190 60182.62504252 0 -1725.88755878 0 7537.71763911 0 -869.63257081 0 -2295.48116443 0 1059
0.03350000 0.03345080 60550.44767299 0 4132.84488948 0 12504.53003394 0 311.53646726 0 -1287.84424431 0 1302
0.03450000 0.03451200 54577.70349607 0 3567.97916654 0 8399.49882440 0 -4343.82803890 0 3944.21676387 0 1339
0.03550000 0.03553350 52504.07850404 0 2853.03915300 0 13669.11715836 0 -880.10588286 0 5355.55064688 0 1365
0.03650000 0.03647120 51919.68120011 0 1077.70702050 0 15625.70767707 0 748.34743198 0 3126.19340627 0 1308
0.03750000 0.03744890 50082.22889645 0 1754.29914427 0 19065.65755172 0 1162.32837016 0 -1567.81904967 0 1579
0.03850000 0.03847530 47060.59145344 0 3940.99471735 0 14554.79242061 0 753.75294096 0 -886.83453465 0 1662
0.03950000 0.03950240 44997.37444674 0 2777.30445124 0 15882.03199662 0 427.85566841 0 2753.99720749 0 1683
0.04050000 0.04050350 43174.42688860 0 -150.12965222 0 16483.14851102 0 3802.64601874 0 4704.42044127 0 1822
0.04150000 0.04152450 44198.94910407 0 765.20504652 0 15094.90042526 0 4796.56432841 0 2299.19039324 0 1887
0.04250000 0.04250150 42590.25103116 0 1108.20684645 0 12984.95820782 0 6132.36281151 0 6139.26086987 0 1920
0.04350000 0.04349210 43492.09188764 0 100.29356110 0 11795.34762930 0 2702.21194432 0 4301.94143411 0 2005
0.04450000 0.04448520 40102.52109091 0 38.99650656 0 9954.37432636 0 1408.76510365 0 6814.56196056 0 2151
0.04550000 0.04548030 39652.98470327 0 2318.99878234 0 10505.65430675 0 695.29770931 0 1499.90140923 0 2274
0.04650000 0.04648670 39193.37250005 0 1773.90823152 0 8680.72480247 0 -3492.11159688 0 2898.76785450 0 2311
0.04750000 0.04749250 36639.43005738 0 1019.93938023 0 11143.74131373 0 -2586.80510273 0 2490.34300891 0 2568
0.04850000 0.04851840 37553.78264091 0 819.86579245 0 13293.98679351 0 -2433.22088517 0 4029.00862733 0 2493
0.04950000 0.04949480 37726.28946158 0 -268.32118349 0 12964.03151391 0 1187.77257260 0 3791.23045185 0 2644
0.05050000 0.05050630 38035.20732402 0 -456.21853567 0 12829.94566036 0 3285.19199067 0 3836.04015039 0 2829
0.05150000 0.05149060 38538.33376378 0 279.21524388 0 12895.93671628 0 1364.30971950 0 5002.64243794 0 2784
0.05250000 0.05249300 38968.49358298 0 -544.05750292 0 14956.27491853 0 1670.12733099 0 2650.02807745 0 3055
0.05350000 0.05348950 37843.43465816 0 661.97444054 0 16591.65729425 0 -820.79254604 0 3780.88890047 0 3009
0.05450000 0.05448610 37369.64987917 0 2659.76065096 0 15109.95878701 0 412.53046363 0 3700.08307395 0 3336
0.05550000 0.05550870 36670.43256687 0 1112.84615055 0 15049.28244701 0 -1692.80345222 0 4540.11821329 0 3349
0.05650000 0.05647670 35879.09351209 0 -161.95710959 0 15595.92312330 0 3399.82376951 0 6872.23770054 0 3324
0.05750000 0.05747970 35872.56084044 0 -13.02072182 0 15183.25757731 0 955.03119768 0 3174.14764506 0 3639
0.05850000 0.05849280 36279.91167052 0 1155.64068597 0 15518.63829607 0 1629.94586423 0 3986.07015169 0 3846
0.05950000 0.05951020 34738.53333252 0 1091.85080823 0 13167.20867433 0 1023.05956136 0 5264.38112432 0 3787
0.06050000 0.06049470 34197.42881863 0 54.82151609 0 12643.70915691 0 1227.03503640 0 3956.72849092 0 3930
0.06150000 0.06148310 34372.15010427 0 -740.16941287 0 12428.13099269 0 1301.69572265 0 2061.39007311 0 4083
0.06250000 0.06249100 34819.80419669 0 709.82349224 0 13065.23256275 0 1300.44454995 0 212.75582862 0 4303
0.06350000 0.06350600 33466.76610385 0 1000.84404884 0 11728.80295714 0 -518.89896646 0 724.48767923 0 4470
0.06450000 0.06451750 32207.17843248 0 1141.65633973 0 10557.18490646 0 779.19160723 0 1822.12820611 0 4479
0.06550000 0.06550280 32871.85009134 0 -647.34568499 0 11301.85411214 0 1698.93752017 0 699.90933260 0 4636
0.06650000 0.06648880 31716.89588951 0 -87.83852436 0 10512.47485884 0 1779.22294743 0 394.55675875 0 4653
0.06750000 0.06749660 32492.40151981 0 723.73254668 0 10490.73988522 0 1370.63201698 0 -1139.49723639 0 5220
0.06850000 0.06852730 30814.83358653 0 1168.09705139 0 10530.00234903 0 -749.35612077 0 1592.05636870 0 5029
0.06950000 0.06949320 30877.17077526 0 1463.67276243 0 10629.66434472 0 -116.74770012 0 2216.41369290 0 5040
0.07050000 0.07048030 29065.18481869 0 1330.22910371 0 12302.68155249 0 -296.19686846 0 3134.24298641 0 5475
0.07150000 0.07148790 28404.72064326 0 814.74927115 0 11311.37631148 0 967.47870524 0 2659.81601258 0 5509
0.07250000 0.07249820 27354.84280395 0 544.91450086 0 10663.70067121 0 264.53334117 0 1321.32695456 0 5916
0.07350000 0.07351270 27256.52055957 0 484.36881428 0 10285.25968124 0 993.72565122 0 1204.30355355 0 5721
0.07450000 0.07449140 26681.97762473 0 -396.58853035 0 10744.77223354 0 606.75564943 0 1534.35848407 0 6028
0.07550000 0.07549160 26994.43863111 0 164.88020334 0 9466.77128599 0 569.80065812 0 -2304.95907447 0 6183
0.07650000 0.07648840 26491.20146810 0 346.47740269 0 8725.65629658 0 272.94166464 0 -548.11772443 0 6330
0.07750000 0.07749960 26031.81071137 0 683.60865600 0 8862.33307414 0 -91.96307608 0 -1767.97346542 0 6583
0.07850000 0.07848650 25983.64609841 0 627.52622356 0 8190.86300784 0 -106.75835939 0 -1427.96451489 0 6549
0.07950000 0.07947320 25406.88869861 0 195.50736102 0 8699.34845281 0 598.52669763 0 -956.80387688 0 6828
0.08050000 0.08048110 25034.96930795 0 315.62658405 0 7235.87499223 0 1459.14418158 0 -2188.47821738 0 7147
0.08150000 0.08149960 24328.77643102 0 610.69296814 0 7425.52177173 0 1389.92000681 0 -2486.00265758 0 7386
0.08250000 0.08250610 23668.75514858 0 731.35362785 0 6012.67098022 0 -61.28797523 0 -3128.36358194 0 7227
0.08350000 0.08350160 22928.45951120 0 925.65410547 0 5924.07023702 0 550.00444858 0 -1241.78337306 0 7798
0.08450000 0.08449610 22308.63076786 0 793.12612801 0 5557.10017556 0 -396.39033574 0 -1990.47183265 0 7371
0.08550000 0.08548940 21643.95910899 0 661.42525323 0 6636.49683283 0 551.36855899 0 -514.12125830 0 8256
0.08650000 0.08650700 21111.82317821 0 257.69839506 0 6106.34284818 0 754.75830805 0 -23.00939821 0 8037
0.08750000 0.08749060 20975.41213644 0 231.97627728 0 6904.56888901 0 615.28133954 0 1062.38070849 0 8155
0.08850000 0.08849210 20982.05553133 0 78.10329348 0 7137.60810947 0 13.79179852 0 1122.09154177 0 8718
0.08950000 0.08949900 21191.98680990 0 277.25765685 0 7631.67738753 0 83.82624601 0 1622.10665826 0 8571
0.09050000 0.09049190 20497.41987402 0 457.04342386 0 7223.51827774 0 256.67974118 0 2630.51864111 0 8932
0.09150000 0.09150830 20853.06294720 0 395.43811581 0 8014.54730743 0 -468.91406330 0 1983.33018314 0 9285
0.09250000 0.09250820 20247.40677962 0 309.97416223 0 7017.31837264 0 594.94147885 0 2374.47112968 0 9204
0.09350000 0.09350330 19954.43306492 0 338.02146823 0 7767.51266840 0 740.17273457 0 912.03293147 0 9349
0.09450000 0.09448040 19607.98002134 0 84.07050150 0 6751.73758954 0 1124.58281486 0 1456.98507824 0 9564
0.09550000 0.09549270 18982.83656208 0 637.74044321 0 6857.14612181 0 924.77385564 0 1579.37855678 0 10155
0.09650000 0.09649430 18715.99353395 0 689.23893317 0 6388.57640781 0 621.13749214 0 1727.64805843 0 9913
0.09750000 0.09749140 18053.42561680 0 327.18276946 0 5719.87442271 0 1482.04174930 0 3421.16013944 0 10476
0.09850000 0.09850240 17563.03235058 0 300.36449152 0 5226.23696532 0 543.25808106 0 4033.54828051 0 10575
0.09950000 0.09950330 17533.69068982 0 325.03806014 0 4635.21841115 0 875.27724201 0 3389.94725578 0 10882
0.10050000 0.10051200 17359.41229717 0 261.24486070 0 4943.57158503 0 201.40780292 0 3036.49650292 0 10875
0.10150000 0.10150300 16773.57559102 0 767.97423496 0 4742.86355304 0 -834.96733627 0 3291.59179441 0 11118
0.10250000 0.10250800 16264.47009585 0 459.78825319 0 4667.20635756 0 -528.75887171 0 2341.86313309 0 11575
0.10350000 0.10349800 16268.12396304 0 -134.20100573 0 5076.58342308 0 -252.56858697 0 2985.04340948 0 11364
0.10450000 0.10450100 16368.88211889 0 -124.18608793 0 5031.15367434 0 -279.46658566 0 549.08101669 0 12093
0.10550000 0.10551000 16151.86455245 0 232.78898592 0 4914.26314123 0 422.39479781 0 733.65667141 0 12067
0.10650000 0.10649700 16204.01520234 0 278.35160255 0 4518.13964852 0 325.14656893 0 -247.50632007 0 12054
0.10750000 0.10749900 15723.47630522 0 474.92190675 0 4440.21262645 0 -404.38012533 0 234.66463774 0 12807
0.10850000 0.10850100 15555.28769122 0 382.94189002 0 4760.73428530 0 -35.30377551 0 183.93235265 0 12736
0.10950000 0.10950300 14980.63403313 0 322.73280212 0 4651.43936701 0 100.43030431 0 558.84127101 0 12933
0.11050000 0.11050200 15017.50487478 0 309.68185285 0 4764.48780341 0 228.25043997 0 766.96997510 0 13428
0.11150000 0.11150900 14535.08368243 0 268.59799161 0 4759.33917237 0 400.23796861 0 1001.11864250 0 13453
0.11250000 0.11250000 14755.53366957 0 -202.32902034 0 5082.25245338 0 290.43815232 0 1698.51677183 0 13668
0.11350000 0.11349100 14807.46287297 0 -12.29404514 0 4871.24715931 0 502.69904802 0 1382.20259641 0 13791
0.11450000 0.11448600 15015.29040981 0 -14.09274431 0 5253.76276482 0 647.08659259 0 1359.75899400 0 14205
0.11550000 0.11549300 14618.67973481 0 -5.36255943 0 4332.93287128 0 398.97572359 0 803.84967460 0 14776
0.11650000 0.11649800 14652.11815576 0 186.14903208 0 4676.38531483 0 -459.36971931 0 741.09616646 0 14553
0.11750000 0.11747300 14543.05575630 0 204.59109630 0 4410.00732434 0 -79.04532688 0 627.80635338 0 14568
0.11850000 0.11849100 14483.59737202 0 18.18031446 0 4371.60850187 0 -78.84790733 0 196.04436877 0 16015
0.11950000 0.11950300 14400.77638238 0 47.97904080 0 4140.89446963 0 113.34849640 0 657.33070751 0 15270
0.12050000 0.12050700 14604.83932879 0 -12.58491511 0 4573.31304309 0 120.84113861 0 17.38709311 0 15999
0.12150000 0.12150000 14468.42828702 0 231.62307011 0 4162.30834583 0 282.76946015 0 1401.54594787 0 15670
0.12250000 0.12250700 14251.18927408 0 464.35337271 0 4705.94842210 0 53.15502048 0 797.47201551 0 16887
0.12350000 0.12352200 13682.95756439 0 463.55173639 0 4636.18170341 0 210.13279487 0 1573.21127186 0 16407
0.12450000 0.12449800 13453.64971739 0 377.89512436 0 4846.13512663 0 691.25741799 0 1154.48916419 0 16306
0.12550000 0.12549900 13221.35234270 0 260.15423671 0 4211.40303407 0 121.64498939 0 1158.51949042 0 17523
0.12650000 0.12650100 13011.75323388 0 63.42626260 0 4231.54359292 0 128.72574111 0 975.13964678 0 17154
0.12750000 0.12750600 12840.79653868 0 74.80960902 0 3705.68567030 0 -124.30013288 0 210.41846085 0 18007
0.12850000 0.12850300 12983.29735910 0 -8.34299675 0 3751.34793786 0 -546.39819238 0 318.36698444 0 17496
0.12950000 0.12949900 12972.22503428 0 -69.09152831 0 4034.40084952 0 -114.05158903 0 -420.73062739 0 18405
0.13050000 0.13049000 12999.46295333 0 81.26588162 0 4258.58221012 0 94.15805375 0 -519.80800433 0 18100
0.13150000 0.13148800 13063.46099078 0 238.70271460 0 4449.63517487 0 -104.73356335 0 -210.30109421 0 19059
0.13250000 0.13249300 12639.83384322 0 318.02927853 0 4343.90554518 0 32.62283351 0 191.64533412 0 18957
0.13350000 0.13349100 12480.83525883 0 284.26643846 0 4324.60648302 0 572.55102360 0 36.14195050 0 19468
0.13450000 0.13450700 12425.14146499 0 -93.75280666 0 4097.85634306 0 324.82547151 0 106.73444317 0 19953
0.13550000 0.13551000 12537.85773164 0 49.90872557 0 3967.93368363 0 159.47690883 0 -145.31872708 0 19956
0.13650000 0.13649900 12298.69551556 0 372.00907649 0 3916.08198651 0 227.00591066 0 -188.46536244 0 19723
0.13750000 0.13749600 11942.94171914 0 339.50848145 0 3766.81597563 0 341.36863202 0 422.55202482 0 20946
0.13850000 0.13851100 11653.06825538 0 124.77292115 0 3459.18250287 0 255.75630929 0 -9.23097506 0 20955
0.13950000 0.13949800 11734.78201255 0 82.24445369 0 3663.48904042 0 457.68672594 0 -29.55513519 0 20506
0.14050000 0.14048300 11375.59579543 0 143.53054662 0 3264.08813956 0 299.47759830 0 19.82189734 0 21447
0.14150000 0.14148400 11357.99079897 0 277.19454460 0 3513.31509891 0 -80.26826516 0 118.56134693 0 21771
0.14250000 0.14249400 11082.84352722 0 296.43160174 0 3220.86178347 0 -98.87619280 0 621.85830049 0 22470
0.14350000 0.14350900 10801.34074103 0 380.63663199 0 3536.04658176 0 -71.99192380 0 446.62104451 0 22519
0.14450000 0.14449900 10564.00545855 0 191.94650136 0 3116.05115674 0 394.97529263 0 524.50377729 0 22218
0.14550000 0.14550500 10434.96858511 0 4.06007757 0 3367.29327920 0 252.48333007 0 485.64988227 0 23559
0.14650000 0.14650700 10560.58411018 0 108.98633259 0 2970.04040935 0 342.84678738 0 384.57616516 0 23044
0.14750000 0.14750500 10443.66036009 0 -37.44029131 0 2900.49513717 0 381.08063221 0 856.31145682 0 23649
0.14850000 0.14849900 10454.05727310 0 102.45941856 0 2857.67845709 0 337.69372741 0 1078.11005313 0 23640
0.14950000 0.14949500 10485.36980769 0 -0.61186774 0 2853.55955226 0 27.74425647 0 998.95621746 0 24457
0.15050000 0.15050000 10278.21768265 0 261.09316985 0 3040.36074428 0 132.69184786 0 1049.87562484 0 24591
0.15150000 0.15149900 10317.38049554 0 205.04395439 0 2928.58562523 0 -215.00793949 0 1025.92286456 0 25020
0.15250000 0.15250500 9862.44081339 0 133.09709495 0 3243.69291725 0 -74.79167185 0 1118.52625318 0 25297
0.15350000 0.15350100 9998.13215404 0 153.56760907 0 3198.44032571 0 -98.18638696 0 688.15163087 0 25452
0.15450000 0.15450400 9866.84759867 0 13.49074201 0 3382.63952140 0 98.46408087 0 754.45824805 0 26061
0.15550000 0.15549900 9685.88152183 0 307.04442508 0 3424.17181179 0 -80.16042071 0 599.95724200 0 26128
0.15650000 0.15649500 9530.93540832 0 260.64252623 0 3159.47681468 0 123.48299531 0 792.95893591 0 26331
0.15750000 0.15749700 9330.60383537 0 314.19050352 0 3320.20268174 0 59.70784375 0 935.14419507 0 27345
0.15850000 0.15849900 9218.25295544 0 132.00425649 0 3254.70988044 0 16.22627058 0 953.72023442 0 26980
0.15950000 0.15949700 9057.05097840 0 30.91747404 0 3419.31106120 0 82.68203197 0 884.06091728 0 27777
0.16050000 0.16050000 9069.41876523 0 110.18214367 0 3228.57919387 0 -25.49148126 0 545.16584263 0 28224
0.16150000 0.16150500 9001.96616243 0 64.19966449 0 3132.36069120 0 154.59179912 0 939.20552381 0 28075
0.16250000 0.16249700 8979.03537773 0 -40.46060008 0 2983.49328401 0 239.68482981 0 797.25721240 0 28590
0.16350000 0.16349900 8983.27607814 0 -87.54710077 0 2725.57454968 0 433.93437474 0 264.49680250 0 29163
0.16450000 0.16449100 8969.61282931 0 123.36452143 0 2655.07705756 0 304.69487775 0 6.66175281 0 28996
0.16550000 0.16550500 8780.34250886 0 259.22305419 0 2239.68771967 0 122.63042630 0 116.34023857 0 30777
0.16650000 0.16650700 8646.55560808 0 177.63441430 0 2106.64266465 0 -14.33633545 0 470.67234848 0 29211
0.16750000 0.16749900 8375.90370021 0 133.99506049 0 2057.47047013 0 146.09046812 0 526.70052653 0 30922
0.16850000 0.16850800 8378.91537256 0 68.48819734 0 2135.75180659 0 38.03155346 0 541.34256887 0 30867
0.16950000 0.16949900 8337.67096261 0 138.49485330 0 2473.95596818 0 115.97374462 0 327.64669987 0 30852
0.17050000 0.17049200 8195.49123962 0 90.07491253 0 2247.98089096 0 77.85394473 0 604.85674573 0 31257
0.17150000 0.17149500 8195.69054146 0 88.76428144 0 2318.73304655 0 34.47390477 0 699.11876861 0 32608
0.17250000 0.17250900 8203.40795186 0 -18.53584681 0 2334.23430129 0 91.80153086 0 472.52364119 0 32361
0.17350000 0.17350400 8235.26303036 0 -24.66626089 0 2295.59188768 0 -119.29544206 0 298.98487985 0 32508
0.17450000 0.17449800 8113.00241972 0 163.80065167 0 2289.65712157 0 -175.02245287 0 157.22147626 0 32791
0.17550000 0.17549800 8100.22495688 0 190.42959286 0 2221.28551582 0 -78.69090176 0 297.62630559 0 33633
0.17650000 0.17650100 7934.21759087 0 97.64284654 0 2199.36231268 0 158.23348675 0 138.52142688 0 33984
0.17750000 0.17750300 7908.54086962 0 167.04152114 0 2226.38985756 0 165.33970482 0 90.52057360 0 34069
0.17850000 0.17849800 7764.24633258 0 70.69801192 0 1966.90992543 0 175.25940062 0 256.84804052 0 34536
