### header ###
fiducial parameters:
Omega_m = 0.31
Omega_nu = 0
Omega_de = 0.69
Omega_k = 0
H_0 = 100
w_de = -1
zeff = 0
beta = 0
fgrowth = 0
b_1 = 2
gamma = 0.55
Lx = 3500 Ly = 3500 Lz = 3500
nx = 700 ny = 700 nz = 700
xoffset = -685.467585 yoffset = -31.7331281 zoffset = 572.489161
bins = 400 dk = 0.001
kx_ny = 0.628318531 ky_ny = 0.628318531 kz_ny = 0.628318531
############################
A(data) = 8.05248934 (not used)
A(ran) = 8.04708873 (used)
Ngal = 478542
weighted Ngal = 0
Nran = 23820508
weighted Nran = 0
SN(data) = 3489.60928
SN(ran) = 70.0930613
SN(data+ran) = 3559.70234
############################
13 columns: k_central k_mean P_0(k) sigma^{lin}_{P_0(k)} P^img_1(k) sigma^{lin}_{P_1(k)} P_2(k) sigma^{lin}_{P_2(k)} P^img_3(k) sigma^{lin}_{P_3(k)} P_4(k) sigma^{lin}_{P_4(k)} N_modes
### header ###
0.00050000 0 0 0 0 0 0 0 0 0 0 0 0
0.00150000 0.00179520 26579.55862015 0 -39143.76848486 0 -11943.71678187 0 8590.93932051 0 -53730.78137069 0 3
0.00250000 0.00253879 41757.83365130 0 -30273.72907265 0 -24696.04544525 0 18406.07916228 0 47122.26430268 0 6
0.00350000 0.00331552 55549.52144540 0 -21652.70624560 0 -12394.69257174 0 -42303.69926486 0 -759.65891902 0 7
0.00450000 0.00420575 56638.15242157 0 -7013.11088921 0 -44554.92434698 0 -5653.60655867 0 13038.10536695 0 24
0.00550000 0.00557378 53573.66508152 0 -761.43602715 0 -48092.08923355 0 -12595.43382070 0 2122.59788471 0 45
0.00650000 0.00659388 44137.05480833 0 6988.90678715 0 -30821.03408843 0 -45591.29395001 0 -9792.17584009 0 40
0.00750000 0.00754703 42787.67058268 0 1559.84697580 0 -27836.82110331 0 -17602.00693395 0 1202.84200667 0 57
0.00850000 0.00846663 41204.10668712 0 -3894.30272359 0 -11649.30366495 0 -23677.72373168 0 9374.58310955 0 75
0.00950000 0.00948925 50916.41784829 0 -7441.45484714 0 -3789.06027619 0 -21648.27731567 0 11124.47546854 0 112
0.01050000 0.01054430 68747.40045949 0 -14355.15840413 0 4909.15879949 0 -4345.63282785 0 -419.25136479 0 105
0.01150000 0.01145670 70454.53150002 0 -2551.55082051 0 9269.09707101 0 -8085.49876487 0 -999.80989371 0 144
0.01250000 0.01249090 75536.83931503 0 6179.86308498 0 20529.41889275 0 -12264.92492486 0 -10716.88104732 0 169
0.01350000 0.01339930 61023.12521950 0 7119.74844954 0 24229.34695415 0 -10664.99613322 0 698.12447384 0 180
0.01450000 0.01448870 59247.78865808 0 11113.62459022 0 27601.75564741 0 -2170.08708586 0 1694.80754302 0 267
0.01550000 0.01550050 58415.81417121 0 -7244.11280190 0 16520.24079916 0 16685.10771571 0 5013.77012438 0 238
0.01650000 0.01653350 65139.59414058 0 -8512.24830803 0 28194.78936470 0 7845.59470302 0 -14130.39021031 0 315
0.01750000 0.01747870 70392.08358805 0 2008.32042026 0 18434.20286732 0 -4542.36589523 0 -12189.30094635 0 297
0.01850000 0.01844180 64770.11066138 0 9474.06794805 0 21343.34549017 0 -4785.58058219 0 13429.73349578 0 388
0.01950000 0.01947590 58621.53796634 0 3200.61050138 0 15265.63567396 0 158.29438454 0 5870.31410003 0 399
0.02050000 0.02045430 65027.76365991 0 -6785.18708282 0 32256.56100117 0 7664.72827711 0 4251.55128386 0 462
0.02150000 0.02154770 64225.02011056 0 4454.15268340 0 29025.21372610 0 5488.41854471 0 -2830.36303177 0 571
0.02250000 0.02255340 58140.22400647 0 6839.25324490 0 25775.48639182 0 2747.58633142 0 10088.59304781 0 510
0.02350000 0.02348930 58121.73322402 0 294.30128645 0 29028.31397705 0 2182.65417453 0 3253.61372028 0 555
0.02450000 0.02439640 56593.42022931 0 2362.36907866 0 28395.86278340 0 -5345.24231248 0 3007.06626355 0 592
0.02550000 0.02547300 56881.18995134 0 1961.84987299 0 37221.72361960 0 -503.65458965 0 -6948.76960969 0 837
0.02650000 0.02652900 54304.88141254 0 -1365.95949590 0 30160.23774326 0 -5943.64610730 0 -4950.80181314 0 723
0.02750000 0.02749970 58907.53611640 0 -2821.30587006 0 35096.61231715 0 150.12743775 0 -8552.44084712 0 826
0.02850000 0.02848090 60190.04350015 0 -2322.94052998 0 31845.77775040 0 2667.72165251 0 -20449.69815405 0 831
0.02950000 0.02946900 61223.97719171 0 3760.36081026 0 26148.07012197 0 872.26667689 0 -14791.96161822 0 996
0.03050000 0.03053250 59515.40674895 0 -572.99834553 0 20102.47004774 0 6244.90192096 0 -19103.74634910 0 1041
0.03150000 0.03150510 57609.97037091 0 -723.91634727 0 20415.26322387 0 8957.26718714 0 -7906.28211535 0 1036
0.03250000 0.03246190 58440.06256256 0 3866.71049014 0 16214.31246443 0 9588.34541250 0 -13422.31503816 0 1059
0.03350000 0.03345080 54081.55262095 0 3132.38283584 0 10743.38819293 0 7667.39670739 0 -2731.70861763 0 1302
0.03450000 0.03451200 51787.36691852 0 573.99706923 0 9437.80608427 0 7022.07947231 0 494.22429061 0 1339
0.03550000 0.03553350 51629.80773636 0 1333.80546463 0 13503.47517908 0 428.81674620 0 1221.91962234 0 1365
0.03650000 0.03647120 50460.57023551 0 2600.90017222 0 17036.54330546 0 -1082.36293309 0 5514.22813386 0 1308
0.03750000 0.03744890 49846.49910106 0 3582.04101905 0 16439.52355124 0 -4603.15295848 0 9419.02742138 0 1579
0.03850000 0.03847530 45359.55019156 0 1593.73936207 0 17058.68795510 0 455.94394201 0 4893.01534991 0 1662
0.03950000 0.03950240 46366.68885706 0 -654.54158889 0 19759.89231785 0 2216.70157334 0 4448.53901471 0 1683
0.04050000 0.04050350 46415.29636301 0 37.76327103 0 14595.09568295 0 7540.21998452 0 3631.32393682 0 1822
0.04150000 0.04152450 44758.76584690 0 443.47650426 0 14239.23116328 0 3329.81345969 0 1101.21135163 0 1887
0.04250000 0.04250150 44856.42375180 0 899.99288547 0 8783.34310889 0 1871.67685967 0 -176.48067805 0 1920
0.04350000 0.04349210 44502.99514359 0 1297.80933664 0 10450.15981476 0 -1886.63557050 0 -4506.48049049 0 2005
0.04450000 0.04448520 42547.29041087 0 921.50751982 0 10147.19886307 0 -3374.87782170 0 1127.29553444 0 2151
0.04550000 0.04548030 42590.36175441 0 1628.69469152 0 11901.53122431 0 -3600.54287383 0 -2702.80984986 0 2274
0.04650000 0.04648670 41441.49733123 0 1030.94527110 0 15991.42656583 0 1170.85406027 0 -3444.45631086 0 2311
0.04750000 0.04749250 41694.27850684 0 869.23396712 0 14259.16134795 0 991.03175459 0 109.64059627 0 2568
0.04850000 0.04851840 40130.97696569 0 1480.12623711 0 13547.54303185 0 3234.27036883 0 566.96060680 0 2493
0.04950000 0.04949480 39378.94466401 0 57.47211993 0 11304.06857710 0 4472.84276769 0 2999.73638452 0 2644
0.05050000 0.05050630 39267.11418334 0 -142.86620713 0 14040.04003979 0 1948.03161162 0 2515.28895673 0 2829
0.05150000 0.05149060 38121.68218085 0 1481.70957956 0 11663.91913371 0 1936.40567056 0 987.85178290 0 2784
0.05250000 0.05249300 37035.26566965 0 2359.93316720 0 12913.32026624 0 -3704.31270203 0 3330.37814825 0 3055
0.05350000 0.05348950 35300.56454031 0 943.68317197 0 13866.20454014 0 -232.61182872 0 4907.94084376 0 3009
0.05450000 0.05448610 35232.91263567 0 252.13676631 0 14979.08390766 0 312.19416335 0 3688.84466426 0 3336
0.05550000 0.05550870 36255.33110942 0 -805.17171018 0 16528.76648928 0 605.28856640 0 2693.11049331 0 3349
0.05650000 0.05647670 36251.78796548 0 -407.50694986 0 14154.74932491 0 1698.43926556 0 1038.86862674 0 3324
0.05750000 0.05747970 36323.53663031 0 700.07431024 0 15655.49223083 0 -2951.12887856 0 -738.73776127 0 3639
0.05850000 0.05849280 36047.83574232 0 1716.88575870 0 16449.15647383 0 -1166.98981891 0 748.90879885 0 3846
0.05950000 0.05951020 33336.11267099 0 2090.66529993 0 17408.24124962 0 -847.24765173 0 -395.82121824 0 3787
0.06050000 0.06049470 32011.64117618 0 1749.34981507 0 15923.77466118 0 1307.28724669 0 300.88599802 0 3930
0.06150000 0.06148310 31403.54909714 0 695.56455234 0 15070.76275716 0 3297.41583727 0 -709.79802589 0 4083
0.06250000 0.06249100 30528.50326672 0 -68.74906131 0 13896.76415663 0 4600.70597470 0 -764.50306113 0 4303
0.06350000 0.06350600 30999.51996451 0 -784.44210366 0 12626.87922318 0 2740.38932029 0 214.44657262 0 4470
0.06450000 0.06451750 30680.52628648 0 -736.95954591 0 10860.45588324 0 3056.93601453 0 -167.78004521 0 4479
0.06550000 0.06550280 32184.36944335 0 -386.41195661 0 9165.85871440 0 2030.64222709 0 325.04359631 0 4636
0.06650000 0.06648880 31247.54004045 0 206.46342643 0 9547.34459370 0 -965.16237488 0 844.30019886 0 4653
0.06750000 0.06749660 31292.16150947 0 708.48816987 0 9822.62473334 0 -1775.79052674 0 88.24266421 0 5220
0.06850000 0.06852730 31034.95140393 0 344.07360097 0 11900.31326858 0 -1664.98977228 0 3.35201347 0 5029
0.06950000 0.06949320 30162.00931523 0 1524.51518730 0 12636.73359227 0 -1258.97869350 0 523.74753750 0 5040
0.07050000 0.07048030 29977.43366050 0 1000.99906139 0 14128.50791509 0 123.74983834 0 1900.13273445 0 5475
0.07150000 0.07148790 28981.92093605 0 1414.44520628 0 12993.92679092 0 2966.76300121 0 3885.40057444 0 5509
0.07250000 0.07249820 27797.51435020 0 634.57929447 0 12319.95437921 0 3612.33489976 0 5658.31229672 0 5916
0.07350000 0.07351270 27591.56910858 0 188.22952192 0 10788.72936307 0 3444.46738318 0 4689.45065812 0 5721
0.07450000 0.07449140 27853.20814404 0 -231.51234687 0 10372.81962590 0 2454.62368905 0 5237.85183406 0 6028
0.07550000 0.07549160 26575.46185997 0 287.11091871 0 8772.61402614 0 1231.85149770 0 4144.28260102 0 6183
0.07650000 0.07648840 27025.44114060 0 1072.07231440 0 8768.91586965 0 -1022.56573567 0 4749.45158631 0 6330
0.07750000 0.07749960 25649.48333539 0 1102.27097311 0 9399.80586549 0 -1375.69206942 0 3645.81761001 0 6583
0.07850000 0.07848650 25027.44012708 0 1152.07539738 0 10272.18326563 0 -1355.34113640 0 2926.62582374 0 6549
0.07950000 0.07947320 24312.72156003 0 633.16314413 0 10486.07843647 0 -1786.91821318 0 1735.91908507 0 6828
0.08050000 0.08048110 24159.92347753 0 228.52392640 0 11282.69899020 0 421.54665773 0 2527.08098266 0 7147
0.08150000 0.08149960 24289.91257091 0 -392.58256323 0 11543.45223968 0 2017.17828011 0 1610.00460723 0 7386
0.08250000 0.08250610 24582.66483911 0 -386.26026576 0 10680.88491933 0 1822.22785703 0 1482.78359506 0 7227
0.08350000 0.08350160 24476.92413709 0 142.44656602 0 9862.87263406 0 1656.70767331 0 1789.79701763 0 7798
0.08450000 0.08449610 24012.32938770 0 724.16326011 0 8949.39476419 0 1311.76046591 0 1289.80404580 0 7371
0.08550000 0.08548940 23991.62414029 0 252.62837753 0 8620.52457243 0 27.53831123 0 1372.94613286 0 8256
0.08650000 0.08650700 23175.04018492 0 48.35262104 0 9020.71160835 0 -184.39296137 0 1282.36344352 0 8037
0.08750000 0.08749060 23194.08458360 0 933.32058317 0 9133.54967058 0 -819.29667496 0 834.58423383 0 8155
0.08850000 0.08849210 22213.07660467 0 865.70189550 0 8380.44335339 0 889.21840619 0 1080.39648820 0 8718
0.08950000 0.08949900 21725.78358940 0 327.51493921 0 8430.20238112 0 994.01131720 0 1112.83507822 0 8571
0.09050000 0.09049190 21329.61580739 0 507.42471625 0 8360.86748311 0 240.78984783 0 1085.34913909 0 8932
0.09150000 0.09150830 21032.10243952 0 600.02146148 0 8237.55500160 0 621.31575657 0 120.95629078 0 9285
0.09250000 0.09250820 20354.25471412 0 354.44836933 0 8321.11783701 0 -612.81885451 0 806.84473846 0 9204
0.09350000 0.09350330 20409.50561496 0 282.34096118 0 8322.46866064 0 -1029.92108105 0 -317.81115373 0 9349
0.09450000 0.09448040 19461.60388724 0 937.61332350 0 8608.90970369 0 -272.03041231 0 -791.48742394 0 9564
0.09550000 0.09549270 19300.50156113 0 625.72586355 0 8376.40195483 0 -191.15261567 0 -1178.40538580 0 10155
0.09650000 0.09649430 18347.06367099 0 394.66748200 0 8172.69332281 0 551.33423479 0 -110.71095791 0 9913
0.09750000 0.09749140 18335.99134617 0 338.07461539 0 7858.41645516 0 1137.32706072 0 -1396.44160613 0 10476
0.09850000 0.09850240 18007.80763855 0 332.48198412 0 7506.10615176 0 921.79540027 0 -820.92541394 0 10575
0.09950000 0.09950330 17633.56305968 0 600.97257418 0 7503.54844472 0 868.74789206 0 1342.13185289 0 10882
0.10050000 0.10051200 17291.98183902 0 332.50966493 0 7618.98850328 0 819.66870507 0 1983.82843776 0 10875
0.10150000 0.10150300 17055.91987389 0 153.01288560 0 7297.23781638 0 553.40365230 0 2270.97810960 0 11118
0.10250000 0.10250800 17304.71501257 0 -279.05801687 0 7464.87281413 0 937.03866984 0 1885.12973432 0 11575
0.10350000 0.10349800 16783.54068335 0 232.65611802 0 7222.03458621 0 341.50703608 0 2611.56282103 0 11364
0.10450000 0.10450100 16788.30178302 0 453.86123771 0 6635.10171990 0 377.44226628 0 1763.56668014 0 12093
0.10550000 0.10551000 16295.80477509 0 104.39928987 0 5651.63568486 0 807.36513773 0 1705.96844643 0 12067
0.10650000 0.10649700 16269.89553502 0 306.70450471 0 5166.66785780 0 373.10191495 0 1840.84043505 0 12054
0.10750000 0.10749900 16093.62412390 0 -18.45690113 0 5213.63665968 0 418.49623224 0 1069.29980427 0 12807
0.10850000 0.10850100 15843.72175275 0 160.25197157 0 5104.61854952 0 147.26413455 0 975.15182634 0 12736
0.10950000 0.10950300 16045.90240393 0 308.78056561 0 5372.29200201 0 -348.92549371 0 1157.43440259 0 12933
0.11050000 0.11050200 15474.45972004 0 360.87917558 0 5725.42165745 0 -81.26909260 0 1977.29576611 0 13428
0.11150000 0.11150900 15379.90206609 0 528.07238758 0 5937.43453308 0 259.65487486 0 1068.82590877 0 13453
0.11250000 0.11250000 15002.33578978 0 129.52516296 0 6180.06238683 0 213.85088155 0 2311.35887822 0 13668
0.11350000 0.11349100 14696.85034803 0 178.28103807 0 5999.18488859 0 414.69510313 0 936.67771206 0 13791
0.11450000 0.11448600 14606.16800777 0 491.18715191 0 5469.01983162 0 144.52927032 0 1243.88711478 0 14205
0.11550000 0.11549300 14349.84368821 0 167.82765621 0 5535.66415471 0 -222.82500081 0 289.09175762 0 14776
0.11650000 0.11649800 14067.94229833 0 212.35058153 0 5205.59815186 0 -619.19540637 0 -61.17946645 0 14553
0.11750000 0.11747300 14209.66805601 0 160.20768227 0 5658.73304507 0 -30.33473758 0 -360.84152968 0 14568
0.11850000 0.11849100 13873.06938152 0 -15.57477498 0 5288.30841826 0 -1.70583558 0 -739.65122807 0 16015
0.11950000 0.11950300 13991.76470358 0 41.97983376 0 5090.11380400 0 614.58378308 0 -1063.60530761 0 15270
0.12050000 0.12050700 13874.39806050 0 171.73618687 0 5171.34037887 0 252.16776881 0 -1199.66424945 0 15999
0.12150000 0.12150000 13809.51423706 0 220.74118928 0 5414.83187396 0 407.87787274 0 -535.17528395 0 15670
0.12250000 0.12250700 13705.98800001 0 62.89313016 0 4957.53378663 0 313.37668764 0 243.42727560 0 16887
0.12350000 0.12352200 13960.54074759 0 24.11895588 0 5068.68885548 0 343.45244355 0 124.51161428 0 16407
0.12450000 0.12449800 13745.62692286 0 43.19513214 0 5055.55707824 0 167.49548646 0 742.01295495 0 16306
0.12550000 0.12549900 13880.04494616 0 180.23419617 0 5451.52555841 0 -14.39391154 0 649.46049903 0 17523
0.12650000 0.12650100 13604.78695117 0 127.74362590 0 4965.77159629 0 421.31192444 0 700.10420552 0 17154
0.12750000 0.12750600 13442.90956232 0 71.18729796 0 5085.65165710 0 455.66934835 0 1030.91759028 0 18007
0.12850000 0.12850300 13402.16340699 0 357.56633600 0 4968.15214613 0 241.66566872 0 656.86456263 0 17496
0.12950000 0.12949900 13187.36030550 0 201.53402742 0 4813.50498538 0 -74.00764053 0 440.26110114 0 18405
0.13050000 0.13049000 12911.43797102 0 314.68875814 0 4467.61663037 0 -17.72269527 0 716.79019902 0 18100
0.13150000 0.13148800 12676.15106863 0 62.05849831 0 4437.86529359 0 -10.27516172 0 566.96725020 0 19059
0.13250000 0.13249300 12664.19295782 0 78.37644774 0 4555.68590198 0 482.85744195 0 203.26463179 0 18957
0.13350000 0.13349100 12624.88620472 0 128.23523712 0 4019.50857264 0 781.29867064 0 789.74353278 0 19468
0.13450000 0.13450700 12369.11550141 0 49.11661145 0 3883.46291759 0 748.41940209 0 868.58402165 0 19953
0.13550000 0.13551000 12312.75736808 0 124.13072631 0 3400.00092671 0 826.48704269 0 483.89491878 0 19956
0.13650000 0.13649900 12139.91837766 0 173.59301574 0 3299.66351920 0 654.21163361 0 547.05699571 0 19723
0.13750000 0.13749600 11757.81244817 0 441.07713148 0 2845.31067027 0 158.21798550 0 1032.48210978 0 20946
0.13850000 0.13851100 11436.38285868 0 476.88613717 0 2930.53435440 0 -55.74926619 0 1062.92546687 0 20955
0.13950000 0.13949800 10913.01620916 0 240.71677049 0 2636.84093859 0 -45.60480219 0 1419.04022108 0 20506
0.14050000 0.14048300 11048.99543025 0 98.12216748 0 2941.89455966 0 48.74402772 0 834.50119140 0 21447
0.14150000 0.14148400 10978.16576839 0 -63.30889596 0 3005.32790855 0 45.55276226 0 996.97537855 0 21771
0.14250000 0.14249400 10901.79994411 0 169.34677917 0 2987.16929585 0 -2.83376224 0 987.22619655 0 22470
0.14350000 0.14350900 11044.88759775 0 60.50095438 0 3024.66018768 0 -184.29441768 0 982.21707680 0 22519
0.14450000 0.14449900 11187.47699676 0 -160.30511872 0 3135.92597979 0 -280.54170840 0 835.50877296 0 22218
0.14550000 0.14550500 11074.20711387 0 -11.11052434 0 3219.93170819 0 -8.66360699 0 509.63807399 0 23559
0.14650000 0.14650700 11162.56426592 0 262.77394876 0 3559.34275318 0 -292.30937521 0 560.56080306 0 23044
0.14750000 0.14750500 10875.75783614 0 217.58446948 0 3174.38016388 0 -22.92059816 0 282.49486649 0 23649
0.14850000 0.14849900 10862.76999913 0 216.26575559 0 3431.44632920 0 137.18167557 0 427.87449136 0 23640
0.14950000 0.14949500 10552.11378169 0 213.92285166 0 3295.56675902 0 466.91329421 0 345.04464386 0 24457
0.15050000 0.15050000 10517.14737991 0 228.76308861 0 3356.85207689 0 76.61594809 0 100.62982761 0 24591
0.15150000 0.15149900 10180.78122425 0 208.14088364 0 3097.46072337 0 357.52536839 0 513.90313351 0 25020
0.15250000 0.15250500 9988.98641374 0 154.32717055 0 3044.55715538 0 278.29624092 0 695.11612318 0 25297
0.15350000 0.15350100 10014.20916968 0 52.25716566 0 2986.37208846 0 119.65086369 0 449.15660690 0 25452
0.15450000 0.15450400 9802.22951102 0 178.82579645 0 2922.88337795 0 85.32466373 0 457.73433693 0 26061
0.15550000 0.15549900 9652.90813852 0 234.41440320 0 3201.26376854 0 -289.07182744 0 562.72765703 0 26128
0.15650000 0.15649500 9532.44124449 0 247.00474375 0 2992.86047080 0 -108.14361795 0 694.36763403 0 26331
0.15750000 0.15749700 9390.57154659 0 117.04997459 0 3171.36849153 0 -100.40982051 0 613.27835599 0 27345
0.15850000 0.15849900 9396.24057690 0 -32.91370348 0 3238.84323898 0 93.11382279 0 499.50136061 0 26980
0.15950000 0.15949700 9382.82091922 0 84.15420827 0 3267.99667022 0 51.01241490 0 224.50688695 0 27777
0.16050000 0.16050000 9300.99643881 0 132.78817709 0 3017.64033375 0 82.24223923 0 621.52834521 0 28224
0.16150000 0.16150500 9210.30302622 0 163.07209270 0 3050.48084916 0 344.91177596 0 754.35638266 0 28075
0.16250000 0.16249700 9077.75622582 0 -16.30023371 0 2894.46072014 0 218.73931295 0 579.17338108 0 28590
0.16350000 0.16349900 9047.99381670 0 76.37822528 0 3007.09948052 0 400.49484655 0 257.55666930 0 29163
0.16450000 0.16449100 8839.66802524 0 154.90514591 0 2769.53167921 0 28.78084752 0 440.92765509 0 28996
0.16550000 0.16550500 8893.43523456 0 136.07444309 0 2715.55409572 0 -49.29088984 0 297.05275916 0 30777
0.16650000 0.16650700 8703.84381669 0 64.29167551 0 2561.69307004 0 109.18065189 0 718.82197062 0 29211
0.16750000 0.16749900 8740.69251369 0 92.69960712 0 2621.68292591 0 18.30089208 0 310.39933950 0 30922
0.16850000 0.16850800 8549.60633197 0 207.49536710 0 2355.59281587 0 38.62934827 0 109.64258928 0 30867
0.16950000 0.16949900 8459.57725887 0 161.31270028 0 2402.10765243 0 169.89043032 0 125.44058234 0 30852
0.17050000 0.17049200 8352.81790296 0 17.78436812 0 2326.71619274 0 196.94565601 0 242.64889117 0 31257
0.17150000 0.17149500 8417.54671385 0 5.42738789 0 2416.35773447 0 131.95110933 0 204.78707645 0 32608
0.17250000 0.17250900 8353.61511035 0 80.86904950 0 2377.19492159 0 71.99114874 0 142.98910994 0 32361
0.17350000 0.17350400 8333.74028730 0 126.81133615 0 2212.00690762 0 -20.35525122 0 332.69567999 0 32508
0.17450000 0.17449800 8175.17352357 0 79.04964509 0 2549.90104411 0 31.92184462 0 361.52912105 0 32791
0.17550000 0.17549800 8215.03389292 0 26.17674744 0 2474.83068184 0 91.64297517 0 312.24620328 0 33633
0.17650000 0.17650100 8155.67515957 0 112.18368783 0 2509.54242015 0 182.46969855 0 130.23932791 0 33984
0.17750000 0.17750300 8013.08576055 0 184.91336063 0 2572.59930999 0 -141.08134837 0 364.19090793 0 34069
0.17850000 0.17849800 8004.48256417 0 185.13369990 0 2443.40742400 0 -128.64491314 0 419.82934015 0 34536
