### header ###
fiducial parameters:
Omega_m = 0.31
Omega_nu = 0
Omega_de = 0.69
Omega_k = 0
H_0 = 100
w_de = -1
zeff = 0
beta = 0
fgrowth = 0
b_1 = 2
gamma = 0.55
Lx = 3500 Ly = 3500 Lz = 3500
nx = 700 ny = 700 nz = 700
xoffset = -685.467585 yoffset = -31.7331281 zoffset = 572.489161
bins = 400 dk = 0.001
kx_ny = 0.628318531 ky_ny = 0.628318531 kz_ny = 0.628318531
############################
A(data) = 8.00585662 (not used)
A(ran) = 8.00124053 (used)
Ngal = 475487
weighted Ngal = 0
Nran = 23820508
weighted Nran = 0
SN(data) = 3492.65263
SN(ran) = 69.6937068
SN(data+ran) = 3562.34634
############################
13 columns: k_central k_mean P_0(k) sigma^{lin}_{P_0(k)} P^img_1(k) sigma^{lin}_{P_1(k)} P_2(k) sigma^{lin}_{P_2(k)} P^img_3(k) sigma^{lin}_{P_3(k)} P_4(k) sigma^{lin}_{P_4(k)} N_modes
### header ###
0.00050000 0 0 0 0 0 0 0 0 0 0 0 0
0.00150000 0.00179520 22500.95704996 0 -41893.13746058 0 -12474.30258718 0 -24299.87766324 0 10131.67546368 0 3
0.00250000 0.00253879 43666.92389653 0 -45275.28979969 0 -20132.36532475 0 -38162.42833619 0 17871.39659678 0 6
0.00350000 0.00331552 60584.32898694 0 -16422.25072452 0 1376.97645910 0 -44273.46585009 0 -23793.87241903 0 7
0.00450000 0.00420575 73885.62351483 0 5274.99948383 0 -367.86913424 0 -48065.62637723 0 36149.70113065 0 24
0.00550000 0.00557378 54585.12195370 0 13879.93422291 0 2180.90474720 0 -27403.56103316 0 26488.43338690 0 45
0.00650000 0.00659388 65331.92042268 0 2293.36635039 0 13303.50899285 0 -24170.99580235 0 20965.44704411 0 40
0.00750000 0.00754703 62196.01658754 0 -10029.51112258 0 30518.31672789 0 -6335.05278964 0 -25583.16010972 0 57
0.00850000 0.00846663 60379.71242429 0 -460.42712633 0 21185.89703125 0 2263.00603573 0 -27785.77768590 0 75
0.00950000 0.00948925 67484.93398366 0 2166.10104892 0 20891.59463757 0 -15800.76113245 0 -38151.68818111 0 112
0.01050000 0.01054430 66850.15760181 0 711.09680960 0 32712.29789071 0 -11131.45103318 0 -1653.83994119 0 105
0.01150000 0.01145670 65274.12288712 0 1727.37125031 0 20091.50844617 0 8042.34991505 0 -22343.73003753 0 144
0.01250000 0.01249090 64907.29676588 0 -5187.25130964 0 19780.26539552 0 2765.85566737 0 -26814.62407605 0 169
0.01350000 0.01339930 70986.77815406 0 -8515.64751175 0 9929.79376526 0 16567.07673315 0 -39501.18313001 0 180
0.01450000 0.01448870 76080.71191012 0 -9140.83526031 0 8312.60321922 0 526.10040653 0 -33690.31634194 0 267
0.01550000 0.01550050 82437.44431176 0 -1802.40839560 0 7870.71780804 0 -22907.86498704 0 -29954.62467137 0 238
0.01650000 0.01653350 76122.34385144 0 12821.19852375 0 14341.20727486 0 -14585.46276035 0 -13457.52503108 0 315
0.01750000 0.01747870 71689.98150329 0 12731.18052298 0 16720.42843189 0 -15239.50498739 0 -1072.56724732 0 297
0.01850000 0.01844180 59917.11069337 0 6715.36500251 0 27653.79557406 0 5707.80558866 0 -16253.17632454 0 388
0.01950000 0.01947590 56983.71967916 0 6133.91293698 0 32473.46784437 0 15896.75818863 0 217.70626505 0 399
0.02050000 0.02045430 56319.38019004 0 -3517.41185909 0 22073.56531196 0 14407.97339351 0 -34.94392496 0 462
0.02150000 0.02154770 62003.69030544 0 -5956.36820852 0 21809.60108828 0 10443.48320290 0 4131.92588652 0 571
0.02250000 0.02255340 66045.86392698 0 -6945.00501925 0 13101.66051141 0 7510.10326102 0 -3863.86490266 0 510
0.02350000 0.02348930 70348.68007476 0 2247.89231236 0 16938.55323081 0 9445.60100094 0 9509.99764209 0 555
0.02450000 0.02439640 64888.14164395 0 1736.73843710 0 2151.95061780 0 3815.25739671 0 8658.22583844 0 592
0.02550000 0.02547300 66410.80775301 0 1270.58248991 0 8739.90637862 0 -189.02008591 0 7158.73410522 0 837
0.02650000 0.02652900 63427.03766088 0 4251.49592224 0 12580.59690544 0 -9047.31840489 0 -7294.61367540 0 723
0.02750000 0.02749970 60471.28055054 0 4466.62012114 0 21308.46766699 0 -15448.66120322 0 2321.63399565 0 826
0.02850000 0.02848090 61369.02464684 0 2410.96551229 0 24943.17973521 0 -15131.43909716 0 -5065.77683405 0 831
0.02950000 0.02946900 62551.54893747 0 -448.82222269 0 32484.76161568 0 -7805.60146578 0 -780.11725358 0 996
0.03050000 0.03053250 68942.82699253 0 -3182.08650196 0 42715.14685512 0 -7043.05045552 0 -8236.70243259 0 1041
0.03150000 0.03150510 66452.10752458 0 -573.15003638 0 42848.12547619 0 8080.88160542 0 -10302.33320611 0 1036
0.03250000 0.03246190 66216.04555945 0 4198.26018451 0 35997.34594115 0 7808.26989606 0 -11001.31799958 0 1059
0.03350000 0.03345080 63380.53389664 0 4093.70422125 0 36058.13300440 0 11612.54354655 0 -7509.21747503 0 1302
0.03450000 0.03451200 57549.73692389 0 3478.78051780 0 29399.90119796 0 10576.67219814 0 -11894.00204344 0 1339
0.03550000 0.03553350 52034.61193172 0 5281.24427502 0 25714.25643558 0 6419.60106195 0 -2824.07395127 0 1365
0.03650000 0.03647120 49576.00220574 0 3751.48080575 0 17790.56862561 0 8863.68389777 0 -4606.97291054 0 1308
0.03750000 0.03744890 46560.01164839 0 -578.66183967 0 11823.24988785 0 7665.70264169 0 582.03557704 0 1579
0.03850000 0.03847530 47662.04013759 0 -2322.67479418 0 4616.72762871 0 4146.90674200 0 -5942.90426154 0 1662
0.03950000 0.03950240 48873.02030301 0 -733.96558928 0 8382.93462647 0 -673.95358876 0 -6956.86347913 0 1683
0.04050000 0.04050350 48109.80495326 0 3795.36042901 0 9933.79087452 0 -6564.52672150 0 -4616.72762871 0 1822
0.04150000 0.04152450 44517.94278209 0 3529.36996989 0 16951.72929735 0 -1107.50928999 0 1291.48703917 0 1887
0.04250000 0.04250150 42729.98377038 0 1554.91979126 0 15513.76647315 0 -1207.22664730 0 2604.33259292 0 1920
0.04350000 0.04349210 42557.58767295 0 -550.64221449 0 19788.90180888 0 6274.37644963 0 2512.34371833 0 2005
0.04450000 0.04448520 44109.26327303 0 -814.74594946 0 19037.75529318 0 4119.20378531 0 2540.68886986 0 2151
0.04550000 0.04548030 43578.23457473 0 1618.51922502 0 17723.80250695 0 700.17617563 0 5446.44336132 0 2274
0.04650000 0.04648670 43527.30188057 0 2095.09422986 0 17878.59360792 0 -353.88035906 0 8492.19632778 0 2311
0.04750000 0.04749250 41109.99192616 0 928.48197722 0 17888.11580726 0 -219.61402662 0 8173.28015603 0 2568
0.04850000 0.04851840 41676.00917089 0 1346.57185514 0 18668.27181398 0 138.87906297 0 6418.47168482 0 2493
0.04950000 0.04949480 38368.48430106 0 1532.16616375 0 17872.17165952 0 -77.17487905 0 7344.76023450 0 2644
0.05050000 0.05050630 37811.10346969 0 1626.53558818 0 16879.31629303 0 3091.55917424 0 3470.52056348 0 2829
0.05150000 0.05149060 36513.75917069 0 896.73540750 0 17767.09529699 0 2196.63852077 0 6066.18352607 0 2784
0.05250000 0.05249300 34854.57129662 0 1665.32194202 0 13695.91218442 0 5080.49195374 0 5845.81104520 0 3055
0.05350000 0.05348950 35028.29607302 0 503.20948220 0 13935.18512376 0 3160.59511948 0 6195.66329250 0 3009
0.05450000 0.05448610 33902.79425521 0 -501.12456343 0 10747.21921732 0 2018.82805651 0 4803.01949378 0 3336
0.05550000 0.05550870 35060.07364525 0 -752.55934434 0 11579.43729534 0 666.84847792 0 4395.27006001 0 3349
0.05650000 0.05647670 35553.23499267 0 -382.95739127 0 11774.08876565 0 -2584.57956544 0 1586.50913396 0 3324
0.05750000 0.05747970 34940.38181396 0 897.73856013 0 11499.27366365 0 -1614.78785155 0 -175.97688727 0 3639
0.05850000 0.05849280 34919.12295031 0 582.25702354 0 11949.03149779 0 -1181.76030022 0 1278.20024939 0 3846
0.05950000 0.05951020 34271.17050192 0 269.83144860 0 13388.21227771 0 1540.82472176 0 453.97528266 0 3787
0.06050000 0.06049470 35309.86529316 0 -286.64145214 0 10944.02979097 0 1449.85450105 0 -1389.86464519 0 3930
0.06150000 0.06148310 33931.47157649 0 1101.23903244 0 10962.66451364 0 1252.61210673 0 -3132.11710005 0 4083
0.06250000 0.06249100 33555.89831864 0 1443.90866263 0 11063.44481414 0 -1612.85019471 0 -1345.97394960 0 4303
0.06350000 0.06350600 32402.82641202 0 650.31306804 0 12670.06128998 0 -1110.97492765 0 -1110.59846861 0 4470
0.06450000 0.06451750 32078.07512509 0 223.51259218 0 12492.90409288 0 894.00165051 0 -1562.86972048 0 4479
0.06550000 0.06550280 32688.82456209 0 454.71159226 0 12128.84605284 0 676.04957985 0 -1063.49569160 0 4636
0.06650000 0.06648880 32101.99134670 0 -235.26254328 0 11759.25185040 0 2800.89957542 0 -1238.50596491 0 4653
0.06750000 0.06749660 31449.83141488 0 202.61468632 0 10407.52029189 0 1880.75616602 0 -949.46846169 0 5220
0.06850000 0.06852730 31811.67498996 0 906.98284412 0 9536.15047331 0 475.10902904 0 -3544.01865563 0 5029
0.06950000 0.06949320 30018.40126233 0 784.17858233 0 10167.51657912 0 1413.44869705 0 128.59508768 0 5040
0.07050000 0.07048030 30032.68456134 0 754.17036760 0 7549.43215877 0 836.39234448 0 731.62379258 0 5475
0.07150000 0.07148790 29071.60676709 0 -277.54443007 0 6529.33887323 0 1254.85978867 0 -834.67834859 0 5509
0.07250000 0.07249820 29151.65967552 0 743.69262663 0 6351.53948129 0 1445.71345157 0 -1068.71629275 0 5916
0.07350000 0.07351270 28623.28833518 0 686.67126105 0 6247.29354313 0 -552.06722269 0 -170.64667010 0 5721
0.07450000 0.07449140 27811.68692597 0 628.93794498 0 7044.04696475 0 -22.21285516 0 1073.02453434 0 6028
0.07550000 0.07549160 27329.04428713 0 642.69752303 0 7550.22936616 0 -979.96718040 0 655.66985879 0 6183
0.07650000 0.07648840 27187.87214569 0 835.65160595 0 9242.93316746 0 59.03697159 0 1429.69179756 0 6330
0.07750000 0.07749960 26637.35615571 0 515.67249101 0 9521.82288499 0 -38.64595676 0 331.92947511 0 6583
0.07850000 0.07848650 25906.02910143 0 908.38017152 0 9514.68123548 0 82.49258449 0 2477.97522209 0 6549
0.07950000 0.07947320 24987.24758798 0 1178.12857768 0 10790.56736899 0 72.04905700 0 1323.38640697 0 6828
0.08050000 0.08048110 24790.04948296 0 300.11979314 0 10341.20813855 0 1252.62317906 0 2907.44855715 0 7147
0.08150000 0.08149960 23720.79507523 0 67.51161829 0 10619.43351659 0 1552.15171005 0 2731.36537556 0 7386
0.08250000 0.08250610 24427.65229165 0 139.21123271 0 9990.21544180 0 214.59826347 0 1978.58015579 0 7227
0.08350000 0.08350160 24197.90155166 0 671.10578682 0 10954.11667888 0 65.44596537 0 2129.56237702 0 7798
0.08450000 0.08449610 23062.54536476 0 1022.53141147 0 9785.67638542 0 -74.09876577 0 2142.70522658 0 7371
0.08550000 0.08548940 22808.76767992 0 779.59242539 0 11027.11651641 0 -687.29241847 0 2792.82785063 0 8256
0.08650000 0.08650700 22204.88308431 0 279.62934883 0 9929.71625899 0 506.91981824 0 1399.82973752 0 8037
0.08750000 0.08749060 21678.39403918 0 731.28719390 0 11041.63233425 0 -0.82962826 0 1493.44624386 0 8155
0.08850000 0.08849210 21313.33948991 0 818.04328779 0 9914.32572749 0 227.60270897 0 1437.58636515 0 8718
0.08950000 0.08949900 20363.33402047 0 455.15559248 0 10238.22444541 0 872.25560456 0 1813.29249090 0 8571
0.09050000 0.09049190 20334.98886893 0 440.97748055 0 9722.59735093 0 666.65249777 0 1049.02194860 0 8932
0.09150000 0.09150830 19656.25535755 0 303.18350542 0 9765.09293358 0 1349.35100867 0 1004.17128245 0 9285
0.09250000 0.09250820 19702.42695204 0 -31.07292948 0 8576.01382666 0 1034.15513806 0 1734.16965775 0 9204
0.09350000 0.09350330 19432.48367297 0 -179.67172206 0 8332.54447622 0 1167.85346025 0 572.20667430 0 9349
0.09450000 0.09448040 19348.33400434 0 681.85147805 0 8153.22817578 0 475.06363251 0 1011.00733580 0 9564
0.09550000 0.09549270 18726.73368902 0 751.23066537 0 7708.68540664 0 248.93022104 0 1362.47171358 0 10155
0.09650000 0.09649430 18476.72059462 0 377.51202192 0 7868.37047517 0 556.18612752 0 2695.84535754 0 9913
0.09750000 0.09749140 18081.32787535 0 -245.41586514 0 8231.99669454 0 13.55562583 0 2154.65226506 0 10476
0.09850000 0.09850240 18547.14058047 0 -4.52775043 0 8462.12389357 0 556.98112044 0 2416.08092635 0 10575
0.09950000 0.09950330 18666.94313500 0 96.34672020 0 8503.82226884 0 -1.63157350 0 2389.19732169 0 10882
0.10050000 0.10051200 18616.01044084 0 -81.45809718 0 8537.75894441 0 440.66966992 0 3031.08213608 0 10875
0.10150000 0.10150300 18582.79346638 0 319.76209737 0 8770.49921210 0 901.15990850 0 3198.97179730 0 11118
0.10250000 0.10250800 17788.57560714 0 760.78718892 0 8264.36109999 0 228.44752736 0 2066.46119788 0 11575
0.10350000 0.10349800 17567.12911077 0 731.61493472 0 7981.09781415 0 178.85458449 0 2059.35276534 0 11364
0.10450000 0.10450100 16381.06167619 0 795.89088752 0 7595.72554884 0 -381.37626329 0 1557.76537874 0 12093
0.10550000 0.10551000 16130.38424230 0 814.01628325 0 7649.57026443 0 -277.62636527 0 2022.49299602 0 12067
0.10650000 0.10649700 15874.83498549 0 42.48284948 0 7405.29263428 0 -8.20314222 0 1130.63937653 0 12054
0.10750000 0.10749900 15507.34452476 0 -215.31464289 0 6980.27037380 0 756.83879789 0 1189.16768552 0 12807
0.10850000 0.10850100 16120.52987321 0 -210.84695982 0 6599.03915796 0 1103.77238036 0 172.70280082 0 12736
0.10950000 0.10950300 15728.45885138 0 98.27208676 0 6613.97572414 0 859.92989258 0 -279.96594750 0 12933
0.11050000 0.11050200 15593.37648860 0 430.61046282 0 6387.85670670 0 277.73708852 0 349.21115969 0 13428
0.11150000 0.11150900 15127.67450672 0 630.14482838 0 5998.56483840 0 -267.44204090 0 243.99417863 0 13453
0.11250000 0.11250000 14796.72271789 0 327.32117352 0 5687.13355823 0 423.96596070 0 1462.01191370 0 13668
0.11350000 0.11349100 14626.76253193 0 91.63599960 0 5647.10710401 0 187.82538206 0 395.35728783 0 13791
0.11450000 0.11448600 14552.57795564 0 80.42217047 0 5382.58926409 0 304.95618462 0 61.51506861 0 14205
0.11550000 0.11549300 14280.97382784 0 -49.07232215 0 4997.58238549 0 422.36600976 0 -242.86590873 0 14776
0.11650000 0.11649800 14342.09306084 0 214.63590938 0 5455.36765512 0 206.87310245 0 -228.03231518 0 14553
0.11750000 0.11747300 14378.18883975 0 198.23336739 0 5467.00466851 0 -46.14745683 0 -407.85572809 0 14568
0.11850000 0.11849100 13982.35322748 0 110.19919505 0 5408.33241929 0 -40.40180603 0 71.19859173 0 16015
0.11950000 0.11950300 13955.44747817 0 126.10602906 0 5352.08500921 0 442.40581045 0 334.78059875 0 15270
0.12050000 0.12050700 14098.72336133 0 -92.46022346 0 5378.60322715 0 599.48223926 0 408.66622227 0 15999
0.12150000 0.12150000 14145.89146505 0 -10.35125074 0 5068.95459128 0 489.58941544 0 92.19847370 0 15670
0.12250000 0.12250700 14218.63663911 0 57.00830024 0 4906.16927179 0 93.46802647 0 -158.04857893 0 16887
0.12350000 0.12352200 13830.44093097 0 356.21994130 0 4815.67516105 0 -437.44208724 0 -42.44863600 0 16407
0.12450000 0.12449800 13741.41943943 0 507.67716526 0 4860.45164262 0 -72.72624038 0 -495.37359792 0 16306
0.12550000 0.12549900 13203.08300675 0 435.91632088 0 4889.21754249 0 93.70862808 0 -113.83678593 0 17523
0.12650000 0.12650100 12885.86090069 0 326.09878886 0 4936.66245434 0 242.66328519 0 -274.86160576 0 17154
0.12750000 0.12750600 12682.35157053 0 -38.71637675 0 4589.93260265 0 477.50286566 0 -99.60397671 0 18007
0.12850000 0.12850300 12968.01755085 0 -137.35772554 0 4693.43669505 0 626.31048230 0 -403.56630945 0 17496
0.12950000 0.12949900 12923.94969807 0 -95.44598657 0 4123.72129383 0 653.60376297 0 -39.87221673 0 18405
0.13050000 0.13049000 13213.71243857 0 35.06084871 0 4216.54059279 0 -138.03424458 0 87.57943196 0 18100
0.13150000 0.13148800 12831.60650908 0 245.37046861 0 4092.81843526 0 87.50236858 0 -240.33366805 0 19059
0.13250000 0.13249300 12754.87529809 0 373.74632425 0 4153.93766826 0 -256.31546169 0 336.10374157 0 18957
0.13350000 0.13349100 12333.57333874 0 345.85513804 0 4065.48086529 0 52.53009847 0 375.78695372 0 19468
0.13450000 0.13450700 12287.40174424 0 158.70738225 0 4265.03737549 0 189.81950776 0 251.11479072 0 19953
0.13550000 0.13551000 12070.71634754 0 84.25275197 0 4156.98255759 0 559.05496688 0 -354.85029472 0 19956
0.13650000 0.13649900 11990.99560885 0 235.73090262 0 3743.56409351 0 -24.91549892 0 -496.76096022 0 19723
0.13750000 0.13749600 11629.92709651 0 113.60980327 0 3754.70285228 0 176.58254344 0 2.93251630 0 20946
0.13850000 0.13851100 11694.03585721 0 38.15290614 0 3605.20432258 0 171.93991764 0 169.78635047 0 20955
0.13950000 0.13949800 11640.44580509 0 19.33482577 0 3382.67273837 0 699.10991075 0 13.05493530 0 20506
0.14050000 0.14048300 11638.67423312 0 -44.10671664 0 3182.97228794 0 546.23432198 0 -209.43856011 0 21447
0.14150000 0.14148400 11464.06367073 0 198.88774179 0 2834.00582663 0 403.56077329 0 -393.51374575 0 21771
0.14250000 0.14249400 11248.15333677 0 290.62970354 0 2696.17752729 0 85.86255727 0 -68.45741627 0 22470
0.14350000 0.14350900 11093.80512879 0 148.28832460 0 2856.38299509 0 -18.62243239 0 204.44051268 0 22519
0.14450000 0.14449900 11072.32481865 0 -74.80927685 0 2901.19269363 0 135.73673718 0 236.94553665 0 22218
0.14550000 0.14550500 11140.08744654 0 31.14157789 0 2830.38517642 0 311.86974424 0 504.80389697 0 23559
0.14650000 0.14650700 11105.65251635 0 158.92550705 0 2504.01733006 0 66.48853547 0 97.28288526 0 23044
0.14750000 0.14750500 10927.45452072 0 185.88329629 0 2793.30396060 0 -189.88704894 0 -25.89772486 0 23649
0.14850000 0.14849900 10773.74850759 0 410.66256243 0 2683.82081279 0 -429.37700584 0 -302.39958482 0 23640
0.14950000 0.14949500 10318.38807710 0 475.25850542 0 3135.35021890 0 -610.63539205 0 -449.06802830 0 24457
0.15050000 0.15050000 10059.79393096 0 390.57404351 0 3171.72280593 0 -297.27420566 0 70.02271083 0 24591
0.15150000 0.15149900 9936.22678598 0 41.96743276 0 3480.87318719 0 254.68672271 0 -270.35406233 0 25020
0.15250000 0.15250500 9935.41850627 0 -52.60860125 0 3450.97791018 0 648.42412942 0 -327.10969212 0 25297
0.15350000 0.15350100 9811.33096203 0 54.20390181 0 3156.31012978 0 368.48586273 0 -598.84779505 0 25452
0.15450000 0.15450400 9879.22645781 0 196.91576074 0 3026.27674711 0 31.59941852 0 -37.38016859 0 26061
0.15550000 0.15549900 9637.68369189 0 125.00654720 0 3078.67098815 0 212.82779873 0 363.51438889 0 26128
0.15650000 0.15649500 9588.82152247 0 134.14453688 0 3078.11737191 0 224.27104643 0 845.94665356 0 26331
0.15750000 0.15749700 9460.60400107 0 62.90409176 0 2808.89379394 0 436.83753830 0 823.05794370 0 27345
0.15850000 0.15849900 9442.72219649 0 127.84770575 0 2909.22012912 0 405.64569206 0 675.53360951 0 26980
0.15950000 0.15949700 9260.42744067 0 246.64157150 0 2793.33717757 0 129.02358665 0 896.35562676 0 27777
0.16050000 0.16050000 8977.75098805 0 237.70952707 0 2526.11769040 0 69.29891296 0 1062.34416982 0 28224
0.16150000 0.16150500 8919.18946209 0 -26.74243252 0 2449.17610523 0 237.28877872 0 1153.43729333 0 28075
0.16250000 0.16249700 9007.42481857 0 -144.03212294 0 2395.61927009 0 428.73481100 0 983.67308752 0 28590
0.16350000 0.16349900 8863.91641659 0 118.95995062 0 2118.11359316 0 211.23006226 0 621.08988114 0 29163
0.16450000 0.16449100 9034.60737600 0 32.43947581 0 2059.17560815 0 -57.41720120 0 683.82345910 0 28996
0.16550000 0.16550500 8897.91952611 0 117.76413954 0 2042.24602350 0 -138.28780082 0 594.22620667 0 30777
0.16650000 0.16650700 8860.68329775 0 171.28775771 0 2032.36950976 0 -84.15841576 0 527.50769901 0 29211
0.16750000 0.16749900 8582.12574996 0 278.57083458 0 2134.83280363 0 -156.87712696 0 470.80964531 0 30922
0.16850000 0.16850800 8427.15749180 0 182.20064105 0 2150.86552997 0 95.83706108 0 339.58266603 0 30867
0.16950000 0.16949900 8422.04207773 0 37.53551330 0 2144.88647457 0 145.71290185 0 180.87749824 0 30852
0.17050000 0.17049200 8296.71443311 0 76.00364853 0 2134.87709293 0 -9.77189134 0 244.42599930 0 31257
0.17150000 0.17149500 8127.87255195 0 284.71708208 0 2135.92896379 0 153.87874140 0 252.19323516 0 32608
0.17250000 0.17250900 8127.27464641 0 14.38483223 0 2040.36372828 0 44.58803060 0 549.78632378 0 32361
0.17350000 0.17350400 8049.08188854 0 -28.37072861 0 2177.10693979 0 254.17407407 0 436.86079018 0 32508
0.17450000 0.17449800 8050.31091659 0 21.85510834 0 1771.20658426 0 382.79905703 0 384.11444921 0 32791
0.17550000 0.17549800 7964.53361622 0 162.43432679 0 1925.37763504 0 -22.01908947 0 459.65206359 0 33633
0.17650000 0.17650100 7819.64117365 0 212.73811290 0 1809.78256393 0 -129.92930282 0 712.65579293 0 33984
0.17750000 0.17750300 7703.56999257 0 70.87738358 0 1870.27067442 0 -158.91111303 0 544.11729347 0 34069
0.17850000 0.17849800 7780.25691427 0 20.58743787 0 1788.63442353 0 -249.28232097 0 408.87216751 0 34536
