### header ###
fiducial parameters:
Omega_m = 0.31
Omega_nu = 0
Omega_de = 0.69
Omega_k = 0
H_0 = 100
w_de = -1
zeff = 0
beta = 0
fgrowth = 0
b_1 = 2
gamma = 0.55
Lx = 3500 Ly = 3500 Lz = 3500
nx = 700 ny = 700 nz = 700
xoffset = -685.467585 yoffset = -31.7331281 zoffset = 572.489161
bins = 400 dk = 0.001
kx_ny = 0.628318531 ky_ny = 0.628318531 kz_ny = 0.628318531
############################
A(data) = 8.06743614 (not used)
A(ran) = 8.06850976 (used)
Ngal = 479820
weighted Ngal = 0
Nran = 23820508
weighted Nran = 0
SN(data) = 3486.05854
SN(ran) = 70.2796462
SN(data+ran) = 3556.33819
############################
13 columns: k_central k_mean P_0(k) sigma^{lin}_{P_0(k)} P^img_1(k) sigma^{lin}_{P_1(k)} P_2(k) sigma^{lin}_{P_2(k)} P^img_3(k) sigma^{lin}_{P_3(k)} P_4(k) sigma^{lin}_{P_4(k)} N_modes
### header ###
0.00050000 0 0 0 0 0 0 0 0 0 0 0 0
0.00150000 0.00179520 106048.06975504 0 -22830.91232955 0 93196.42233804 0 11321.78429681 0 -206230.90760714 0 3
0.00250000 0.00253879 167120.13465024 0 12705.38200615 0 61209.36172295 0 3031.97899439 0 148263.96548408 0 6
0.00350000 0.00331552 135220.76684772 0 31825.84756572 0 47368.95569964 0 -46359.27039943 0 96697.38072244 0 7
0.00450000 0.00420575 95512.53124360 0 31439.53415280 0 60366.53635776 0 -11957.00357166 0 76549.29269645 0 24
0.00550000 0.00557378 91493.94167392 0 13922.45195021 0 107711.35438930 0 63237.47945998 0 -28192.35345324 0 45
0.00650000 0.00659388 77728.71673613 0 13242.94337609 0 81393.65625110 0 89231.09065073 0 16282.07509232 0 40
0.00750000 0.00754703 63253.64505422 0 -7007.63008842 0 32001.67608384 0 46271.79903336 0 -16722.75362010 0 57
0.00850000 0.00846663 70797.33067641 0 -8034.38891350 0 3587.56610914 0 40238.71068618 0 -1286.30519116 0 75
0.00950000 0.00948925 83721.61254422 0 -13669.44932811 0 -5530.74804249 0 13427.85120057 0 -35586.00907414 0 112
0.01050000 0.01054430 79271.86664611 0 236.10514720 0 -29300.13955134 0 -28379.69718917 0 -17280.13445147 0 105
0.01150000 0.01145670 89099.77287838 0 5588.08054040 0 -14708.14411935 0 -43094.37398016 0 -5758.88222305 0 144
0.01250000 0.01249090 82896.39217549 0 2434.73779367 0 5447.65024472 0 -43705.78775664 0 -1407.25926748 0 169
0.01350000 0.01339930 86644.92774284 0 -5104.02064398 0 23861.41360042 0 -3109.47419579 0 -19381.66170205 0 180
0.01450000 0.01448870 94304.42988264 0 1384.29526580 0 53338.82107211 0 840.06835632 0 -7886.91661925 0 267
0.01550000 0.01550050 85717.39909278 0 6129.69438123 0 36288.99097687 0 21291.30556352 0 -1784.98055634 0 238
0.01650000 0.01653350 92648.56370601 0 -859.10389714 0 43669.13836149 0 17072.41763787 0 -7751.98926901 0 315
0.01750000 0.01747870 82712.14869051 0 7275.27032394 0 17260.09354355 0 13712.40994840 0 -15284.01573316 0 297
0.01850000 0.01844180 94135.24475941 0 -7182.80533938 0 33105.69759151 0 14771.36709406 0 -18253.50252628 0 388
0.01950000 0.01947590 80737.17811261 0 3198.85000173 0 12856.51923992 0 319.81081560 0 -9625.94702759 0 399
0.02050000 0.02045430 83359.65824590 0 9699.73300018 0 16991.58966669 0 -2631.20512525 0 -34039.64818996 0 462
0.02150000 0.02154770 73226.82018812 0 8569.63616756 0 12863.82697430 0 -3445.97321936 0 -20761.05192795 0 571
0.02250000 0.02255340 67171.69791454 0 8847.49615889 0 19034.10142599 0 -4591.29449860 0 -11041.30016450 0 510
0.02350000 0.02348930 59609.30006341 0 6431.72525763 0 17650.72516315 0 6405.72743896 0 -6356.65489536 0 555
0.02450000 0.02439640 60569.71351818 0 -1080.27690709 0 15482.43179391 0 12522.13503040 0 7941.11564923 0 592
0.02550000 0.02547300 62326.11640416 0 -4968.83863027 0 12885.52873095 0 12472.75246171 0 -6313.51711787 0 837
0.02650000 0.02652900 63662.65673302 0 -550.71861353 0 13674.98549052 0 7462.56977057 0 6603.80025764 0 723
0.02750000 0.02749970 64643.55398870 0 3146.96508763 0 11146.62011818 0 -2641.53560431 0 -4266.94181536 0 826
0.02850000 0.02848090 61256.19765693 0 3739.53376728 0 15617.18198696 0 -5835.64665102 0 11079.63255303 0 831
0.02950000 0.02946900 60604.14844836 0 1844.76003803 0 16776.56511872 0 -3344.27391590 0 3981.91802988 0 996
0.03050000 0.03053250 58762.37793803 0 4.75353727 0 22080.76232309 0 39.80035735 0 6883.07750654 0 1041
0.03150000 0.03150510 61225.74876368 0 1867.64653343 0 25508.08974745 0 4376.76820524 0 4097.56846261 0 1036
0.03250000 0.03246190 61728.32158720 0 -1682.09651412 0 27531.44638481 0 4468.98959865 0 6688.83571224 0 1059
0.03350000 0.03345080 61150.89984791 0 1371.19670554 0 22060.38924542 0 3597.29868265 0 10183.90361985 0 1302
0.03450000 0.03451200 60720.74002870 0 4211.14837060 0 26120.61075642 0 1357.51131207 0 7285.86653879 0 1339
0.03550000 0.03553350 56722.74498319 0 2553.12309063 0 21703.97110951 0 2876.86679600 0 9511.22667014 0 1365
0.03650000 0.03647120 54312.41059342 0 2392.90655051 0 23931.94430952 0 4049.23776478 0 8620.74601893 0 1308
0.03750000 0.03744890 52951.62187321 0 1635.99135358 0 20403.08366657 0 1146.06312500 0 -1385.69037873 0 1579
0.03850000 0.03847530 51410.02208870 0 247.76984140 0 19502.01787283 0 1525.76636001 0 -4952.76161463 0 1662
0.03950000 0.03950240 50714.56936685 0 1775.97875626 0 15858.22649826 0 -875.36692784 0 -6596.28214908 0 1683
0.04050000 0.04050350 48676.70798397 0 647.85390470 0 17852.57364459 0 -523.19835019 0 -2754.22972631 0 1822
0.04150000 0.04152450 49600.47204359 0 1830.58746227 0 17438.02580338 0 2396.71543024 0 -11551.97792979 0 1887
0.04250000 0.04250150 48691.54489923 0 650.82793114 0 18263.24617212 0 177.60009009 0 -1616.61478515 0 1920
0.04350000 0.04349210 48008.16101142 0 1332.96396794 0 17492.61236474 0 1354.47749507 0 -4766.82406395 0 2005
0.04450000 0.04448520 46003.95949600 0 1924.21504093 0 20111.10646110 0 -1501.76155980 0 -1309.09203563 0 2151
0.04550000 0.04548030 45649.53437856 0 2549.83461016 0 23375.55998738 0 -1535.86432024 0 -1702.87926781 0 2274
0.04650000 0.04648670 42886.87861306 0 2997.57728118 0 24724.94421303 0 1753.66802175 0 4296.06202963 0 2311
0.04750000 0.04749250 41182.18348398 0 928.80196741 0 21579.07528556 0 3873.47568061 0 1938.98552224 0 2568
0.04850000 0.04851840 41517.67492598 0 -614.30586773 0 23127.87208119 0 4488.66511986 0 -645.79334505 0 2493
0.04950000 0.04949480 40050.03827127 0 1119.78849821 0 19934.72432674 0 1505.74759674 0 -5894.99431205 0 2644
0.05050000 0.05050630 39148.41886129 0 1937.21395027 0 19009.74231139 0 -484.90139311 0 -5452.89852669 0 2829
0.05150000 0.05149060 37729.94332877 0 1883.20314981 0 20085.41866752 0 -4127.00977430 0 -4519.28009798 0 2784
0.05250000 0.05249300 37030.06167698 0 -22.08485908 0 20080.54684460 0 -1101.60995532 0 -6192.59625852 0 3055
0.05350000 0.05348950 36390.19202571 0 1415.64101736 0 21673.96510925 0 -559.93410947 0 -4606.21999245 0 3009
0.05450000 0.05448610 36457.84393036 0 370.02380865 0 19664.33815467 0 4295.70771524 0 -6383.41670445 0 3336
0.05550000 0.05550870 34755.36326624 0 -402.18780502 0 18058.18671647 0 4730.40718762 0 -3879.41044671 0 3349
0.05650000 0.05647670 35361.35160357 0 268.92130350 0 16471.41184671 0 6026.11278255 0 -4110.95490332 0 3324
0.05750000 0.05747970 35092.62628022 0 -555.06782272 0 15411.90108482 0 3139.64628093 0 -3163.57357486 0 3639
0.05850000 0.05849280 35152.52755749 0 298.16884951 0 13401.38834425 0 891.87354968 0 -410.30603357 0 3846
0.05950000 0.05951020 34800.75979800 0 620.55176616 0 12631.97249260 0 -1308.44984079 0 -1403.60540029 0 3787
0.06050000 0.06049470 34916.90848535 0 750.15111370 0 11971.28687067 0 -79.52841241 0 -609.72967588 0 3930
0.06150000 0.06148310 33473.52022199 0 338.59501465 0 12706.93213162 0 -531.70743181 0 -1695.83726922 0 4083
0.06250000 0.06249100 34011.63520817 0 263.71066744 0 13919.35169926 0 1839.33459887 0 -1925.24476714 0 4303
0.06350000 0.06350600 33028.08059453 0 572.68389150 0 12554.68766537 0 1236.01469183 0 -1627.02277048 0 4470
0.06450000 0.06451750 33273.99692875 0 267.24384629 0 12061.85848769 0 3976.02755308 0 146.00299676 0 4479
0.06550000 0.06550280 31871.79771372 0 -216.25911220 0 9919.00932089 0 2720.41484632 0 1060.26810891 0 4636
0.06650000 0.06648880 32398.17603560 0 931.43828795 0 10796.77894321 0 1760.73216499 0 2432.76691985 0 4653
0.06750000 0.06749660 32215.37195284 0 836.68465385 0 10816.77556183 0 -13.00821009 0 2060.69251665 0 5220
0.06850000 0.06852730 31045.13794276 0 775.33068757 0 9187.64904964 0 -214.04575446 0 3170.11731883 0 5029
0.06950000 0.06949320 30223.57144122 0 368.81581801 0 10058.34345640 0 980.15540992 0 4069.73263802 0 5040
0.07050000 0.07048030 30284.91212071 0 -384.43222494 0 9199.29713535 0 1714.23947307 0 1123.69702887 0 5475
0.07150000 0.07148790 30419.21942076 0 296.41942218 0 8761.67456922 0 1325.91089703 0 1448.26008628 0 5509
0.07250000 0.07249820 29756.54078037 0 775.94852329 0 8103.32520783 0 21.40103230 0 -885.76716254 0 5916
0.07350000 0.07351270 29100.61625811 0 1332.51000262 0 8452.30274146 0 -116.24280211 0 616.49486634 0 5721
0.07450000 0.07449140 27353.95701797 0 1581.60409407 0 7483.33037961 0 -723.88977369 0 2821.10656822 0 6028
0.07550000 0.07549160 26286.47418220 0 1391.97945923 0 7580.80005498 0 -370.90073678 0 1077.72695069 0 6183
0.07650000 0.07648840 25886.87397950 0 380.77614328 0 9358.92684226 0 990.35080661 0 2532.81644691 0 6330
0.07750000 0.07749960 25051.79924168 0 393.70640420 0 8279.89557171 0 1406.40669846 0 2899.79758070 0 6583
0.07850000 0.07848650 25310.33802619 0 293.88828873 0 8675.35472493 0 600.08900266 0 2383.26255559 0 6549
0.07950000 0.07947320 25333.03629207 0 -572.21331770 0 7368.25570777 0 1532.65334605 0 2586.28470346 0 6828
0.08050000 0.08048110 25363.37446207 0 -232.40920518 0 8240.98742230 0 411.34904657 0 3123.21495089 0 7147
0.08150000 0.08149960 25426.04382055 0 565.66846650 0 8079.27611832 0 997.05952822 0 1513.85253850 0 7386
0.08250000 0.08250610 25183.78135351 0 764.03470179 0 8529.54327939 0 -1427.63234514 0 1330.79379228 0 7227
0.08350000 0.08350160 24148.40825972 0 1087.45398804 0 9065.31093272 0 -625.70039720 0 2556.15690763 0 7798
0.08450000 0.08449610 23559.02840963 0 910.59685095 0 9500.39793647 0 -907.50545786 0 1720.16316685 0 7371
0.08550000 0.08548940 23134.73692258 0 271.93186862 0 9146.84753268 0 -714.56798343 0 324.38368575 0 8256
0.08650000 0.08650700 22733.91876414 0 724.64601348 0 9566.43328169 0 149.55056963 0 238.12252478 0 8037
0.08750000 0.08749060 21975.13234432 0 683.80906508 0 8787.03019305 0 527.06923495 0 -313.62692219 0 8155
0.08850000 0.08849210 21567.67079099 0 313.88158566 0 8771.39607041 0 1498.61701955 0 67.89881749 0 8718
0.08950000 0.08949900 21453.18295237 0 40.26871669 0 7959.49570843 0 1167.91989420 0 -26.85492734 0 8571
0.09050000 0.09049190 20977.73732466 0 359.55824723 0 6917.36849650 0 1143.36147775 0 -336.90648512 0 8932
0.09150000 0.09150830 20746.21501270 0 656.07178418 0 7438.71998291 0 238.26867947 0 -96.59684401 0 9285
0.09250000 0.09250820 20199.57433640 0 807.22894814 0 6713.41627334 0 -157.78948653 0 600.40345669 0 9204
0.09350000 0.09350330 19469.57596111 0 599.39255343 0 6691.55950415 0 60.74299540 0 919.48239161 0 9349
0.09450000 0.09448040 18832.03149805 0 741.66528395 0 6858.45265614 0 204.65420855 0 852.89453739 0 9564
0.09550000 0.09549270 18482.36748028 0 412.78069817 0 6846.91529368 0 944.04745145 0 321.61117561 0 10155
0.09650000 0.09649430 17818.69233065 0 -29.63186640 0 5784.94647567 0 957.09175732 0 137.62456857 0 9913
0.09750000 0.09749140 17974.81211059 0 -4.23050279 0 4919.60000180 0 1676.10638640 0 -94.47361501 0 10476
0.09850000 0.09850240 17755.80152568 0 -43.58454580 0 4150.38345200 0 486.78479556 0 197.93995078 0 10575
0.09950000 0.09950330 17790.34717911 0 239.15557269 0 4090.15000498 0 -179.63075446 0 -524.20925345 0 10882
0.10050000 0.10051200 17990.42408858 0 117.29245850 0 4323.14493614 0 -576.61456681 0 461.37602457 0 10875
0.10150000 0.10150300 17336.49258480 0 578.16912122 0 4705.08478076 0 -652.88516909 0 966.52648530 0 11118
0.10250000 0.10250800 17503.68468956 0 388.73160866 0 5416.86918173 0 -625.17446177 0 188.31920775 0 11575
0.10350000 0.10349800 17035.87896597 0 148.76111287 0 6263.42592039 0 557.65210333 0 1728.41204884 0 11364
0.10450000 0.10450100 17028.68195484 0 119.06624494 0 6226.43328317 0 455.11683935 0 799.80052542 0 12093
0.10550000 0.10551000 16736.48330287 0 241.31356880 0 5768.94696631 0 588.77308670 0 1204.00460078 0 12067
0.10650000 0.10649700 16609.70518370 0 111.44959269 0 6001.41042588 0 634.55050643 0 377.96820171 0 12054
0.10750000 0.10749900 16246.53292965 0 430.17532046 0 5475.18711655 0 478.07198316 0 1109.15906638 0 12807
0.10850000 0.10850100 15909.71280866 0 380.05201324 0 5148.19922000 0 187.83313269 0 1118.08336019 0 12736
0.10950000 0.10950300 15479.44226621 0 338.21523391 0 4742.81926374 0 533.50557736 0 1252.66746836 0 12933
0.11050000 0.11050200 15193.55483939 0 381.40615856 0 4822.99396775 0 50.49079768 0 218.49904351 0 13428
0.11150000 0.11150900 14932.13725043 0 373.18827908 0 4087.52586400 0 1.25206956 0 313.82622403 0 13453
0.11250000 0.11250000 14820.97110925 0 -45.99355151 0 4416.18568159 0 184.55572454 0 636.16928032 0 13668
0.11350000 0.11349100 14778.89627494 0 -91.12622977 0 3840.69052682 0 19.11526157 0 -288.84041585 0 13791
0.11450000 0.11448600 15101.76526665 0 -98.06459139 0 4388.81489464 0 355.25111288 0 -201.27825672 0 14205
0.11550000 0.11549300 14949.74224689 0 181.66474053 0 4120.84248938 0 -65.00672624 0 -219.41693923 0 14776
0.11650000 0.11649800 14783.54665136 0 312.81974971 0 4175.20760424 0 -342.69398930 0 -82.03430097 0 14553
0.11750000 0.11747300 14614.14008163 0 367.79052073 0 4633.81222590 0 -1.21871972 0 -297.50340278 0 14568
0.11850000 0.11849100 14126.07200363 0 576.83047715 0 4610.81500725 0 -92.87200322 0 -266.80648946 0 16015
0.11950000 0.11950300 13878.93771368 0 226.69145664 0 4969.69119928 0 -67.10050287 0 456.87401729 0 15270
0.12050000 0.12050700 13913.48336711 0 -16.31407411 0 4535.00279922 0 141.41019642 0 -271.26310020 0 15999
0.12150000 0.12150000 13804.64241414 0 -138.71962149 0 4850.78550305 0 42.99605174 0 -90.23889366 0 15670
0.12250000 0.12250700 13907.17214196 0 90.87688101 0 4561.13348579 0 30.84572537 0 -1113.83158746 0 16887
0.12350000 0.12352200 13749.83440629 0 234.36014881 0 4748.49936637 0 -11.35699429 0 -764.47427308 0 16407
0.12450000 0.12449800 13477.78738550 0 328.56570283 0 4331.34952883 0 189.17509846 0 -698.98036455 0 16306
0.12550000 0.12549900 13302.73393011 0 193.87087141 0 4226.18458770 0 636.10284637 0 -339.70335437 0 17523
0.12650000 0.12650100 13319.23169409 0 -66.68816949 0 4091.00257399 0 779.82162251 0 -183.29569398 0 17154
0.12750000 0.12750600 13334.84367209 0 -92.57039309 0 3681.01653061 0 785.73424397 0 -292.49096134 0 18007
0.12850000 0.12850300 13431.17289801 0 8.10211832 0 3504.62332392 0 241.42872097 0 -13.50934351 0 17496
0.12950000 0.12949900 13316.68505939 0 323.51450825 0 3554.50414723 0 -497.27250163 0 227.72893348 0 18405
0.13050000 0.13049000 13046.63105706 0 531.13167092 0 4050.41143121 0 -295.93666882 0 991.11368979 0 18100
0.13150000 0.13148800 12674.15805016 0 128.62055402 0 4109.63729666 0 359.53942428 0 1189.94274826 0 19059
0.13250000 0.13249300 12502.97990846 0 0.70427958 0 3915.42871934 0 718.92051431 0 1218.83044371 0 18957
0.13350000 0.13349100 12809.46185944 0 -28.22933502 0 4022.16593060 0 1020.41438296 0 1047.50061117 0 19468
0.13450000 0.13450700 12389.71002557 0 267.30363684 0 3434.91196686 0 318.29390710 0 1117.77333509 0 19953
0.13550000 0.13551000 12161.06651806 0 386.43520850 0 3373.73737224 0 328.13941833 0 1738.04497143 0 19956
0.13650000 0.13649900 11965.75070826 0 162.00693505 0 3126.42592509 0 -7.72686616 0 1719.48775504 0 19723
0.13750000 0.13749600 11852.14865562 0 305.94937216 0 3197.49917810 0 -72.70343139 0 1524.41553638 0 20946
0.13850000 0.13851100 11460.29908029 0 267.75317323 0 3088.80216536 0 -285.53864859 0 1264.20483082 0 20955
0.13950000 0.13949800 11404.38383996 0 99.64948397 0 3083.02241180 0 78.73131575 0 1598.62225732 0 20506
0.14050000 0.14048300 11188.14133625 0 101.47785696 0 3228.82278502 0 -9.00084786 0 739.97232549 0 21447
0.14150000 0.14148400 11186.36976428 0 96.87675238 0 2986.98106633 0 196.95119218 0 1072.88834474 0 21771
0.14250000 0.14249400 11268.63713768 0 121.11130333 0 3007.88561558 0 425.47068964 0 721.19366260 0 22470
0.14350000 0.14350900 10978.81903555 0 40.26218401 0 2913.41654023 0 10.84498785 0 1165.55041668 0 22519
0.14450000 0.14449900 11160.68197070 0 188.48307816 0 2904.44795713 0 76.22033393 0 831.94348436 0 22218
0.14550000 0.14550500 10951.78041835 0 195.14086707 0 3065.37312604 0 -458.34995819 0 938.48028654 0 23559
0.14650000 0.14650700 10580.43678858 0 419.55917542 0 3376.23971765 0 -65.70317547 0 992.96608974 0 23044
0.14750000 0.14750500 10398.27490066 0 271.48565393 0 3294.54810514 0 -41.81053792 0 990.55010846 0 23649
0.14850000 0.14849900 10183.92576450 0 327.08422577 0 3630.85889918 0 150.79731340 0 790.15763773 0 23640
0.14950000 0.14949500 10040.10733743 0 178.22567644 0 3553.95053099 0 344.24632924 0 721.53247574 0 24457
0.15050000 0.15050000 9801.38801434 0 132.28992247 0 3183.81378463 0 198.30644473 0 894.54197996 0 24591
0.15150000 0.15149900 9772.81034398 0 85.28137094 0 3333.99879847 0 -175.15089184 0 883.69442333 0 25020
0.15250000 0.15250500 9782.99688281 0 102.40383549 0 3298.34591255 0 -223.56241765 0 418.64127970 0 25297
0.15350000 0.15350100 9582.67638220 0 171.95320443 0 3096.40885251 0 -20.29047812 0 565.11706472 0 25452
0.15450000 0.15450400 9468.19961590 0 204.02972943 0 3030.07455452 0 -48.56819920 0 50.02553859 0 26061
0.15550000 0.15549900 9368.38260766 0 -2.62209260 0 3002.60411665 0 216.40637412 0 -127.48010457 0 26128
0.15650000 0.15649500 9221.86253333 0 183.21486601 0 2972.49846546 0 180.65826621 0 -369.28749905 0 26331
0.15750000 0.15749700 9156.39187668 0 200.89736874 0 2620.84142922 0 338.31488483 0 -169.96350766 0 27345
0.15850000 0.15849900 8909.83334762 0 86.44053263 0 2686.97642536 0 255.24587511 0 -92.71300464 0 26980
0.15950000 0.15949700 9032.95759960 0 -84.38406974 0 2453.18428682 0 527.89965931 0 -95.01615892 0 27777
0.16050000 0.16050000 8918.73549677 0 -0.82012046 0 2304.20615638 0 257.55113314 0 -8.46971951 0 28224
0.16150000 0.16150500 9000.79249600 0 104.64564909 0 2206.45967289 0 51.66534990 0 97.98952103 0 28075
0.16250000 0.16249700 8913.90796315 0 -32.70709390 0 2051.65749960 0 174.19202851 0 397.26394217 0 28590
0.16350000 0.16349900 8876.16240784 0 36.12368117 0 1898.68225990 0 264.31743084 0 322.75051784 0 29163
0.16450000 0.16449100 8852.75551318 0 156.42316164 0 1800.91363175 0 329.32304985 0 456.76218681 0 28996
0.16550000 0.16550500 8759.81441865 0 85.82767945 0 1481.11167402 0 340.47730987 0 594.15091486 0 30777
0.16650000 0.16650700 8575.22769160 0 114.83218793 0 1710.10949592 0 244.49243325 0 937.72515398 0 29211
0.16750000 0.16749900 8583.25512709 0 62.05484445 0 1470.48224219 0 120.03507336 0 673.47637156 0 30922
0.16850000 0.16850800 8549.39595779 0 65.06308438 0 1749.42732135 0 -95.03265669 0 828.49999134 0 30867
0.16950000 0.16949900 8540.90348466 0 102.43594523 0 1828.24012941 0 -244.82571023 0 818.57143768 0 30852
0.17050000 0.17049200 8561.94090181 0 8.01887659 0 2036.31125740 0 -388.06948364 0 1024.12804071 0 31257
0.17150000 0.17149500 8631.24258285 0 42.09664679 0 2094.68455384 0 -62.25514280 0 838.94230088 0 32608
0.17250000 0.17250900 8572.61462294 0 68.05471582 0 2108.63568311 0 -111.68432598 0 341.66758479 0 32361
0.17350000 0.17350400 8532.02348015 0 153.38048678 0 2183.93856420 0 -6.79848494 0 356.41149252 0 32508
0.17450000 0.17449800 8323.03334920 0 167.95166624 0 2080.32374855 0 58.15738611 0 454.56986650 0 32791
0.17550000 0.17549800 8285.19921530 0 128.56851410 0 2126.93823604 0 191.19911943 0 572.31075416 0 33633
0.17650000 0.17650100 8139.28811884 0 -32.29055304 0 1950.26822123 0 262.11514543 0 547.02156427 0 33984
0.17750000 0.17750300 8253.28877517 0 -93.33759448 0 2110.30760416 0 292.86631315 0 424.86171178 0 34069
0.17850000 0.17849800 8271.71312367 0 134.37041230 0 2038.82467513 0 -75.31173895 0 528.78765976 0 34536
