### header ###
fiducial parameters:
Omega_m = 0.31
Omega_nu = 0
Omega_de = 0.69
Omega_k = 0
H_0 = 100
w_de = -1
zeff = 0
beta = 0
fgrowth = 0
b_1 = 2
gamma = 0.55
Lx = 3500 Ly = 3500 Lz = 3500
nx = 700 ny = 700 nz = 700
xoffset = -685.467585 yoffset = -31.7331281 zoffset = 572.489161
bins = 400 dk = 0.001
kx_ny = 0.628318531 ky_ny = 0.628318531 kz_ny = 0.628318531
############################
A(data) = 8.04271573 (not used)
A(ran) = 8.04460461 (used)
Ngal = 478182
weighted Ngal = 0
Nran = 23820508
weighted Nran = 0
SN(data) = 3492.58805
SN(ran) = 70.0714237
SN(data+ran) = 3562.65947
############################
13 columns: k_central k_mean P_0(k) sigma^{lin}_{P_0(k)} P^img_1(k) sigma^{lin}_{P_1(k)} P_2(k) sigma^{lin}_{P_2(k)} P^img_3(k) sigma^{lin}_{P_3(k)} P_4(k) sigma^{lin}_{P_4(k)} N_modes
### header ###
0.00050000 0 0 0 0 0 0 0 0 0 0 0 0
0.00150000 0.00179520 260.72667590 0 -3213.16651772 0 -748.01747670 0 -8207.58221832 0 -19076.06553705 0 3
0.00250000 0.00253879 4092.49733784 0 -4270.16386188 0 -1802.96201184 0 12740.81344557 0 19912.35823061 0 6
0.00350000 0.00331552 7810.46221637 0 -7812.80954923 0 -2501.32675513 0 -8205.22381313 0 -17623.70869059 0 7
0.00450000 0.00420575 16848.20306029 0 -14908.77464506 0 -4666.27628227 0 3327.36647590 0 12934.35768340 0 24
0.00550000 0.00557378 40179.91664139 0 -22413.04279090 0 -2044.49370544 0 -8647.34174314 0 -5789.18717608 0 45
0.00650000 0.00659388 49109.19299139 0 -9777.84825177 0 -1634.08691371 0 8482.17587382 0 19906.93279144 0 40
0.00750000 0.00754703 65837.48277390 0 -8229.18432404 0 -5563.63284720 0 -11881.93320939 0 4234.83207339 0 57
0.00850000 0.00846663 53704.20779113 0 332.34690176 0 -11219.03312249 0 -686.76980474 0 15114.27699369 0 75
0.00950000 0.00948925 81504.04732954 0 -10694.40422794 0 2484.75148488 0 -21694.22746367 0 -22783.41205608 0 112
0.01050000 0.01054430 80432.79990334 0 -8557.33481469 0 -1133.97214630 0 -31647.02951990 0 -34489.18457760 0 105
0.01150000 0.01145670 94250.50766077 0 801.15134904 0 24086.62468724 0 -41176.86876806 0 -27489.59299700 0 144
0.01250000 0.01249090 90992.25463639 0 452.12952611 0 19362.72802661 0 -24174.98183929 0 -28340.61188256 0 169
0.01350000 0.01339930 99154.66176945 0 587.78986425 0 41782.30348915 0 2933.46852048 0 -33174.89962163 0 180
0.01450000 0.01448870 95363.71919804 0 1621.24301692 0 27237.69760737 0 9590.31628632 0 -48102.94011187 0 267
0.01550000 0.01550050 93552.17613446 0 11467.49609142 0 23445.97997323 0 6944.51783696 0 -45119.05929649 0 238
0.01650000 0.01653350 82405.55601628 0 9711.07106079 0 18282.84418705 0 -5278.25474732 0 -27026.65909633 0 315
0.01750000 0.01747870 72772.30125431 0 6857.09076019 0 18719.86884764 0 12324.49403239 0 -11891.67685523 0 297
0.01850000 0.01844180 69161.17323796 0 1969.24618597 0 8354.27944984 0 -483.37341228 0 -14014.13079971 0 388
0.01950000 0.01947590 71872.34269305 0 2204.89847509 0 22764.47838064 0 -8258.51491248 0 -6371.14856855 0 399
0.02050000 0.02045430 72633.89719408 0 -3537.37526074 0 22408.17096798 0 -3407.46367364 0 -1986.17577062 0 462
0.02150000 0.02154770 72405.58585632 0 1628.76112547 0 24939.41514477 0 4476.66271975 0 -4108.70722138 0 571
0.02250000 0.02255340 73642.25381531 0 2495.02660231 0 35285.39545531 0 2960.73965651 0 3074.34170915 0 510
0.02350000 0.02348930 71402.76539749 0 850.20506969 0 22373.40386805 0 10821.66952940 0 -5412.48454110 0 555
0.02450000 0.02439640 74842.16165591 0 -1472.41989903 0 18912.41657623 0 12781.78104740 0 -4879.55140293 0 592
0.02550000 0.02547300 70728.35009279 0 -1648.62487620 0 17041.19368188 0 18.58246130 0 -8711.06297247 0 837
0.02650000 0.02652900 74627.46927768 0 1940.75709421 0 16819.52573901 0 5544.63273781 0 -16558.77248953 0 723
0.02750000 0.02749970 65977.87985260 0 3041.85550813 0 19202.06859349 0 -2307.15139479 0 -23273.25170606 0 826
0.02850000 0.02848090 63101.84348095 0 10896.65131307 0 15944.92280159 0 -7215.74550571 0 -13718.38900381 0 831
0.02950000 0.02946900 56582.68007423 0 7728.82596548 0 21354.08564524 0 -1900.05522818 0 -15886.79309629 0 996
0.03050000 0.03053250 54045.01394905 0 -975.43970678 0 18245.08755941 0 1533.46162576 0 -10417.06463588 0 1041
0.03150000 0.03150510 55995.51468910 0 -3830.06109499 0 21413.43330627 0 7036.79459199 0 -11985.12727670 0 1036
0.03250000 0.03246190 58900.56055177 0 -1884.26609299 0 18309.41776661 0 1501.11936496 0 -13085.05202418 0 1059
0.03350000 0.03345080 58061.38905376 0 3038.35665348 0 18045.67498943 0 2739.54782360 0 -4294.20187907 0 1302
0.03450000 0.03451200 56543.48404437 0 1144.77873532 0 12680.24782881 0 3135.61595469 0 -5932.61807178 0 1339
0.03550000 0.03553350 55638.76438344 0 1233.84451617 0 15446.44673825 0 1079.07998878 0 -4975.55953143 0 1365
0.03650000 0.03647120 53666.11899375 0 2847.89052195 0 17334.72101282 0 -2395.95143983 0 -5143.40490336 0 1308
0.03750000 0.03744890 51487.19619269 0 3030.82747261 0 16956.26895052 0 2630.99475108 0 -513.20779151 0 1579
0.03850000 0.03847530 49580.32041242 0 1712.55647970 0 18013.78669395 0 581.49746206 0 -144.60788383 0 1662
0.03950000 0.03950240 47604.57477178 0 2316.00925464 0 21600.77704220 0 4720.34244436 0 7684.11591787 0 1683
0.04050000 0.04050350 46752.55937699 0 2103.14381000 0 20840.55122015 0 4486.82711394 0 10445.56479996 0 1822
0.04150000 0.04152450 44425.59959310 0 2593.82495667 0 19424.51159910 0 6133.14894657 0 12707.59647111 0 1887
0.04250000 0.04250150 44632.31989747 0 -327.44961249 0 22038.46604228 0 3392.54925211 0 16659.64136863 0 1920
0.04350000 0.04349210 43170.66229816 0 858.96327862 0 23708.72624117 0 2357.36438784 0 19977.24205404 0 2005
0.04450000 0.04448520 44623.24059112 0 266.61936717 0 24895.45801524 0 1987.23871380 0 22945.62161467 0 2151
0.04550000 0.04548030 43576.13083302 0 255.51271814 0 20545.25231724 0 330.68716027 0 17454.08067437 0 2274
0.04650000 0.04648670 43022.29314559 0 1590.14085651 0 22340.96195633 0 2817.15374826 0 20289.37089068 0 2311
0.04750000 0.04749250 43059.27471048 0 707.18717170 0 21859.64799646 0 1840.03215534 0 16220.84513607 0 2568
0.04850000 0.04851840 40927.40928990 0 1265.40064190 0 19991.52535306 0 3756.27512240 0 12802.48629481 0 2493
0.04950000 0.04949480 40071.07568843 0 1119.55597939 0 20166.68953169 0 1124.68246578 0 13189.68549372 0 2644
0.05050000 0.05050630 39679.44755959 0 -86.02199875 0 17772.74218265 0 984.73381623 0 8560.96653723 0 2829
0.05150000 0.05149060 38523.27540203 0 546.87319512 0 16014.34627820 0 -776.31169554 0 7783.33502057 0 2784
0.05250000 0.05249300 39676.23658539 0 1240.39933246 0 17002.55126827 0 292.91060245 0 6496.49835782 0 3055
0.05350000 0.05348950 36591.70833741 0 1842.56771772 0 17341.58585421 0 645.25080113 0 5409.58359200 0 3009
0.05450000 0.05448610 35715.33382802 0 2529.45046017 0 16090.63459620 0 2653.41620884 0 3540.70803051 0 3336
0.05550000 0.05550870 34510.00054826 0 1011.63845831 0 16001.72382791 0 835.04705701 0 1767.85166984 0 3349
0.05650000 0.05647670 32875.06106554 0 340.37987341 0 16208.99774851 0 1867.33650834 0 3734.38513623 0 3324
0.05750000 0.05747970 32946.47756062 0 1178.74862787 0 15125.46004176 0 747.83699781 0 990.96532064 0 3639
0.05850000 0.05849280 32372.70968852 0 -1320.40795160 0 12945.54073146 0 1797.13796899 0 4519.15830241 0 3846
0.05950000 0.05951020 33706.70338267 0 -1492.74868740 0 12539.07568737 0 2795.03124327 0 1550.92268200 0 3787
0.06050000 0.06049470 33892.60771637 0 -276.52688342 0 9548.09751179 0 2872.60395095 0 3157.90454455 0 3930
0.06150000 0.06148310 35422.13866682 0 -409.49886109 0 9755.43786634 0 3448.98489171 0 1095.85898981 0 4083
0.06250000 0.06249100 34473.46187636 0 -235.85823436 0 7323.67852805 0 671.61732822 0 4160.55891850 0 4303
0.06350000 0.06350600 34864.86855870 0 61.09985643 0 6511.49028562 0 902.16306113 0 1043.00967622 0 4470
0.06450000 0.06451750 34533.69532337 0 1153.24906381 0 8143.28522810 0 -1326.49773025 0 708.97203046 0 4479
0.06550000 0.06550280 32352.22588760 0 2366.77586393 0 8378.45033492 0 -2486.73343102 0 -482.71128726 0 4636
0.06650000 0.06648880 30895.32938797 0 2754.65047466 0 9689.49109972 0 -2388.24510176 0 541.23627455 0 4653
0.06750000 0.06749660 29395.69371453 0 1242.65808672 0 9941.64115282 0 -1535.83110327 0 163.29353919 0 5220
0.06850000 0.06852730 28459.63937436 0 603.59339347 0 12633.74406457 0 -407.20356816 0 -1602.04360569 0 5029
0.06950000 0.06949320 28188.25669305 0 128.89182598 0 12276.88303567 0 672.16430107 0 -1894.04295580 0 5040
0.07050000 0.07048030 28266.53802952 0 -404.42995079 0 11443.35842332 0 907.86973734 0 -3438.39974918 0 5475
0.07150000 0.07148790 28964.53738609 0 -75.31506065 0 11309.49401626 0 655.99649237 0 -1183.59830614 0 5509
0.07250000 0.07249820 29486.81894779 0 -757.08903243 0 11196.55630311 0 1420.34675541 0 -2934.37645111 0 5916
0.07350000 0.07351270 28934.19921609 0 428.50339941 0 10861.52989875 0 1313.02271094 0 -282.80156989 0 5721
0.07450000 0.07449140 29009.71247135 0 1124.16206651 0 10818.87930355 0 1691.03188025 0 363.33390999 0 6028
0.07550000 0.07549160 28228.22778565 0 563.22701887 0 9695.41479350 0 2075.50728726 0 2642.59854749 0 6183
0.07650000 0.07648840 26961.88599614 0 817.03127730 0 9769.78759931 0 2208.19802788 0 4220.39376182 0 6330
0.07750000 0.07749960 27552.48380197 0 278.71145310 0 9507.00811438 0 2838.02508054 0 3736.67710747 0 6583
0.07850000 0.07848650 25956.74034910 0 164.39080658 0 8115.03972748 0 837.06554182 0 3198.27424084 0 6549
0.07950000 0.07947320 25755.99910014 0 919.47796268 0 8860.29576638 0 -959.47341439 0 3691.36915431 0 6828
0.08050000 0.08048110 25437.44831511 0 887.73692912 0 8316.35673734 0 -1007.79525437 0 4082.78690898 0 7147
0.08150000 0.08149960 24595.39801265 0 677.32954060 0 9398.38860791 0 -1184.09656076 0 2738.11949370 0 7386
0.08250000 0.08250610 24305.08165591 0 551.32316246 0 8866.39661735 0 -540.56307720 0 1604.22485367 0 7227
0.08350000 0.08350160 23660.89379796 0 208.39886881 0 9200.12755971 0 230.09841099 0 -658.77564590 0 7798
0.08450000 0.08449610 23202.38882722 0 239.62503926 0 8289.00809503 0 -444.31689372 0 -1802.19802143 0 7371
0.08550000 0.08548940 23712.04793862 0 225.82338637 0 9050.11970307 0 -431.16518630 0 -1036.68294982 0 8256
0.08650000 0.08650700 22979.61365187 0 556.38542937 0 8092.05358116 0 430.92934578 0 -2184.68040997 0 8037
0.08750000 0.08749060 22464.75054780 0 490.79408438 0 8661.35930636 0 821.03170825 0 -1648.29270645 0 8155
0.08850000 0.08849210 21758.33622437 0 918.95756342 0 6989.49362037 0 1514.57223962 0 -2483.56674612 0 8718
0.08950000 0.08949900 21146.25810840 0 475.31608151 0 6741.18566399 0 2368.96818425 0 -987.96582785 0 8571
0.09050000 0.09049190 20518.23584468 0 448.26307028 0 6208.98329925 0 1300.28953740 0 -605.69270625 0 8932
0.09150000 0.09150830 20068.14584080 0 230.33535874 0 4778.89289800 0 1387.29586583 0 205.58649830 0 9285
0.09250000 0.09250820 19898.18565484 0 342.32306642 0 5223.45781179 0 -214.56393927 0 1207.14914103 0 9204
0.09350000 0.09350330 19799.53124070 0 675.79159468 0 5542.93867211 0 -782.36050659 0 186.18557076 0 9349
0.09450000 0.09448040 19343.79435117 0 393.45838413 0 6656.82562119 0 -508.24296106 0 2331.56587101 0 9564
0.09550000 0.09549270 19570.66628670 0 434.16910802 0 7121.74146800 0 -1117.41902070 0 2384.40300505 0 10155
0.09650000 0.09649430 19316.99932511 0 220.38576766 0 7829.16337299 0 25.32982532 0 2304.92585750 0 9913
0.09750000 0.09749140 19093.67053351 0 434.01963164 0 7639.95948649 0 718.40786567 0 1580.39721066 0 10476
0.09850000 0.09850240 18727.28730527 0 480.83563543 0 7523.47862940 0 1115.31527898 0 1753.80088965 0 10575
0.09950000 0.09950330 17843.38361499 0 507.12687072 0 7041.23459425 0 447.63969840 0 1457.79335795 0 10882
0.10050000 0.10051200 17722.69527447 0 100.27008777 0 6719.49497967 0 676.82907151 0 690.22215561 0 10875
0.10150000 0.10150300 17424.84973685 0 -164.98981936 0 5885.78213780 0 60.01842247 0 363.46234896 0 11118
0.10250000 0.10250800 17371.92402422 0 -8.89388920 0 5313.40937862 0 608.10315136 0 -1031.55092726 0 11575
0.10350000 0.10349800 17369.93100575 0 248.60801639 0 5206.71645667 0 130.02673928 0 182.22389294 0 11364
0.10450000 0.10450100 17449.54102119 0 256.45165129 0 4981.59394846 0 -1.78450445 0 -250.54235153 0 12093
0.10550000 0.10551000 16914.19411621 0 569.92688262 0 5411.58768279 0 -135.39792404 0 897.47171711 0 12067
0.10650000 0.10649700 16522.78743387 0 661.04990142 0 5572.26926056 0 483.32358682 0 1097.73131994 0 12054
0.10750000 0.10749900 16194.71444950 0 686.98128614 0 5936.28301129 0 106.44445898 0 1336.76177536 0 12807
0.10850000 0.10850100 15674.75807601 0 91.97846661 0 6416.13542429 0 414.36514785 0 2527.28028451 0 12736
0.10950000 0.10950300 15679.62989893 0 71.24277030 0 6479.66842409 0 337.25415612 0 1744.55549843 0 12933
0.11050000 0.11050200 15829.43845373 0 -209.04659981 0 6089.67899933 0 208.93366210 0 2173.61915747 0 13428
0.11150000 0.11150900 15643.97701302 0 18.74223494 0 5853.29593678 0 841.31620732 0 1733.89284963 0 13453
0.11250000 0.11250000 15573.88919692 0 217.56453929 0 5120.39661238 0 785.46740094 0 2082.74858769 0 13668
0.11350000 0.11349100 15474.34899680 0 329.46366837 0 4756.41607862 0 769.19883408 0 1382.41297058 0 13791
0.11450000 0.11448600 14796.61199465 0 444.07994597 0 3945.33506868 0 701.54028604 0 1541.95409889 0 14205
0.11550000 0.11549300 14390.47912030 0 585.72487567 0 4314.56388441 0 208.13424024 0 1705.62520436 0 14776
0.11650000 0.11649800 13974.93476985 0 399.01004779 0 4055.22789250 0 60.04433171 0 1396.65198030 0 14553
0.11750000 0.11747300 13584.19242700 0 88.61679807 0 3979.75892654 0 503.57043998 0 2040.54088548 0 14568
0.11850000 0.11849100 13845.16712298 0 13.98545348 0 4019.19854754 0 25.65358010 0 1479.49511459 0 16015
0.11950000 0.11950300 13653.39445712 0 102.44413875 0 3672.86729954 0 -308.65544834 0 1584.61576642 0 15270
0.12050000 0.12050700 13740.09076045 0 268.52823597 0 4227.03715672 0 -414.43490350 0 1982.77656690 0 15999
0.12150000 0.12150000 13617.52012471 0 205.85223410 0 4389.04741346 0 -164.76172946 0 2246.88473080 0 15670
0.12250000 0.12250700 13464.61131896 0 -87.20275147 0 4699.58183533 0 -56.59009853 0 1620.57867743 0 16887
0.12350000 0.12352200 13639.44332785 0 14.47197143 0 4460.95109083 0 498.64768437 0 1451.20532468 0 16407
0.12450000 0.12449800 13510.78291346 0 59.18345845 0 4241.30938341 0 453.46152679 0 1354.12318067 0 16306
0.12550000 0.12549900 13495.06021221 0 127.43692250 0 4268.22620504 0 528.68247267 0 1436.80023009 0 17523
0.12650000 0.12650100 13251.24761971 0 232.31176872 0 3293.15299221 0 701.24022604 0 1068.85912574 0 17154
0.12750000 0.12750600 12888.07536566 0 160.20436057 0 3112.61873604 0 680.32792616 0 1060.41204914 0 18007
0.12850000 0.12850300 12913.76315924 0 68.29332442 0 2794.03473404 0 237.64198589 0 1243.01240112 0 17496
0.12950000 0.12949900 12657.66028618 0 260.59934416 0 2687.60754788 0 288.48167252 0 946.57194151 0 18405
0.13050000 0.13049000 12545.38691252 0 82.10438878 0 2656.22857934 0 -321.19485620 0 1140.70411979 0 18100
0.13150000 0.13148800 12563.32407873 0 162.84068111 0 2945.60378848 0 -181.24067049 0 968.06221675 0 19059
0.13250000 0.13249300 12599.30913439 0 140.57423590 0 3507.45783908 0 -186.62735652 0 1686.23756361 0 18957
0.13350000 0.13349100 12300.24564103 0 213.55192878 0 3827.35944774 0 -349.66291054 0 1266.03176441 0 19468
0.13450000 0.13450700 12273.00772198 0 300.77527477 0 4097.88956003 0 -300.45860628 0 1553.93435435 0 19953
0.13550000 0.13551000 12077.13829594 0 287.19728284 0 4381.54037723 0 -49.29576166 0 1112.37004058 0 19956
0.13650000 0.13649900 11859.34566676 0 178.19910286 0 3827.00513334 0 231.20564347 0 832.85695116 0 19723
0.13750000 0.13749600 11806.08778438 0 58.10833571 0 4137.93815890 0 177.30445902 0 894.19984512 0 20946
0.13850000 0.13851100 11747.18301634 0 67.09230935 0 3452.10728731 0 28.51356160 0 242.45291102 0 20955
0.13950000 0.13949800 11720.05582054 0 27.85741563 0 3754.20459766 0 88.57583047 0 -66.32898327 0 20506
0.14050000 0.14048300 11579.32657209 0 178.83465431 0 3683.97284134 0 -355.70064926 0 -21.53965781 0 21447
0.14150000 0.14148400 11438.92949339 0 424.41881879 0 3879.14471091 0 -6.02540415 0 342.44596922 0 21771
0.14250000 0.14249400 11281.03814148 0 226.08912217 0 3872.06949535 0 44.33325640 0 332.07784426 0 22470
0.14350000 0.14350900 11049.65976974 0 29.54218057 0 4033.68114841 0 417.18859068 0 655.43401827 0 22519
0.14450000 0.14449900 11130.34380070 0 68.70532563 0 4280.20646049 0 76.19863217 0 476.89942396 0 22218
0.14550000 0.14550500 10924.43177604 0 224.23118606 0 3903.22701739 0 309.12823661 0 550.44844880 0 23559
0.14650000 0.14650700 10727.34439427 0 116.06675214 0 3881.29274193 0 283.93648318 0 861.61288595 0 23044
0.14750000 0.14750500 10713.22718013 0 113.07500998 0 3751.73546923 0 -58.74654451 0 871.59569400 0 23649
0.14850000 0.14849900 10582.23050520 0 138.31880333 0 3801.07374862 0 297.01954219 0 672.24734350 0 23640
0.14950000 0.14949500 10462.88191598 0 195.43981984 0 3842.57282204 0 216.10631411 0 780.67640599 0 24457
0.15050000 0.15050000 10266.34815045 0 191.80699007 0 3455.08574268 0 343.45022908 0 1114.49592695 0 24591
0.15150000 0.15149900 10155.32594949 0 107.05565131 0 3348.80249675 0 638.65833893 0 805.00119638 0 25020
0.15250000 0.15250500 9979.99568599 0 40.85189603 0 3006.26905616 0 553.04490897 0 920.44236217 0 25297
0.15350000 0.15350100 9937.54439263 0 -35.87200722 0 2555.74723161 0 490.21500179 0 650.02740206 0 25452
0.15450000 0.15450400 9820.07809863 0 225.19558556 0 2537.14572592 0 359.55160384 0 724.78109584 0 26061
0.15550000 0.15549900 9661.22345446 0 216.91127213 0 2211.73009950 0 -129.67021042 0 760.01323341 0 26128
0.15650000 0.15649500 9548.89471917 0 137.19274790 0 2258.75426300 0 -246.00491282 0 783.99035281 0 26331
0.15750000 0.15749700 9348.37491671 0 236.56575591 0 2385.97527517 0 -368.71505986 0 525.33641611 0 27345
0.15850000 0.15849900 9191.07039801 0 324.19656346 0 2523.37175384 0 -186.54652854 0 132.98305000 0 26980
0.15950000 0.15949700 9134.59046911 0 68.92367187 0 2746.85555798 0 -332.97802427 0 593.50096939 0 27777
0.16050000 0.16050000 8995.74351588 0 -66.70732461 0 2944.72907482 0 136.68009926 0 321.41187377 0 28224
0.16150000 0.16150500 9149.26129949 0 -50.21376812 0 2791.31094213 0 278.71588203 0 433.86794079 0 28075
0.16250000 0.16249700 9122.66557528 0 153.44249180 0 2767.58295004 0 199.03057478 0 338.49757819 0 28590
0.16350000 0.16349900 9046.62084843 0 39.69528098 0 2466.51536590 0 209.24479442 0 343.30407440 0 29163
0.16450000 0.16449100 8970.36574740 0 151.23134854 0 2596.57089322 0 123.92035214 0 716.12364506 0 28996
0.16550000 0.16550500 8978.66999101 0 93.92575637 0 2578.79981189 0 49.05693162 0 511.98097792 0 30777
0.16650000 0.16650700 8706.51224697 0 127.16232884 0 2541.31999238 0 130.75751271 0 876.92037501 0 29211
0.16750000 0.16749900 8678.84250725 0 196.79175070 0 2422.64681497 0 326.66790636 0 702.17915919 0 30922
0.16850000 0.16850800 8612.61893251 0 123.75980343 0 2242.16792043 0 108.42341560 0 793.67863702 0 30867
0.16950000 0.16949900 8552.68443827 0 36.64684852 0 2283.79986174 0 150.54154270 0 493.79468440 0 30852
0.17050000 0.17049200 8395.06989447 0 176.06103694 0 2282.08365140 0 -136.40218391 0 580.05584537 0 31257
0.17150000 0.17149500 8274.19332443 0 134.99710589 0 2298.04994379 0 -77.30265368 0 406.54365760 0 32608
0.17250000 0.17250900 8208.52336593 0 -44.36182300 0 2093.21193464 0 200.34596697 0 426.27454043 0 32361
0.17350000 0.17350400 8298.15383533 0 -95.69909992 0 2054.21520663 0 209.61903900 0 195.96686250 0 32508
0.17450000 0.17449800 8218.72097709 0 53.39462559 0 2011.47603283 0 112.11503942 0 -19.03199768 0 32791
0.17550000 0.17549800 8224.15748857 0 277.43592128 0 2107.42879971 0 10.54889174 0 155.80311145 0 33633
0.17650000 0.17650100 7948.77769801 0 300.74537949 0 1989.33138319 0 -140.35278940 0 98.28271619 0 33984
0.17750000 0.17750300 7842.68268159 0 149.94474439 0 1933.72616795 0 -46.41584998 0 432.77953126 0 34069
0.17850000 0.17849800 7804.21742517 0 -5.44800456 0 2095.61462913 0 37.55345047 0 350.58302073 0 34536
