### header ###
fiducial parameters:
Omega_m = 0.31
Omega_nu = 0
Omega_de = 0.69
Omega_k = 0
H_0 = 100
w_de = -1
zeff = 0
beta = 0
fgrowth = 0
b_1 = 2
gamma = 0.55
Lx = 3500 Ly = 3500 Lz = 3500
nx = 700 ny = 700 nz = 700
xoffset = -685.467585 yoffset = -31.7331281 zoffset = 572.489161
bins = 400 dk = 0.001
kx_ny = 0.628318531 ky_ny = 0.628318531 kz_ny = 0.628318531
############################
A(data) = 8.02573279 (not used)
A(ran) = 8.02595572 (used)
Ngal = 477084
weighted Ngal = 0
Nran = 23820508
weighted Nran = 0
SN(data) = 3483.00352
SN(ran) = 69.9089851
SN(data+ran) = 3552.91251
############################
13 columns: k_central k_mean P_0(k) sigma^{lin}_{P_0(k)} P^img_1(k) sigma^{lin}_{P_1(k)} P_2(k) sigma^{lin}_{P_2(k)} P^img_3(k) sigma^{lin}_{P_3(k)} P_4(k) sigma^{lin}_{P_4(k)} N_modes
### header ###
0.00050000 0 0 0 0 0 0 0 0 0 0 0 0
0.00150000 0.00179520 10657.30086747 0 -11121.04304785 0 -19662.78802919 0 30739.20960802 0 -2869.76943580 0 3
0.00250000 0.00253879 19092.78474753 0 -12652.23484702 0 -5021.25501596 0 1758.84986977 0 9727.44702920 0 6
0.00350000 0.00331552 23389.84328640 0 -7890.39332924 0 -2049.89699995 0 -7328.40641074 0 1579.31212283 0 7
0.00450000 0.00420575 42615.38520850 0 -20001.49044540 0 -9170.99627311 0 2451.71166762 0 -20658.19003039 0 24
0.00550000 0.00557378 57442.11392666 0 -14043.36173723 0 -12236.91194307 0 -2143.43600002 0 -14432.11106162 0 45
0.00650000 0.00659388 81993.99770277 0 -1361.40877040 0 -22475.26925638 0 12906.89831785 0 23280.00582420 0 40
0.00750000 0.00754703 64163.34726132 0 701.97099948 0 -20594.41343943 0 -7577.54479149 0 -11763.57005707 0 57
0.00850000 0.00846663 69039.70983470 0 -1517.06351270 0 -27803.82557535 0 24250.05220156 0 28841.30241086 0 75
0.00950000 0.00948925 58046.99503150 0 4524.76089876 0 -20989.47398896 0 46.00274154 0 1212.46385694 0 112
0.01050000 0.01054430 60365.76129502 0 -2222.92421989 0 -35765.93435244 0 2624.34028387 0 30368.61889634 0 105
0.01150000 0.01145670 57167.40954790 0 -4407.32782174 0 -27138.82174674 0 6695.93307245 0 8701.66256870 0 144
0.01250000 0.01249090 63646.60186203 0 -6123.00669704 0 -32441.35810239 0 -5863.91429628 0 21140.27905299 0 169
0.01350000 0.01339930 63045.04245463 0 -1633.64402072 0 -18215.52445215 0 -8557.72234606 0 8435.93784538 0 180
0.01450000 0.01448870 66909.83743258 0 -5443.21024247 0 -16401.10258412 0 -13980.80310201 0 -30.64952378 0 267
0.01550000 0.01550050 69974.32477264 0 -750.03485429 0 -4768.06416433 0 -29176.90457611 0 6236.96306407 0 238
0.01650000 0.01653350 78185.22868840 0 1031.42691723 0 10857.70994669 0 -28531.49876243 0 -7723.64411747 0 315
0.01750000 0.01747870 79350.59087557 0 -6413.81023607 0 16311.97036933 0 -9371.70430510 0 2493.26610266 0 297
0.01850000 0.01844180 83689.28135575 0 1209.37467832 0 16836.13422624 0 -1548.14352847 0 -16561.31912424 0 388
0.01950000 0.01947590 83639.56661732 0 1239.48032950 0 34261.09468634 0 -6978.25521068 0 -20101.14136876 0 399
0.02050000 0.02045430 81712.53920588 0 9595.34312179 0 40995.39336429 0 -10094.49459694 0 -15153.25157705 0 462
0.02150000 0.02154770 71979.74424379 0 11152.37772709 0 42717.02915034 0 -3243.39396448 0 -662.60002689 0 571
0.02250000 0.02255340 65591.67716292 0 1114.42949300 0 44595.22760932 0 14102.26650527 0 6589.62768187 0 510
0.02350000 0.02348930 68556.40285636 0 -3843.99007961 0 45210.29525300 0 16662.74161958 0 8269.63152660 0 555
0.02450000 0.02439640 75550.34755131 0 -4446.29133277 0 38810.60223107 0 21871.38466077 0 14711.02292380 0 592
0.02550000 0.02547300 76904.38215338 0 -2265.34229627 0 33423.58403705 0 18302.66364847 0 25179.13097709 0 837
0.02650000 0.02652900 79436.17994641 0 1719.54311666 0 26920.80767106 0 5627.44265513 0 27494.46481992 0 723
0.02750000 0.02749970 73955.37916118 0 3431.06987015 0 30836.31389668 0 12690.54509089 0 25388.73008591 0 826
0.02850000 0.02848090 74845.37263011 0 5087.32357815 0 25820.21858409 0 -3063.04793783 0 26951.69945731 0 831
0.02950000 0.02946900 67543.83875170 0 2353.82124390 0 27190.64022689 0 3239.58508474 0 23853.77369630 0 996
0.03050000 0.03053250 66007.11079012 0 1591.15951039 0 29659.32576846 0 -7317.72161729 0 12738.37753411 0 1041
0.03150000 0.03150510 66288.12639402 0 5520.56150365 0 31821.75080554 0 5408.91925251 0 15488.96446556 0 1036
0.03250000 0.03246190 63943.11872068 0 2813.11234970 0 37050.87764764 0 4358.45457999 0 13728.90771238 0 1059
0.03350000 0.03345080 58472.06158129 0 1939.61664476 0 29323.16998697 0 4349.45277991 0 11138.20515132 0 1302
0.03450000 0.03451200 61398.36630761 0 -383.02161075 0 33734.71636446 0 4068.65862251 0 5167.98546445 0 1339
0.03550000 0.03553350 57403.36078979 0 3358.76758909 0 30652.07041170 0 5006.16343723 0 9979.28705720 0 1365
0.03650000 0.03647120 53347.56820872 0 5529.89547348 0 24166.78831892 0 8948.88543725 0 9139.01939904 0 1308
0.03750000 0.03744890 49938.51012031 0 808.66945759 0 21219.66762194 0 3413.14377627 0 13255.78727288 0 1579
0.03850000 0.03847530 50546.49147610 0 912.96632846 0 18452.47220327 0 8405.17892703 0 3474.57303436 0 1662
0.03950000 0.03950240 48367.45795179 0 908.00039078 0 15904.06592301 0 4038.06578904 0 8037.79918955 0 1683
0.04050000 0.04050350 47936.74451634 0 1310.87467993 0 13672.66030231 0 638.20105192 0 8625.47390162 0 1822
0.04150000 0.04152450 47195.34164649 0 205.42594959 0 15555.28769122 0 -525.81252608 0 8656.48748344 0 1887
0.04250000 0.04250150 46374.88237743 0 2616.64501812 0 19967.83057795 0 -744.49979911 0 11165.55379362 0 1920
0.04350000 0.04349210 43815.84666534 0 2718.53255110 0 19924.42706466 0 604.55668573 0 13353.44517778 0 2005
0.04450000 0.04448520 43984.14600258 0 1604.30235995 0 22341.51557257 0 1239.90107784 0 10743.12245714 0 2151
0.04550000 0.04548030 41819.28505404 0 858.75511891 0 20476.16101037 0 4658.65852280 0 10943.80834448 0 2274
0.04650000 0.04648670 40160.54007296 0 1139.55259801 0 21067.20170919 0 520.71814943 0 9109.44521945 0 2311
0.04750000 0.04749250 40374.23594196 0 1737.36955962 0 21339.13800674 0 -371.97696675 0 6318.69896588 0 2568
0.04850000 0.04851840 37191.82834258 0 2537.75470378 0 21815.46942043 0 -1138.56716110 0 6830.74969944 0 2493
0.04950000 0.04949480 36352.87829108 0 1249.52292811 0 19744.05889336 0 822.44564413 0 6740.15593778 0 2644
0.05050000 0.05050630 35870.67854522 0 -1117.59617789 0 18498.64379776 0 4984.51704221 0 4777.81888249 0 2829
0.05150000 0.05149060 37015.11403848 0 -1355.79510172 0 16053.65303131 0 4553.98076396 0 5275.17664102 0 2784
0.05250000 0.05249300 39079.99189391 0 -1969.19082435 0 14040.59365603 0 3393.41289344 0 289.27445098 0 3055
0.05350000 0.05348950 38624.80862061 0 -321.00773391 0 13101.99268115 0 1769.63431414 0 3743.77446768 0 3009
0.05450000 0.05448610 38495.04097374 0 1796.73936530 0 10735.01751537 0 2294.29642567 0 2220.31115123 0 3336
0.05550000 0.05550870 37525.88038236 0 793.43836757 0 11030.08389946 0 1269.85171648 0 5549.23882493 0 3349
0.05650000 0.05647670 35824.83912047 0 473.79585131 0 9254.92449524 0 437.08112945 0 1658.23565414 0 3324
0.05750000 0.05747970 35636.38815206 0 1164.23281003 0 10301.03774410 0 -59.71958042 0 18.54193659 0 3639
0.05850000 0.05849280 34915.13691337 0 1016.82362802 0 12005.38963111 0 -1736.76058175 0 -1729.79608944 0 3846
0.05950000 0.05951020 33344.85980759 0 1705.03837115 0 11332.74589838 0 -1873.49272094 0 433.76718263 0 3787
0.06050000 0.06049470 32830.43959652 0 400.30329533 0 11432.39682175 0 -878.94993215 0 701.25904899 0 3930
0.06150000 0.06148310 32669.33727041 0 -262.48606831 0 12001.51431743 0 1496.07038485 0 -1837.70696713 0 4083
0.06250000 0.06249100 33265.80340839 0 -320.85936476 0 11026.64040644 0 2905.21194754 0 -1957.16627959 0 4303
0.06350000 0.06350600 33042.80678654 0 660.70776658 0 10697.54876818 0 1537.07120365 0 46.09729919 0 4470
0.06450000 0.06451750 31964.25162596 0 796.32381542 0 9090.64441190 0 2360.36498786 0 460.84566021 0 4479
0.06550000 0.06550280 31984.29253388 0 614.23611208 0 8259.35640917 0 947.14105901 0 1560.59989389 0 4636
0.06650000 0.06648880 30751.94278156 0 417.42332397 0 8633.87779616 0 1401.01447628 0 2712.50920640 0 4653
0.06750000 0.06749660 31252.07969362 0 310.84001803 0 8613.70402034 0 274.58701211 0 2167.09755816 0 5220
0.06850000 0.06852730 30406.04335423 0 19.78203697 0 8031.31080721 0 -176.65562078 0 1197.77088191 0 5029
0.06950000 0.06949320 31239.56796658 0 754.59997381 0 9363.53292938 0 25.49192415 0 2806.95613710 0 5040
0.07050000 0.07048030 29851.09843432 0 668.47057351 0 9584.51438812 0 -789.05815588 0 2187.12739375 0 5475
0.07150000 0.07148790 29749.23304599 0 686.27819351 0 7997.32984234 0 776.34491252 0 1869.45132238 0 5509
0.07250000 0.07249820 28946.37877339 0 591.07945196 0 9195.16715819 0 864.49611933 0 -416.70140839 0 5916
0.07350000 0.07351270 28901.86802762 0 343.42144104 0 7177.04773047 0 823.95369477 0 -802.93177887 0 5721
0.07450000 0.07449140 27625.45042252 0 616.29556450 0 6873.66603044 0 1028.00889055 0 -2256.75017221 0 6028
0.07550000 0.07549160 27064.85861695 0 783.86412830 0 5762.74646441 0 148.53855914 0 -1725.11249604 0 6183
0.07650000 0.07648840 26746.52927842 0 118.34875829 0 6520.24849455 0 11.43837588 0 -1180.71950169 0 6330
0.07750000 0.07749960 26424.54607269 0 246.58620987 0 5142.39732180 0 306.04570138 0 -2071.68733519 0 6583
0.07850000 0.07848650 26513.45684099 0 405.06218054 0 7696.80480211 0 -419.60567919 0 -2753.93077354 0 6549
0.07950000 0.07947320 25825.20113026 0 1461.15934469 0 7511.64231417 0 -803.43999858 0 -2079.43796257 0 6828
0.08050000 0.08048110 25440.43784281 0 1703.11178663 0 9677.28939777 0 -2326.38402300 0 60.84895755 0 7147
0.08150000 0.08149960 23568.32916247 0 988.74974845 0 9607.33444957 0 -359.74094059 0 1623.50177118 0 7386
0.08250000 0.08250610 23529.57602561 0 174.71907117 0 10044.28160388 0 1504.13103731 0 1824.45339432 0 7227
0.08350000 0.08350160 23085.24363064 0 101.69819623 0 9278.08779876 0 1939.46163221 0 443.82860419 0 7798
0.08450000 0.08449610 22633.04988504 0 90.57538161 0 9280.03652793 0 2322.50870931 0 46.18931021 0 7371
0.08550000 0.08548940 22539.48874033 0 402.31513675 0 7860.91880057 0 462.35038915 0 657.58426375 0 8256
0.08650000 0.08650700 22044.66654418 0 548.51189919 0 8170.94389549 0 -48.58779722 0 -222.42418265 0 8037
0.08750000 0.08749060 21536.11466526 0 392.38547585 0 6474.54193770 0 -211.63420212 0 -365.21620521 0 8155
0.08850000 0.08849210 21199.40526752 0 426.35536840 0 7022.40056973 0 -563.90575239 0 -1704.82799698 0 8718
0.08950000 0.08949900 21041.18174587 0 141.24300432 0 7273.99700658 0 -221.88496044 0 -1908.54770131 0 8571
0.09050000 0.09049190 20741.56463627 0 127.06157069 0 6506.17556971 0 26.75616220 0 -3149.09097400 0 8932
0.09150000 0.09150830 20893.03403979 0 327.38207131 0 6574.63575406 0 389.87980875 0 -2800.81099683 0 9285
0.09250000 0.09250820 20355.36194660 0 197.99641964 0 6280.97555522 0 442.44345636 0 -2185.37796643 0 9204
0.09350000 0.09350330 20296.12500882 0 214.64698170 0 6311.07013408 0 640.94698847 0 -2241.57001489 0 9349
0.09450000 0.09448040 19709.95613292 0 502.26279842 0 6222.15936579 0 333.36998457 0 -1387.11870863 0 9564
0.09550000 0.09549270 19076.50843005 0 803.41674670 0 6078.92777193 0 560.71581561 0 -928.22842099 0 10155
0.09650000 0.09649430 18475.94553188 0 590.39186058 0 5780.50647342 0 252.97826299 0 -683.37835164 0 9913
0.09750000 0.09749140 17725.13118593 0 269.69968793 0 5605.57481361 0 1129.43249313 0 45.02771262 0 10476
0.09850000 0.09850240 17878.48288467 0 131.58350814 0 4695.11968842 0 955.36890358 0 -381.41501642 0 10575
0.09950000 0.09950330 17667.11220388 0 0.72848811 0 3933.33266858 0 279.90062079 0 -1135.23439133 0 10882
0.10050000 0.10051200 17564.69319931 0 52.86536846 0 4344.78025884 0 -101.49878366 0 -922.73654788 0 10875
0.10150000 0.10150300 17648.39997494 0 327.91022120 0 4302.05215736 0 24.83655325 0 -1115.39278526 0 11118
0.10250000 0.10250800 17062.45254553 0 516.18403242 0 4611.29111722 0 45.45344351 0 -688.69306756 0 11575
0.10350000 0.10349800 16744.34465349 0 612.91186203 0 4105.17514976 0 245.28189001 0 42.82952397 0 11364
0.10450000 0.10450100 16288.05414772 0 463.93262437 0 4648.90380463 0 1002.97436414 0 -119.95978155 0 12093
0.10550000 0.10551000 16056.64255901 0 267.28038496 0 4636.76853663 0 -60.82780941 0 299.24950841 0 12067
0.10650000 0.10649700 15633.34758119 0 449.85748506 0 4888.86322810 0 -28.60059007 0 233.79103131 0 12054
0.10750000 0.10749900 15656.93163306 0 282.83810856 0 5115.60229574 0 -283.69510650 0 1075.30875495 0 12807
0.10850000 0.10850100 15165.09896461 0 248.16401616 0 5118.81326993 0 -528.62489658 0 985.35275919 0 12736
0.10950000 0.10950300 15332.62323912 0 53.85844528 0 6046.53014951 0 -267.15969662 0 662.72625139 0 12933
0.11050000 0.11050200 15112.61614497 0 227.39787096 0 5859.19748591 0 641.97782192 0 925.04844930 0 13428
0.11150000 0.11150900 15055.48294891 0 209.69986697 0 5825.20544871 0 464.80623079 0 1054.85927824 0 13453
0.11250000 0.11250000 14847.76613531 0 225.03835854 0 5862.71848520 0 650.54669409 0 1722.34441484 0 13668
0.11350000 0.11349100 14854.63097670 0 99.90248659 0 5379.85439986 0 748.12487825 0 819.28006647 0 13791
0.11450000 0.11448600 14711.13364705 0 86.31829416 0 5436.15717156 0 85.10986063 0 1428.37419090 0 14205
0.11550000 0.11549300 14466.54599180 0 366.78293917 0 5045.80236008 0 272.86305113 0 833.15590393 0 14776
0.11650000 0.11649800 14361.69107577 0 185.04955023 0 5039.84544933 0 -534.95494468 0 1150.65813980 0 14553
0.11750000 0.11747300 13994.86495453 0 271.86654190 0 4885.82941110 0 -93.78690942 0 -25.97445607 0 14568
0.11850000 0.11849100 13902.41104229 0 266.48982097 0 5474.95459773 0 -206.03824916 0 148.72014527 0 16015
0.11950000 0.11950300 13918.46591328 0 -16.55246126 0 5624.92923739 0 -256.98755181 0 9.39202202 0 15270
0.12050000 0.12050700 13664.35605869 0 36.52538511 0 5350.64560699 0 380.19484623 0 717.75681297 0 15999
0.12150000 0.12150000 13977.25995807 0 -118.71968117 0 5698.05087050 0 608.21387461 0 1318.07169106 0 15670
0.12250000 0.12250700 14185.08749491 0 -336.60642511 0 5262.04486379 0 830.53065572 0 1625.16261991 0 16887
0.12350000 0.12352200 14245.87455817 0 101.39127138 0 4852.14739900 0 733.21156396 0 1293.40255137 0 16407
0.12450000 0.12449800 14038.37919107 0 376.85875476 0 4502.91520190 0 201.84294528 0 1569.04807773 0 16306
0.12550000 0.12549900 13760.90673111 0 217.61436475 0 4675.89813254 0 -94.48435516 0 1116.32286054 0 17523
0.12650000 0.12650100 13512.22231568 0 188.25830996 0 4721.81506356 0 -77.95248842 0 1848.01530153 0 17154
0.12750000 0.12750600 13461.28962152 0 153.43363394 0 4584.13070444 0 205.36283734 0 1349.16277915 0 18007
0.12850000 0.12850300 13454.75694987 0 183.15507545 0 4317.03301284 0 212.59860161 0 950.60337498 0 17496
0.12950000 0.12949900 13133.10591389 0 372.52726129 0 4647.92944005 0 109.57515883 0 1294.53192850 0 18405
0.13050000 0.13049000 13085.49491717 0 102.40261753 0 4612.07725228 0 137.05766554 0 1729.23140088 0 18100
0.13150000 0.13148800 13028.80461410 0 -402.47457823 0 4408.71186234 0 608.48071764 0 1014.13969649 0 19059
0.13250000 0.13249300 13191.12489594 0 -205.70497218 0 4251.08624622 0 499.61872726 0 1220.04839944 0 18957
0.13350000 0.13349100 13377.80429238 0 289.67748360 0 3998.60402338 0 456.25507434 0 732.22059088 0 19468
0.13450000 0.13450700 12859.84093737 0 381.03191398 0 3683.44136974 0 280.18960847 0 824.94688231 0 19953
0.13550000 0.13551000 12890.40055387 0 228.58482418 0 3070.16744269 0 -20.05674135 0 471.38983513 0 19956
0.13650000 0.13649900 12451.49359806 0 265.43905734 0 3662.16036144 0 -76.30016539 0 283.92873256 0 19723
0.13750000 0.13749600 12459.90856492 0 308.62666030 0 3495.57723455 0 -462.40464354 0 -0.09262055 0 20946
0.13850000 0.13851100 12095.96124813 0 279.73896485 0 3917.42173781 0 -233.53968954 0 195.06336080 0 20955
0.13950000 0.13949800 11910.49980742 0 320.32678593 0 3914.84188613 0 -204.00094139 0 591.44151698 0 20506
0.14050000 0.14048300 11732.89971733 0 242.01444696 0 4072.47857457 0 278.18108874 0 793.79046750 0 21447
0.14150000 0.14148400 11439.37238638 0 200.28839088 0 4160.27103806 0 602.43412106 0 1087.32112014 0 21771
0.14250000 0.14249400 11357.32645948 0 252.78892624 0 3929.55700581 0 489.39122082 0 875.27392031 0 22470
0.14350000 0.14350900 11086.60811766 0 229.72084471 0 3533.14563266 0 509.31254764 0 1139.70761056 0 22519
0.14450000 0.14449900 10747.89462914 0 213.38695114 0 3614.53829240 0 46.42083253 0 1349.43958727 0 22218
0.14550000 0.14550500 10767.18261897 0 25.10727159 0 3178.75373219 0 382.25429864 0 1241.11903357 0 23559
0.14650000 0.14650700 10873.87554092 0 -242.87919552 0 3244.86658368 0 302.17260216 0 1185.44738438 0 23044
0.14750000 0.14750500 10976.68207686 0 71.34685016 0 3082.38021696 0 157.67211988 0 979.04153404 0 23649
0.14850000 0.14849900 10850.20291046 0 168.33698315 0 3228.19166250 0 -155.35025337 0 800.63316424 0 23640
0.14950000 0.14949500 10566.57423791 0 251.98175376 0 3113.00626741 0 -281.19386833 0 497.17285070 0 24457
0.15050000 0.15050000 10519.92653344 0 239.79998199 0 3451.05541645 0 -528.98474714 0 472.03978060 0 24591
0.15150000 0.15149900 10327.21271998 0 174.62384918 0 3559.84100779 0 -384.62820509 0 38.40026187 0 25020
0.15250000 0.15250500 10230.18593759 0 67.05233825 0 3416.58726929 0 28.74220510 0 -150.73530838 0 25297
0.15350000 0.15350100 10329.18359379 0 17.67253764 0 3283.91867331 0 22.59916857 0 -756.53098726 0 25452
0.15450000 0.15450400 9990.79120269 0 72.75303541 0 2989.64949661 0 438.44523987 0 -271.25534957 0 26061
0.15550000 0.15549900 10052.90694492 0 313.84836868 0 2989.31732686 0 350.11798309 0 -629.08299243 0 26128
0.15650000 0.15649500 9844.81367228 0 108.64264763 0 2859.15107629 0 390.96932551 0 -279.42340359 0 26331
0.15750000 0.15749700 9722.27625351 0 53.55229549 0 2832.11245909 0 194.83194921 0 -226.33271332 0 27345
0.15850000 0.15849900 9666.30565155 0 179.38827055 0 2757.48498981 0 86.88110043 0 -101.14646228 0 26980
0.15950000 0.15949700 9408.53085745 0 181.94819205 0 2694.18450882 0 3.64084614 0 63.64693403 0 27777
0.16050000 0.16050000 9508.23714244 0 51.43205602 0 2701.56974948 0 286.16866387 0 225.91528667 0 28224
0.16150000 0.16150500 9342.75017570 0 72.06234379 0 2463.21581310 0 360.48832252 0 643.49583765 0 28075
0.16250000 0.16249700 9301.82686317 0 105.70095237 0 2296.68804783 0 512.58441962 0 38.22244034 0 28590
0.16350000 0.16349900 9104.60661350 0 173.78013803 0 2356.22393838 0 92.91894988 0 19.07650843 0 29163
0.16450000 0.16449100 8907.47494243 0 322.91660271 0 2276.32604249 0 -209.11746269 0 161.82756339 0 28996
0.16550000 0.16550500 8680.65836852 0 288.34991186 0 2361.06254433 0 -202.79295075 0 535.29929398 0 30777
0.16650000 0.16650700 8614.85554212 0 128.85307284 0 2484.50789373 0 17.00786598 0 899.53338399 0 29211
0.16750000 0.16749900 8518.29379738 0 -110.53302565 0 2286.30220715 0 325.69797070 0 755.44368496 0 30922
0.16850000 0.16850800 8647.04279037 0 -8.86152479 0 2403.82386278 0 383.41467829 0 493.78914824 0 30867
0.16950000 0.16949900 8465.05805965 0 202.44970868 0 2296.15657624 0 76.22022320 0 694.81495595 0 30852
0.17050000 0.17049200 8456.93097323 0 163.48730488 0 2109.61004770 0 69.53995747 0 776.93174573 0 31257
0.17150000 0.17149500 8275.78773920 0 132.80478557 0 2313.07508856 0 9.98496716 0 710.90082945 0 32608
0.17250000 0.17250900 8102.35084324 0 154.79663713 0 2095.08315753 0 -2.62158327 0 450.18411864 0 32361
0.17350000 0.17350400 8072.14554114 0 90.82439819 0 2169.44489102 0 -2.61689968 0 691.21312869 0 32508
0.17450000 0.17449800 7979.52554403 0 21.47377748 0 1953.34632753 0 101.71170446 0 479.17035778 0 32791
0.17550000 0.17549800 8136.01071069 0 -52.55678277 0 1849.54328236 0 144.68206841 0 510.12082735 0 33633
0.17650000 0.17650100 8130.07594459 0 -17.26131150 0 1664.39186674 0 -12.73483439 0 112.11725388 0 33984
0.17750000 0.17750300 8100.73428382 0 102.39021653 0 1647.84981346 0 176.89589023 0 219.99270012 0 34069
0.17850000 0.17849800 7990.76395372 0 82.93913135 0 1593.61756650 0 -33.27765080 0 179.34176679 0 34536
