### header ###
fiducial parameters:
Omega_m = 0.31
Omega_nu = 0
Omega_de = 0.69
Omega_k = 0
H_0 = 100
w_de = -1
zeff = 0
beta = 0
fgrowth = 0
b_1 = 2
gamma = 0.55
Lx = 3500 Ly = 3500 Lz = 3500
nx = 700 ny = 700 nz = 700
xoffset = -685.467585 yoffset = -31.7331281 zoffset = 572.489161
bins = 400 dk = 0.001
kx_ny = 0.628318531 ky_ny = 0.628318531 kz_ny = 0.628318531
############################
A(data) = 8.06780284 (not used)
A(ran) = 8.0567732 (used)
Ngal = 478243
weighted Ngal = 0
Nran = 23820508
weighted Nran = 0
SN(data) = 3497.36479
SN(ran) = 70.1774165
SN(data+ran) = 3567.54221
############################
13 columns: k_central k_mean P_0(k) sigma^{lin}_{P_0(k)} P^img_1(k) sigma^{lin}_{P_1(k)} P_2(k) sigma^{lin}_{P_2(k)} P^img_3(k) sigma^{lin}_{P_3(k)} P_4(k) sigma^{lin}_{P_4(k)} N_modes
### header ###
0.00050000 0 0 0 0 0 0 0 0 0 0 0 0
0.00150000 0.00179520 38354.97606478 0 -11760.35908288 0 34386.76557303 0 22809.21057291 0 -29227.50510053 0 3
0.00250000 0.00253879 66336.51245347 0 -5173.77629033 0 23211.46813357 0 -12351.17833520 0 27463.90520342 0 6
0.00350000 0.00331552 60043.55664280 0 11157.58171975 0 19947.01460729 0 -16999.22957082 0 71011.02654541 0 7
0.00450000 0.00420575 53858.66672235 0 11736.88575426 0 15473.13104107 0 -15603.12013444 0 27967.80670592 0 24
0.00550000 0.00557378 47474.14278542 0 3318.56397767 0 27298.37394738 0 13601.68670022 0 -12811.12270817 0 45
0.00650000 0.00659388 46862.95045543 0 -446.75944857 0 27017.69051323 0 32401.16556330 0 -11262.21518929 0 40
0.00750000 0.00754703 57615.50653332 0 -5312.39072474 0 18966.11735160 0 -6852.04178007 0 -31946.75735274 0 57
0.00850000 0.00846663 47483.00064528 0 2639.09969285 0 20198.46710392 0 -8884.71024260 0 -12801.15761583 0 75
0.00950000 0.00948925 54851.52208884 0 6929.91344052 0 22871.32631514 0 -16639.26829097 0 -22646.89029107 0 112
0.01050000 0.01054430 43469.28289852 0 -1581.57087710 0 19501.35353334 0 -383.99597534 0 -13824.01898258 0 105
0.01150000 0.01145670 47417.23103585 0 -423.62161140 0 25732.85794127 0 4174.55433707 0 -16743.68031401 0 144
0.01250000 0.01249090 46804.15641064 0 -512.69846457 0 13930.64547058 0 9130.98089122 0 -9506.14447305 0 169
0.01350000 0.01339930 52869.35449980 0 -2820.51973500 0 23723.00954019 0 2491.32844582 0 -16121.74782894 0 180
0.01450000 0.01448870 52387.04403070 0 -587.52745015 0 16806.23894923 0 5280.76816506 0 -1059.96804891 0 267
0.01550000 0.01550050 57556.93393502 0 -6635.15708152 0 3516.96896610 0 12557.23430007 0 12245.54835643 0 238
0.01650000 0.01653350 56354.03656673 0 -5770.81818920 0 14239.89550276 0 -7602.46859465 0 -2573.38544505 0 315
0.01750000 0.01747870 67263.70893379 0 -2089.55806745 0 18157.39474685 0 -6882.66783052 0 -15043.52483810 0 297
0.01850000 0.01844180 64941.95314257 0 4708.78293725 0 21543.75456938 0 -13618.40591069 0 -23884.33331280 0 388
0.01950000 0.01947590 58210.42254582 0 5679.68188362 0 19771.07536592 0 -21294.07364472 0 -24114.08405279 0 399
0.02050000 0.02045430 59362.49794320 0 516.35011729 0 24144.42222279 0 -14360.47312004 0 -24291.68414288 0 462
0.02150000 0.02154770 61790.54805268 0 -4856.08914664 0 31154.08961898 0 -2411.58556248 0 -31273.56000377 0 571
0.02250000 0.02255340 64599.70758242 0 547.29172900 0 27882.10691182 0 1721.32576096 0 -26942.84159745 0 510
0.02350000 0.02348930 71928.81154963 0 -3417.15195786 0 25797.74176471 0 11134.66200738 0 -25103.83916832 0 555
0.02450000 0.02439640 68888.12970793 0 1833.70985787 0 30682.07641196 0 3485.91109498 0 -8984.49403387 0 592
0.02550000 0.02547300 69978.53225607 0 1406.06345640 0 28689.94373059 0 5894.03101979 0 -13918.46591328 0 837
0.02650000 0.02652900 69403.10353525 0 2233.77509821 0 36010.85417743 0 635.18827234 0 -2238.69121043 0 723
0.02750000 0.02749970 67473.75093560 0 4114.54233656 0 43061.82134519 0 -3881.61383935 0 -5075.62013082 0 826
0.02850000 0.02848090 67384.06510457 0 1440.12192754 0 36929.19279789 0 6060.14910904 0 -3182.75084144 0 831
0.02950000 0.02946900 67747.01591212 0 -4279.40925311 0 32621.17265745 0 8228.69714175 0 -1638.18367389 0 996
0.03050000 0.03053250 74232.51945140 0 -5092.58293244 0 41695.27501607 0 7243.18272661 0 -622.23033060 0 1041
0.03150000 0.03150510 72914.13773524 0 3050.00473919 0 37521.11928269 0 8750.18149606 0 10853.67962045 0 1036
0.03250000 0.03246190 70731.78251348 0 9801.60946083 0 31008.70999411 0 9334.22448559 0 3237.08273933 0 1059
0.03350000 0.03345080 62452.45163034 0 6401.69711272 0 33958.82021879 0 8560.90010328 0 31102.38186207 0 1302
0.03450000 0.03451200 57877.80990827 0 4612.78588107 0 30392.09222496 0 10882.36801406 0 18989.36923372 0 1339
0.03550000 0.03553350 54688.64819075 0 1917.41663349 0 32576.99408142 0 12566.53505292 0 22198.35041266 0 1365
0.03650000 0.03647120 52135.37008757 0 -18.62376107 0 24347.59938321 0 4313.15769915 0 18432.87418834 0 1308
0.03750000 0.03744890 51501.70093820 0 2587.56909314 0 24170.88507910 0 1303.26799278 0 20232.68058761 0 1579
0.03850000 0.03847530 47562.49993747 0 3065.42848767 0 22865.01508999 0 962.87926151 0 14777.34614946 0 1662
0.03950000 0.03950240 46712.14539140 0 3449.48314633 0 19193.32145688 0 392.05884227 0 10216.53376109 0 1683
0.04050000 0.04050350 42738.73090698 0 387.21359293 0 17550.07773055 0 1349.41744262 0 4494.22342691 0 1822
0.04150000 0.04152450 44107.49170106 0 -616.32988871 0 16804.24593076 0 2080.52305040 0 -5377.89459837 0 1887
0.04250000 0.04250150 42198.73362558 0 625.61624753 0 15664.68226043 0 -247.58271911 0 -4183.36790763 0 1920
0.04350000 0.04349210 43739.22617759 0 1317.05303718 0 16097.27799109 0 -3465.42729406 0 -6342.55982587 0 2005
0.04450000 0.04448520 42434.68486746 0 577.59778926 0 18493.88269809 0 -1287.76673803 0 -2027.81878426 0 2151
0.04550000 0.04548030 41864.01724631 0 2015.00810445 0 18005.03955735 0 1315.15966963 0 -2182.36629408 0 2274
0.04650000 0.04648670 40489.94173631 0 448.18888571 0 18588.21890554 0 4936.57387574 0 1038.99152954 0 2311
0.04750000 0.04749250 40371.80003050 0 -150.89585709 0 16004.38118586 0 8114.87364261 0 1124.79318903 0 2568
0.04850000 0.04851840 40706.95930276 0 -332.82744065 0 15720.04388452 0 6516.04101112 0 2810.27783455 0 2493
0.04950000 0.04949480 39122.28817472 0 778.49405077 0 11769.54911248 0 3777.50076908 0 5367.43125141 0 2644
0.05050000 0.05050630 39591.75474703 0 576.94895102 0 10099.56572170 0 3620.55056477 0 5823.01312840 0 2829
0.05150000 0.05149060 38109.28117706 0 110.32940559 0 10637.25995955 0 953.45117692 0 7650.06851905 0 2784
0.05250000 0.05249300 39623.42159601 0 -1342.74083076 0 8529.57649637 0 -2528.04427492 0 2128.64337406 0 3055
0.05350000 0.05348950 40210.14408815 0 1003.69406525 0 10170.62790239 0 -1176.25735478 0 1758.99380999 0 3009
0.05450000 0.05448610 39274.42191772 0 2034.01928616 0 11979.92328403 0 -4706.31380882 0 -1639.52342520 0 3336
0.05550000 0.05550870 37634.49988883 0 1908.27089319 0 12805.25437601 0 -4343.85018355 0 -2358.17266755 0 3349
0.05650000 0.05647670 35668.83006378 0 1826.21389396 0 13937.95320496 0 -1633.47793585 0 -184.37081672 0 3324
0.05750000 0.05747970 36267.62138997 0 489.33585920 0 15605.99893889 0 25.64904044 0 -446.29883986 0 3639
0.05850000 0.05849280 35859.60622041 0 -664.86099562 0 15242.71596159 0 2550.79790242 0 -4925.96658857 0 3846
0.05950000 0.05951020 34932.40974009 0 1273.15126927 0 15611.31365480 0 1282.88384279 0 -7265.09485743 0 3787
0.06050000 0.06049470 34303.61241364 0 1959.89007150 0 15076.85253581 0 -1163.53525357 0 -5999.20703324 0 3930
0.06150000 0.06148310 32599.69234730 0 1132.49952710 0 13670.33511409 0 -323.15687216 0 -4098.23280210 0 4083
0.06250000 0.06249100 31831.71589788 0 607.92377970 0 15073.75228486 0 -333.82173542 0 -3589.11623461 0 4303
0.06350000 0.06350600 32574.89033971 0 399.40311532 0 15722.59051923 0 920.14008771 0 -4587.16452144 0 4470
0.06450000 0.06451750 31632.96766738 0 134.64500596 0 15820.35914738 0 180.40028104 0 -3349.76578901 0 4479
0.06550000 0.06550280 32505.57758634 0 282.49265203 0 16352.27363167 0 1084.80991687 0 -3568.31133628 0 4636
0.06650000 0.06648880 31216.86970070 0 163.65671145 0 15530.04279063 0 1504.04245872 0 -1368.50613061 0 4653
0.06750000 0.06749660 31887.29896847 0 -99.95286567 0 14787.75413479 0 2595.46366074 0 -46.91665123 0 5220
0.06850000 0.06852730 32157.13152430 0 -1093.81171695 0 14352.72249267 0 2103.37632882 0 762.94075609 0 5029
0.06950000 0.06949320 31942.88203906 0 2.59153299 0 13036.99813447 0 3311.77664256 0 -1800.90255943 0 5040
0.07050000 0.07048030 31714.57070130 0 639.95269371 0 11374.59928620 0 1966.88778078 0 -55.96661592 0 5475
0.07150000 0.07148790 30612.87438184 0 1458.64592696 0 9285.60590731 0 2357.76299153 0 1515.69054442 0 5509
0.07250000 0.07249820 29803.26599110 0 885.35195036 0 9329.34159034 0 1049.62539030 0 1802.75163767 0 5916
0.07350000 0.07351270 28464.28975078 0 920.75017280 0 7832.56257671 0 457.26597759 0 2871.70709264 0 5721
0.07450000 0.07449140 28372.38945479 0 595.28250646 0 7508.15453185 0 1100.29899206 0 896.59811068 0 6028
0.07550000 0.07549160 27166.94545178 0 639.81650411 0 7851.24158868 0 298.43126360 0 2986.34994381 0 6183
0.07650000 0.07648840 26897.44506570 0 857.34339750 0 7835.04277747 0 722.51348372 0 372.51508173 0 6330
0.07750000 0.07749960 26383.24630112 0 417.68020190 0 7177.12523675 0 -542.33354194 0 128.51979587 0 6583
0.07850000 0.07848650 26087.72595171 0 728.65530229 0 8762.11746221 0 -857.84718828 0 798.69882910 0 6549
0.07950000 0.07947320 24879.07097451 0 919.55546896 0 8638.20707516 0 -292.22744001 0 499.52129080 0 6828
0.08050000 0.08048110 24733.58062639 0 771.13316923 0 9792.96197515 0 -24.38070563 0 1926.09733615 0 7147
0.08150000 0.08149960 24217.05667360 0 255.13404463 0 9471.52131334 0 512.61652936 0 1428.44062485 0 7386
0.08250000 0.08250610 23624.79801905 0 417.20630640 0 10186.09594016 0 1918.29134716 0 2105.14790079 0 7227
0.08350000 0.08350160 23911.68195510 0 280.14089024 0 9161.65123097 0 1093.51719311 0 1829.69060396 0 7798
0.08450000 0.08449610 22962.67299489 0 692.29046589 0 8450.42044624 0 404.07785086 0 1572.84588514 0 7371
0.08550000 0.08548940 22382.92606739 0 540.61400990 0 8476.50684351 0 801.11148867 0 2348.11899662 0 8256
0.08650000 0.08650700 22388.13006005 0 17.15258127 0 8376.36873785 0 397.65590247 0 1665.76483502 0 8037
0.08750000 0.08749060 21977.90042552 0 379.32456150 0 8177.64265201 0 405.13525788 0 1354.83180946 0 8155
0.08850000 0.08849210 21488.06077555 0 1092.78531244 0 7600.98490313 0 -433.03308749 0 428.16790797 0 8718
0.08950000 0.08949900 20724.84542580 0 973.45554617 0 7466.24578241 0 -1261.21530312 0 18.02685204 0 8571
0.09050000 0.09049190 20515.68920997 0 369.35614746 0 8500.64451162 0 -821.65175844 0 -149.94142269 0 8932
0.09150000 0.09150830 20026.51389949 0 -69.61779591 0 8129.53340067 0 -279.47101459 0 -1350.02642049 0 9285
0.09250000 0.09250820 20371.52754083 0 -138.95546201 0 8368.04234959 0 772.36773344 0 -2786.59413176 0 9204
0.09350000 0.09350330 20084.31143504 0 271.23763385 0 7313.15981947 0 1316.93124160 0 -1700.32156078 0 9349
0.09450000 0.09448040 20108.89199614 0 -175.30479716 0 6794.46569101 0 863.74984464 0 -1903.43228725 0 9564
0.09550000 0.09549270 20093.61218789 0 -14.52212906 0 6761.41480143 0 1452.21290624 0 -1486.34888366 0 10155
0.09650000 0.09649430 20083.31492581 0 173.82774903 0 6442.43219573 0 503.00353695 0 -1129.76466287 0 9913
0.09750000 0.09749140 19487.40240407 0 1036.93318436 0 6901.73437386 0 -87.04441722 0 -859.39842098 0 10476
0.09850000 0.09850240 18642.36257391 0 1210.47083847 0 7012.34689879 0 -806.27451374 0 658.73246383 0 10575
0.09950000 0.09950330 17849.80556339 0 628.98887767 0 7285.04718675 0 643.60102473 0 2175.99970731 0 10882
0.10050000 0.10051200 17595.91715530 0 7.10329497 0 7213.09922008 0 1300.27846508 0 1769.41286764 0 10875
0.10150000 0.10150300 17631.90221096 0 -88.78100065 0 6619.19078913 0 1417.41258933 0 1334.85733549 0 11118
0.10250000 0.10250800 17843.16216850 0 -162.97133454 0 6756.76442501 0 885.59997043 0 1527.90331870 0 11575
0.10350000 0.10349800 17655.37553957 0 -28.33053607 0 6016.75666808 0 874.98603986 0 2056.05321255 0 11364
0.10450000 0.10450100 17288.54941833 0 147.74356622 0 5651.28137046 0 -259.45557301 0 1665.72054572 0 12093
0.10550000 0.10551000 17075.62861207 0 686.38670230 0 5685.22911836 0 126.34297681 0 2071.10050198 0 12067
0.10650000 0.10649700 16846.54221157 0 113.93311515 0 5836.52136468 0 19.04528447 0 1240.32182618 0 12054
0.10750000 0.10749900 16647.90470432 0 367.72519402 0 6085.73725170 0 -151.07301429 0 860.70274085 0 12807
0.10850000 0.10850100 16132.70943051 0 266.25508768 0 6024.52944010 0 -483.25050948 0 764.30929544 0 12736
0.10950000 0.10950300 15911.04148764 0 715.46373450 0 6340.53359042 0 -205.21778989 0 680.26813560 0 12933
0.11050000 0.11050200 15576.76800137 0 392.89480279 0 6102.73327029 0 -199.30627567 0 658.36043372 0 13428
0.11150000 0.11150900 15237.95486192 0 153.19668619 0 6614.70649758 0 268.56034571 0 373.60902743 0 13453
0.11250000 0.11250000 15198.09449257 0 134.28515540 0 6662.84896589 0 214.52518613 0 452.90348161 0 13668
0.11350000 0.11349100 15023.70537668 0 203.36760441 0 5673.92427472 0 828.34276433 0 353.33670792 0 13791
0.11450000 0.11448600 14853.63446746 0 125.56348514 0 5845.45673081 0 934.31155624 0 663.20900475 0 14205
0.11550000 0.11549300 14938.55919882 0 91.65238664 0 5099.58064172 0 798.25372164 0 854.41808928 0 14776
0.11650000 0.11649800 14807.01997998 0 -71.01678415 0 5003.77181507 0 541.29938680 0 623.28441592 0 14553
0.11750000 0.11747300 14748.11521194 0 120.93968230 0 4687.77873707 0 60.67335048 0 992.35268294 0 14568
0.11850000 0.11849100 14760.73766223 0 58.85981440 0 4978.77050563 0 -230.43390243 0 701.53474988 0 16015
0.11950000 0.11950300 14617.12960934 0 282.68531048 0 5114.77187138 0 -146.78802459 0 1440.43195263 0 15270
0.12050000 0.12050700 14192.28450604 0 538.82361497 0 4874.81244791 0 147.80778570 0 771.65910466 0 15999
0.12150000 0.12150000 14182.87302995 0 362.98291730 0 5141.01328120 0 138.61332717 0 1302.39327912 0 15670
0.12250000 0.12250700 13651.06926891 0 15.27006460 0 4506.07081447 0 411.09438310 0 926.54985654 0 16887
0.12350000 0.12352200 13939.72477693 0 10.21146264 0 5077.57993231 0 285.40799515 0 666.46316102 0 16407
0.12450000 0.12449800 13724.58950570 0 -52.36689240 0 4302.45076106 0 -248.06215077 0 424.18851443 0 16306
0.12550000 0.12549900 13790.02694538 0 209.71758269 0 4752.87293468 0 282.12062191 0 1148.26651764 0 17523
0.12650000 0.12650100 13714.07079713 0 90.18917892 0 4362.29667670 0 488.13119026 0 908.59497462 0 17154
0.12750000 0.12750600 13337.05813705 0 13.75979950 0 3951.55771523 0 1207.73597424 0 1034.27029024 0 18007
0.12850000 0.12850300 13548.42881784 0 165.33970482 0 3909.03998792 0 440.32089169 0 605.43361385 0 17496
0.12950000 0.12949900 13142.29594349 0 244.93532624 0 3659.59158208 0 219.43686942 0 339.86611754 0 18405
0.13050000 0.13049000 13040.76272491 0 296.18690336 0 3698.32257430 0 -402.24538110 0 614.36897998 0 18100
0.13150000 0.13148800 12759.74712101 0 282.38414324 0 3763.81537560 0 -234.63031353 0 557.04866163 0 19059
0.13250000 0.13249300 12614.92111238 0 108.44179566 0 3693.16287093 0 -453.92877889 0 33.02099431 0 18957
0.13350000 0.13349100 12617.91064008 0 84.95119422 0 3942.19052843 0 -230.76717941 0 -474.18338268 0 19468
0.13450000 0.13450700 12461.56941364 0 216.14285278 0 3848.38579257 0 -209.47731324 0 -921.40011827 0 19953
0.13550000 0.13551000 12243.99823096 0 406.20041553 0 4027.84603323 0 -242.10966895 0 -923.67990995 0 19956
0.13650000 0.13649900 12065.40163163 0 362.92534121 0 3964.96630058 0 -109.40464502 0 -676.39946531 0 19723
0.13750000 0.13749600 11753.82641123 0 331.47550979 0 4119.83490782 0 534.51869509 0 -209.68215125 0 20946
0.13850000 0.13851100 11555.63179698 0 121.25967248 0 3806.45489848 0 828.97831578 0 78.60453763 0 20955
0.13950000 0.13949800 11451.99483668 0 -45.18959001 0 3668.10619987 0 1116.47787309 0 306.07781112 0 20506
0.14050000 0.14048300 11428.07861507 0 124.50054196 0 3349.59970414 0 651.13574177 0 -13.82512622 0 21447
0.14150000 0.14148400 11439.37238638 0 17.23695238 0 3281.11737513 0 71.22693688 0 668.55140148 0 21771
0.14250000 0.14249400 11331.52794265 0 15.54964081 0 3339.51281623 0 -344.64271847 0 725.95586950 0 22470
0.14350000 0.14350900 11244.38874633 0 84.91233036 0 3229.65320938 0 -145.05963468 0 557.74732532 0 22519
0.14450000 0.14449900 11168.54332132 0 338.15322889 0 3374.81138775 0 -275.16830916 0 431.12311146 0 22218
0.14550000 0.14550500 11045.09797192 0 137.37876295 0 3348.04957866 0 -86.25163877 0 86.37432012 0 23559
0.14650000 0.14650700 10737.26519731 0 211.57108987 0 3296.03179666 0 286.88725775 0 34.22200938 0 23044
0.14750000 0.14750500 10755.51238861 0 187.88406538 0 3103.52835737 0 242.54259685 0 -419.02991830 0 23649
0.14850000 0.14849900 10468.68381418 0 178.12934722 0 3127.33385573 0 212.20221238 0 -75.29889505 0 23640
0.14950000 0.14949500 10269.81378812 0 481.33942621 0 3297.20546310 0 1.75543959 0 34.24171812 0 24457
0.15050000 0.15050000 9827.29725441 0 405.49843014 0 3121.38801730 0 -0.03916525 0 885.23347648 0 24591
0.15150000 0.15149900 9680.56680592 0 118.79940191 0 3423.14208558 0 255.36102729 0 663.67072070 0 25020
0.15250000 0.15250500 9575.52366036 0 0.31197604 0 3227.26158722 0 -93.78668797 0 697.40366549 0 25297
0.15350000 0.15350100 9756.88834089 0 23.99118125 0 3570.78046471 0 4.42138967 0 200.21863523 0 25452
0.15450000 0.15450400 9548.33003061 0 102.81317934 0 3572.62954296 0 -136.86057815 0 437.36790266 0 26061
0.15550000 0.15549900 9654.91222931 0 8.68876331 0 3403.04581604 0 33.32072214 0 453.42609535 0 26128
0.15650000 0.15649500 9617.28846958 0 -26.26709761 0 3240.21620725 0 31.02709005 0 -29.14047663 0 26331
0.15750000 0.15749700 9578.88964711 0 167.89851908 0 3134.73016871 0 161.87517438 0 155.77985957 0 27345
0.15850000 0.15849900 9478.37508240 0 168.94706825 0 3172.34285612 0 347.34768742 0 215.47519160 0 26980
0.15950000 0.15949700 9261.99971080 0 151.96655090 0 2962.44479453 0 236.45946159 0 193.49773407 0 27777
0.16050000 0.16050000 9257.09467090 0 110.02314509 0 3014.68402302 0 152.14481533 0 -40.09432757 0 28224
0.16150000 0.16150500 9050.05326912 0 123.42541922 0 2862.87137743 0 138.70744193 0 -68.41844169 0 28075
0.16250000 0.16249700 9050.99441673 0 153.26644184 0 2752.26992482 0 134.70368928 0 419.92677661 0 28590
0.16350000 0.16349900 8952.80504024 0 -93.04384570 0 2674.32075810 0 197.92112783 0 292.39906104 0 29163
0.16450000 0.16449100 9068.01257997 0 2.37530155 0 2577.40469896 0 337.00281434 0 216.86809006 0 28996
0.16550000 0.16550500 8941.65520914 0 135.82420855 0 2410.31224512 0 186.49559585 0 242.32225759 0 30777
0.16650000 0.16650700 8857.35052798 0 91.62370932 0 2312.00107306 0 211.02522425 0 395.41375669 0 29211
0.16750000 0.16749900 8777.75158485 0 60.47582020 0 2290.34360571 0 296.66854949 0 262.25244226 0 30922
0.16850000 0.16850800 8657.76080079 0 150.38099399 0 2355.84747934 0 -82.51284684 0 138.46274355 0 30867
0.16950000 0.16949900 8556.40473940 0 239.20761261 0 2311.49174612 0 -185.79803939 0 463.29707292 0 30852
0.17050000 0.17049200 8460.60698507 0 206.97828953 0 2353.74373762 0 -82.36436697 0 430.76658260 0 31257
0.17150000 0.17149500 8292.01976738 0 67.77956855 0 2425.32631758 0 8.77502779 0 349.06832670 0 32608
0.17250000 0.17250900 8244.86273598 0 -8.29286126 0 2469.37202570 0 146.06610901 0 -20.50583484 0 32361
0.17350000 0.17350400 8419.80546812 0 -33.40808278 0 2396.05109076 0 71.34640726 0 31.47419053 0 32508
0.17450000 0.17449800 8219.09743613 0 119.04520752 0 2306.91887596 0 46.03839443 0 72.16121965 0 32791
0.17550000 0.17549800 8250.83071906 0 128.13115727 0 2178.03701508 0 70.90683597 0 -95.03664272 0 33633
0.17650000 0.17650100 8113.65568688 0 46.28995765 0 2140.71220811 0 49.29255069 0 -123.84506033 0 33984
0.17750000 0.17750300 7991.46151018 0 221.55279069 0 2287.73053705 0 79.26943073 0 242.38204814 0 34069
0.17850000 0.17849800 8038.79569878 0 220.48652581 0 2203.34834961 0 32.48088630 0 257.94309344 0 34536
