### header ###
fiducial parameters:
Omega_m = 0.31
Omega_nu = 0
Omega_de = 0.69
Omega_k = 0
H_0 = 100
w_de = -1
zeff = 0
beta = 0
fgrowth = 0
b_1 = 2
gamma = 0.55
Lx = 3500 Ly = 3500 Lz = 3500
nx = 700 ny = 700 nz = 700
xoffset = -685.467585 yoffset = -31.7331281 zoffset = 572.489161
bins = 400 dk = 0.001
kx_ny = 0.628318531 ky_ny = 0.628318531 kz_ny = 0.628318531
############################
A(data) = 7.97959424 (not used)
A(ran) = 7.97443724 (used)
Ngal = 474432
weighted Ngal = 0
Nran = 23820508
weighted Nran = 0
SN(data) = 3492.5738
SN(ran) = 69.4602404
SN(data+ran) = 3562.03404
############################
13 columns: k_central k_mean P_0(k) sigma^{lin}_{P_0(k)} P^img_1(k) sigma^{lin}_{P_1(k)} P_2(k) sigma^{lin}_{P_2(k)} P^img_3(k) sigma^{lin}_{P_3(k)} P_4(k) sigma^{lin}_{P_4(k)} N_modes
### header ###
0.00050000 0 0 0 0 0 0 0 0 0 0 0 0
0.00150000 0.00179520 35770.25255912 0 -34520.74070333 0 15541.33656195 0 -34764.11040285 0 -16274.98880443 0 3
0.00250000 0.00253879 56314.84053687 0 -23758.55170286 0 4491.32247781 0 -44535.32633206 0 27826.85601097 0 6
0.00350000 0.00331552 68240.28798279 0 -2239.15624807 0 24347.26721347 0 -29695.42154737 0 36796.76779306 0 7
0.00450000 0.00420575 66617.30661087 0 15657.81741904 0 36407.13268269 0 -45423.76967550 0 56621.32248785 0 24
0.00550000 0.00557378 62144.41955389 0 9970.66171617 0 78529.02437402 0 -4834.94100623 0 34596.14323535 0 45
0.00650000 0.00659388 50232.03745125 0 2850.10498692 0 74655.48225947 0 21074.06655058 0 24764.47241263 0 40
0.00750000 0.00754703 65312.87602399 0 2227.71853654 0 90622.10681770 0 28040.44115673 0 -22179.19529073 0 57
0.00850000 0.00846663 65689.33506782 0 -348.93878050 0 64219.81611789 0 41291.46732994 0 11637.89917038 0 75
0.00950000 0.00948925 71269.45460668 0 1151.08996047 0 65949.09180807 0 28318.24578643 0 -7536.62147896 0 112
0.01050000 0.01054430 71584.79441751 0 3484.65992227 0 66048.18911520 0 30173.52453304 0 13279.70349449 0 105
0.01150000 0.01145670 70880.48383580 0 7582.92594135 0 57630.78634156 0 25260.95545750 0 19214.13742754 0 144
0.01250000 0.01249090 66386.55936165 0 5837.86111598 0 45640.67651870 0 35849.41968157 0 4973.14576462 0 169
0.01350000 0.01339930 64487.76637850 0 7715.92670707 0 44987.29863115 0 23894.96274462 0 16235.57132808 0 180
0.01450000 0.01448870 61680.26769749 0 -2546.15859832 0 38601.77818499 0 16230.03516567 0 -10575.24386824 0 267
0.01550000 0.01550050 66210.39867379 0 -3245.81880361 0 32910.93539795 0 13567.25177003 0 5309.02473799 0 238
0.01650000 0.01653350 73288.93593035 0 -10983.34761640 0 22685.42198144 0 1945.97215920 0 -15797.99305124 0 315
0.01750000 0.01747870 77917.61059754 0 -7570.65780545 0 25294.06170871 0 3527.65375955 0 -2889.87677767 0 297
0.01850000 0.01844180 84492.46779810 0 -444.33239497 0 19712.83493737 0 4738.72250356 0 -14784.32171410 0 388
0.01950000 0.01947590 80989.84856497 0 4205.87794399 0 11810.95960730 0 2977.66924115 0 365.46090359 0 399
0.02050000 0.02045430 76781.25790140 0 649.98975615 0 9206.31698928 0 14195.16331050 0 -530.94122694 0 462
0.02150000 0.02154770 76042.40166625 0 -1046.30369285 0 11703.89022630 0 1762.21585651 0 -6973.92593167 0 571
0.02250000 0.02255340 81900.76872780 0 2954.62773321 0 21031.54882327 0 -3126.06053837 0 -314.77290780 0 510
0.02350000 0.02348930 83192.79831088 0 -891.20588849 0 28597.37909510 0 -15950.79113374 0 -9652.05556951 0 555
0.02450000 0.02439640 73973.75922038 0 9740.76703596 0 31124.08361872 0 -13505.13602780 0 23510.75307342 0 592
0.02550000 0.02547300 75786.96313268 0 6910.89118648 0 40418.19307149 0 -552.17240978 0 19525.93409443 0 837
0.02650000 0.02652900 64821.81841828 0 1496.41362692 0 36254.55604669 0 25701.08036904 0 28039.55537074 0 723
0.02750000 0.02749970 71466.32054195 0 1064.69039545 0 37969.10554485 0 24407.61138373 0 10310.03954418 0 826
0.02850000 0.02848090 67942.55316842 0 2677.79746809 0 34105.30707614 0 9003.91489160 0 26092.92994437 0 831
0.02950000 0.02946900 64627.27767122 0 6939.46885684 0 33200.36596871 0 1359.88078958 0 24845.52183031 0 996
0.03050000 0.03053250 62020.40951592 0 3614.59365402 0 33977.31100124 0 416.20979717 0 27534.54663576 0 1041
0.03150000 0.03150510 58435.74435588 0 1568.40588289 0 33591.10831156 0 1333.13005281 0 28206.19385926 0 1036
0.03250000 0.03246190 55360.29541425 0 4013.17520284 0 34318.00643591 0 5290.13535185 0 12923.28535858 0 1059
0.03350000 0.03345080 54659.63869973 0 1644.16272930 0 29670.17664678 0 7804.82640304 0 20219.06162808 0 1302
0.03450000 0.03451200 52092.74163702 0 -677.83997477 0 22754.40256506 0 6801.95058259 0 2480.35577192 0 1339
0.03550000 0.03553350 51491.18222963 0 2638.35784709 0 18178.54288725 0 7702.20809662 0 -933.81883779 0 1365
0.03650000 0.03647120 46290.62198556 0 1575.45895380 0 16409.51755098 0 -3605.60292627 0 -5653.66192030 0 1308
0.03750000 0.03744890 45632.81516808 0 4145.61128000 0 14551.91361615 0 -2535.86133624 0 -4052.78090872 0 1579
0.03850000 0.03847530 43132.79494728 0 4408.72293466 0 17571.22587095 0 -6749.97708989 0 -2705.78830523 0 1662
0.03950000 0.03950240 40993.62179232 0 896.03563658 0 21568.55657698 0 -295.07967088 0 -3285.83418551 0 1683
0.04050000 0.04050350 41071.34951254 0 -234.06451774 0 23230.29108576 0 1152.20826528 0 -3933.25516230 0 1822
0.04150000 0.04152450 41599.16723665 0 -1490.98818775 0 23131.96884137 0 2956.11142473 0 -4232.15257078 0 1887
0.04250000 0.04250150 42230.17902806 0 -1147.86791395 0 21467.57697463 0 1963.47750474 0 -1842.21340333 0 1920
0.04350000 0.04349210 42890.97537324 0 -569.41755568 0 20775.11378047 0 1596.47422630 0 -89.40448326 0 2005
0.04450000 0.04448520 42370.57610676 0 840.19790252 0 20172.11497085 0 4756.49358489 0 -1562.83650350 0 2151
0.04550000 0.04548030 41802.89801331 0 900.73140953 0 18173.22817134 0 2984.40121464 0 -2576.08709231 0 2274
0.04650000 0.04648670 41901.33098095 0 231.64521476 0 16959.59064797 0 1292.52783770 0 -4819.28473894 0 2311
0.04750000 0.04749250 40380.54716711 0 1301.48534848 0 16364.45318897 0 1102.95635002 0 -1387.21835955 0 2568
0.04850000 0.04851840 40638.08944239 0 541.58283832 0 16330.12898203 0 -98.42687786 0 -1587.10703950 0 2493
0.04950000 0.04949480 39967.66017462 0 180.47446561 0 14670.27676847 0 1490.21312502 0 -3885.01304307 0 2644
0.05050000 0.05050630 38751.69746304 0 1136.39698544 0 15681.51219415 0 -958.55108973 0 -5420.17980685 0 2829
0.05150000 0.05149060 38251.89272072 0 2184.50325277 0 13882.14868787 0 -589.83713711 0 -6287.89575824 0 2784
0.05250000 0.05249300 36360.96108819 0 2112.66600935 0 15316.45764488 0 390.67369444 0 -1611.05647809 0 3055
0.05350000 0.05348950 35401.21197291 0 444.03565667 0 12971.44997154 0 4079.13304179 0 -2804.58665959 0 3009
0.05450000 0.05448610 34678.96422499 0 282.32988885 0 11851.92720913 0 1982.97586875 0 -4253.46679606 0 3336
0.05550000 0.05550870 34614.08040156 0 1153.89125865 0 10884.61569600 0 2454.84513554 0 -2768.67911020 0 3349
0.05650000 0.05647670 33146.33302360 0 596.19929495 0 10145.77053317 0 2126.29604120 0 334.59901262 0 3324
0.05750000 0.05747970 33772.69443859 0 -959.67935963 0 8626.26003669 0 2059.46348859 0 1203.20739339 0 3639
0.05850000 0.05849280 33150.65123028 0 -780.25012148 0 7075.24877609 0 4013.52951724 0 -1136.25304521 0 3846
0.05950000 0.05951020 34309.92363879 0 1059.71006374 0 5436.04644831 0 1796.67293135 0 -1230.86606079 0 3787
0.06050000 0.06049470 32679.52380924 0 638.56533141 0 4511.93914662 0 40.48839161 0 -954.53405029 0 3930
0.06150000 0.06148310 32093.46565659 0 858.62114378 0 5771.89220471 0 -2376.49736513 0 -1707.06460659 0 4083
0.06250000 0.06249100 31715.23504079 0 1756.86792362 0 7471.00688208 0 -1593.63971115 0 -368.81913971 0 4303
0.06350000 0.06350600 30367.17949412 0 1128.96745548 0 8882.97188761 0 -1774.41755846 0 -366.12635031 0 4470
0.06450000 0.06451750 30607.55966593 0 -224.92099190 0 9252.65466865 0 499.27659242 0 1767.43092150 0 4479
0.06550000 0.06550280 30415.23338383 0 220.02923880 0 11422.54245266 0 -722.98959368 0 1073.53718298 0 4636
0.06650000 0.06648880 30653.39909068 0 642.29006147 0 10985.52886439 0 1093.35664440 0 2347.78682687 0 4653
0.06750000 0.06749660 30144.73648851 0 300.91257160 0 12274.00423121 0 1278.55456378 0 3186.28291306 0 5220
0.06850000 0.06852730 29259.83628900 0 813.45491638 0 10935.29372669 0 574.94264577 0 3823.79415915 0 5029
0.06950000 0.06949320 29253.30361736 0 512.62649445 0 11149.72036913 0 2182.31093246 0 2935.80478101 0 5040
0.07050000 0.07048030 28676.43549431 0 387.51476017 0 10911.79825343 0 748.42383102 0 2494.46191374 0 5475
0.07150000 0.07148790 27922.07800441 0 851.13957390 0 10168.97812599 0 -122.85408726 0 2031.05190311 0 5509
0.07250000 0.07249820 27068.62320739 0 92.98826263 0 9813.72258419 0 545.96415725 0 1156.89185868 0 5916
0.07350000 0.07351270 27466.34111488 0 -405.49067951 0 9632.47969923 0 500.75917671 0 699.84622035 0 5721
0.07450000 0.07449140 27781.90237221 0 -228.62911348 0 10513.74817620 0 673.66238662 0 -904.64215466 0 6028
0.07550000 0.07549160 27203.48412368 0 1148.38831322 0 9543.89002836 0 967.24840088 0 -261.46852166 0 6183
0.07650000 0.07648840 26920.36477807 0 899.19124915 0 9001.03608715 0 142.05349849 0 1601.15781970 0 6330
0.07750000 0.07749960 26402.95503930 0 82.52104036 0 8524.23963581 0 1603.23941677 0 1997.29238474 0 6583
0.07850000 0.07848650 26268.31556950 0 -56.00193664 0 8073.79531753 0 753.97106576 0 851.71754926 0 6549
0.07950000 0.07947320 26066.35636481 0 1118.82520595 0 8199.37762563 0 766.59019435 0 891.54027270 0 6828
0.08050000 0.08048110 25417.85030018 0 550.96331191 0 8037.36736888 0 -362.25878725 0 1899.77842006 0 7147
0.08150000 0.08149960 24375.83381150 0 719.37890856 0 7699.05248405 0 -369.09151890 0 1149.40696710 0 7386
0.08250000 0.08250610 24174.20677655 0 504.47394169 0 7315.16391026 0 378.95585308 0 -245.72921193 0 7227
0.08350000 0.08350160 23510.19945718 0 644.37608747 0 7280.64040148 0 -385.61364199 0 -185.37064765 0 7798
0.08450000 0.08449610 23066.53140169 0 494.04049001 0 7380.96673666 0 -109.45956375 0 -1104.85636096 0 7371
0.08550000 0.08548940 22088.84512021 0 431.87602955 0 7201.34041112 0 519.12152019 0 25.31487768 0 8256
0.08650000 0.08650700 21995.17325224 0 387.34313913 0 6307.70414734 0 142.65029680 0 -1489.46020693 0 8037
0.08750000 0.08749060 21612.29226001 0 72.24869101 0 6214.56375096 0 1290.88913363 0 -1180.91880353 0 8155
0.08850000 0.08849210 20921.37919133 0 641.47735283 0 5707.62843146 0 176.45078277 0 -1964.64009885 0 8718
0.08950000 0.08949900 21263.07113523 0 545.18577282 0 5919.74095802 0 -822.52868657 0 -2339.07290724 0 8571
0.09050000 0.09049190 20337.20333390 0 -212.90973394 0 6732.36102111 0 -510.52164551 0 -248.39874945 0 8932
0.09150000 0.09150830 20931.56573016 0 194.65479201 0 6979.05241807 0 262.81491636 0 -292.58839780 0 9285
0.09250000 0.09250820 21115.03415241 0 245.97501754 0 7489.56409848 0 847.66729284 0 -186.33061821 0 9204
0.09350000 0.09350330 20240.98483122 0 458.86925023 0 7434.62322273 0 954.77653420 0 831.03223203 0 9349
0.09450000 0.09448040 19969.04853368 0 895.75993569 0 7004.39696957 0 627.64026851 0 2049.46517928 0 9564
0.09550000 0.09549270 19647.61894419 0 308.91121905 0 7380.53491599 0 467.09820203 0 1094.27232566 0 10155
0.09650000 0.09649430 19100.64609815 0 782.12798777 0 7526.21349363 0 39.77145858 0 2434.31704533 0 9913
0.09750000 0.09749140 18450.70063130 0 490.02566503 0 7290.88230193 0 -296.98078905 0 753.84594849 0 10476
0.09850000 0.09850240 18185.29700539 0 193.82658211 0 7155.62278195 0 184.08515074 0 990.63647259 0 10575
0.09950000 0.09950330 17717.82345155 0 250.52685028 0 6241.62451282 0 385.27925778 0 191.29434143 0 10882
0.10050000 0.10051200 17619.61193041 0 180.18769240 0 6093.32179420 0 424.65687377 0 -744.58173431 0 10875
0.10150000 0.10150300 17336.27113830 0 331.54194374 0 5559.52501469 0 289.20137364 0 -841.45571862 0 11118
0.10250000 0.10250800 16898.47141497 0 771.84511971 0 6144.04411419 0 49.88613802 0 -932.11259253 0 11575
0.10350000 0.10349800 16437.41980952 0 551.59221996 0 5369.19175106 0 192.81900055 0 -104.62560819 0 11364
0.10450000 0.10450100 15929.31082359 0 326.37338252 0 5898.11670764 0 401.23226338 0 -471.80615454 0 12093
0.10550000 0.10551000 15817.70178942 0 143.02343415 0 5876.53674657 0 81.36066072 0 52.77667914 0 12067
0.10650000 0.10649700 15850.36514764 0 -37.12085474 0 6305.72220119 0 296.51575141 0 -188.71448974 0 12054
0.10750000 0.10749900 15739.19900646 0 103.14767427 0 5591.31365924 0 787.54124738 0 1187.69506632 0 12807
0.10850000 0.10850100 15666.89672539 0 -165.25223345 0 5055.39099337 0 1306.20215886 0 1015.10631044 0 12736
0.10950000 0.10950300 15943.92629235 0 -325.55070878 0 4740.87053457 0 996.99973767 0 402.99940642 0 12933
0.11050000 0.11050200 15971.16421141 0 164.43841758 0 4889.58292921 0 129.86176164 0 -109.48237274 0 13428
0.11150000 0.11150900 15675.86530849 0 539.28865262 0 4462.63408421 0 -844.39542085 0 183.02995818 0 13453
0.11250000 0.11250000 15185.91493527 0 535.06898963 0 4490.53634275 0 -392.93134147 0 1327.35029926 0 13668
0.11350000 0.11349100 15077.62759854 0 395.09376650 0 4456.65502880 0 39.42511626 0 260.12877036 0 13791
0.11450000 0.11448600 14722.53814161 0 131.98100461 0 5027.17870973 0 -103.24621796 0 45.10898348 0 14205
0.11550000 0.11549300 14620.34058353 0 230.52137379 0 4925.95551624 0 630.04628469 0 -418.12863106 0 14776
0.11650000 0.11649800 14282.96684631 0 217.47596069 0 4704.06612688 0 86.90612389 0 248.56261985 0 14553
0.11750000 0.11747300 14166.92888221 0 310.47795301 0 4570.19064749 0 572.66063962 0 -94.34229723 0 14568
0.11850000 0.11849100 14182.43013696 0 72.09124255 0 4510.79869717 0 101.29992470 0 420.95207389 0 16015
0.11950000 0.11950300 14197.04560572 0 -147.99490799 0 4418.48872515 0 277.95299885 0 391.23506130 0 15270
0.12050000 0.12050700 14006.60161884 0 33.15430510 0 4681.20177613 0 -262.13064669 0 442.89520721 0 15999
0.12150000 0.12150000 14257.27905273 0 219.57527348 0 4634.22190192 0 314.62675312 0 385.04452450 0 15670
0.12250000 0.12250700 13538.13155576 0 358.82193763 0 4640.97602006 0 370.21978880 0 596.34323517 0 16887
0.12350000 0.12352200 13710.97054618 0 166.58644859 0 4171.69767727 0 278.98715399 0 369.79682599 0 16407
0.12450000 0.12449800 13215.15184080 0 252.82435768 0 4563.97907327 0 462.29945646 0 308.64880495 0 16306
0.12550000 0.12549900 13244.93639456 0 276.37851426 0 3511.67639483 0 525.96643140 0 1008.64007275 0 17523
0.12650000 0.12650100 12850.42946127 0 107.14766233 0 3511.98641993 0 720.01556724 0 1472.50847763 0 17154
0.12750000 0.12750600 12879.54967555 0 -44.80770552 0 2535.32986465 0 857.45522798 0 887.95173223 0 18007
0.12850000 0.12850300 12805.69726901 0 -114.83993855 0 2720.12696587 0 738.62039463 0 870.90920987 0 17496
0.12950000 0.12949900 12891.17561661 0 276.67635980 0 2363.76419158 0 -352.23611883 0 550.66878807 0 18405
0.13050000 0.13049000 12505.96943616 0 428.44139439 0 2628.39275475 0 -565.31083041 0 1340.06132815 0 18100
0.13150000 0.13148800 12271.56831975 0 353.22266297 0 3112.39728955 0 -613.12112897 0 660.16632989 0 19059
0.13250000 0.13249300 12217.42465139 0 87.70576718 0 3719.35999146 0 -450.50410883 0 1378.48229527 0 18957
0.13350000 0.13349100 12240.34436377 0 16.18962118 0 4237.50050367 0 164.64768452 0 1202.41018601 0 19468
0.13450000 0.13450700 12119.32385350 0 64.22136624 0 3996.74387281 0 450.70673237 0 1359.34931799 0 19953
0.13550000 0.13551000 12009.37566805 0 96.91550552 0 4027.01560887 0 385.91259476 0 1514.64974589 0 19956
0.13650000 0.13649900 12163.17025978 0 146.70498215 0 4039.90379496 0 594.11548342 0 1394.40429836 0 19723
0.13750000 0.13749600 11761.13414561 0 294.43193988 0 3740.34204699 0 229.76513401 0 1425.28501228 0 20946
0.13850000 0.13851100 11692.37500849 0 303.10932084 0 3534.87291533 0 -198.29205071 0 992.24085246 0 20955
0.13950000 0.13949800 11448.45169274 0 -28.67732128 0 3274.55148652 0 -433.74614521 0 875.52858378 0 20506
0.14050000 0.14048300 11401.06214251 0 60.32390791 0 3293.29693243 0 42.15975904 0 159.61199119 0 21447
0.14150000 0.14148400 11503.92404008 0 59.12388934 0 2873.52295391 0 81.51888424 0 -179.58314347 0 21771
0.14250000 0.14249400 11603.79640994 0 44.16838949 0 2857.14698550 0 157.71198025 0 -460.30533076 0 22470
0.14350000 0.14350900 11304.95436309 0 130.91473973 0 2430.62996116 0 187.47992553 0 -162.24720450 0 22519
0.14450000 0.14449900 11186.70193402 0 144.61452722 0 2541.60787282 0 543.91688439 0 -198.50796105 0 22218
0.14550000 0.14550500 11096.13031701 0 15.66756106 0 2379.40938655 0 242.59352954 0 84.95263362 0 23559
0.14650000 0.14650700 11151.93483409 0 194.57064234 0 2701.72476202 0 523.22824547 0 126.70725629 0 23044
0.14750000 0.14750500 10836.68360186 0 292.67476193 0 2482.44844131 0 -69.75166032 0 519.57327104 0 23649
0.14850000 0.14849900 10617.28548557 0 303.94860306 0 2631.42657175 0 -90.12484871 0 644.09706489 0 23640
0.14950000 0.14949500 10451.01238377 0 267.99122821 0 2607.08960180 0 60.09659308 0 563.23034057 0 24457
0.15050000 0.15050000 10251.23442707 0 99.51761258 0 2563.89646268 0 27.01835485 0 683.66401762 0 24591
0.15150000 0.15149900 10271.23104569 0 77.15384163 0 2410.83264439 0 47.64266357 0 -72.32365065 0 25020
0.15250000 0.15250500 10156.04565060 0 68.69192811 0 2665.05322222 0 -28.05428156 0 -97.55083552 0 25297
0.15350000 0.15350100 10127.84443929 0 115.98370971 0 2725.56347736 0 -227.48866403 0 -85.42066079 0 25452
0.15450000 0.15450400 9859.34056244 0 274.98561580 0 2536.75819455 0 -10.68511455 0 -96.64412284 0 26061
0.15550000 0.15549900 9844.20469441 0 164.42180909 0 2695.76785127 0 31.68866146 0 -66.18260714 0 26128
0.15650000 0.15649500 9621.81705043 0 115.65153996 0 2620.91893550 0 264.09709157 0 -189.08873432 0 26331
0.15750000 0.15749700 9626.00238921 0 79.51036452 0 2428.10547111 0 385.52063447 0 -107.17368230 0 27345
0.15850000 0.15849900 9366.21243199 0 105.89693252 0 2193.99223514 0 247.00585098 0 -87.97947505 0 26980
0.15950000 0.15949700 9380.59538193 0 160.24864987 0 2130.39280138 0 134.31505068 0 4.14748250 0 27777
0.16050000 0.16050000 9206.19519371 0 133.73375362 0 1875.58539033 0 53.72923125 0 18.91872780 0 28224
0.16150000 0.16150500 9081.36580371 0 239.43348804 0 1893.16824214 0 135.86960508 0 365.40775643 0 28075
0.16250000 0.16249700 8857.40588960 0 275.15280791 0 1949.68138802 0 -113.96633213 0 425.26806610 0 28590
0.16350000 0.16349900 8745.40932406 0 181.84189773 0 1915.29074713 0 172.17686539 0 338.52083008 0 29163
0.16450000 0.16449100 8557.58947816 0 -6.21760864 0 1987.93627026 0 144.50823291 0 681.06755745 0 28996
0.16550000 0.16550500 8634.25425520 0 -95.07451007 0 1978.45836022 0 333.87377535 0 476.44102971 0 30777
0.16650000 0.16650700 8759.42688728 0 -31.53630627 0 1954.76358511 0 101.06076249 0 386.80945307 0 29211
0.16750000 0.16749900 8665.60000677 0 175.26936572 0 1962.95710547 0 101.62832986 0 430.63150024 0 30922
0.16850000 0.16850800 8515.30426968 0 191.57779294 0 1829.64631466 0 -222.69877631 0 647.90705186 0 30867
0.16950000 0.16949900 8385.56983978 0 183.04324497 0 2015.37349117 0 -284.19225389 0 259.00271493 0 30852
0.17050000 0.17049200 8289.46206035 0 114.27857169 0 2265.39765790 0 8.48130116 0 456.59720917 0 31257
0.17150000 0.17149500 8147.18268643 0 76.67562792 0 2113.08675769 0 -82.93237723 0 -39.61434229 0 32608
0.17250000 0.17250900 8269.54294800 0 -108.82999137 0 2160.89705626 0 15.09822212 0 33.72253681 0 32361
0.17350000 0.17350400 8371.76265073 0 -37.60903354 0 2258.79855230 0 -33.98683320 0 -59.26937969 0 32508
0.17450000 0.17449800 8385.28195933 0 88.85784258 0 1974.51661258 0 -16.84654221 0 -418.30578825 0 32791
0.17550000 0.17549800 8237.11210861 0 186.08702706 0 2239.56592409 0 -56.09405838 0 17.44367269 0 33633
0.17650000 0.17650100 8104.42136798 0 247.56721785 0 2066.43905323 0 -6.74408661 0 -495.22965770 0 33984
0.17750000 0.17750300 7953.92632905 0 170.57359276 0 2108.25922407 0 117.41868300 0 -435.09143268 0 34069
0.17850000 0.17849800 7831.55499515 0 55.86198245 0 2120.83738506 0 -100.42963997 0 -416.06253525 0 34536
