### header ###
fiducial parameters:
Omega_m = 0.31
Omega_nu = 0
Omega_de = 0.69
Omega_k = 0
H_0 = 100
w_de = -1
zeff = 0
beta = 0
fgrowth = 0
b_1 = 2
gamma = 0.55
Lx = 3500 Ly = 3500 Lz = 3500
nx = 700 ny = 700 nz = 700
xoffset = -685.467585 yoffset = -31.7331281 zoffset = 572.489161
bins = 400 dk = 0.001
kx_ny = 0.628318531 ky_ny = 0.628318531 kz_ny = 0.628318531
############################
A(data) = 8.08760489 (not used)
A(ran) = 8.08762668 (used)
Ngal = 480151
weighted Ngal = 0
Nran = 23820508
weighted Nran = 0
SN(data) = 3481.98978
SN(ran) = 70.4461615
SN(data+ran) = 3552.43594
############################
13 columns: k_central k_mean P_0(k) sigma^{lin}_{P_0(k)} P^img_1(k) sigma^{lin}_{P_1(k)} P_2(k) sigma^{lin}_{P_2(k)} P^img_3(k) sigma^{lin}_{P_3(k)} P_4(k) sigma^{lin}_{P_4(k)} N_modes
### header ###
0.00050000 0 0 0 0 0 0 0 0 0 0 0 0
0.00150000 0.00179520 22259.35892241 0 -42261.95660029 0 -18788.84943126 0 91.21491909 0 15612.75305703 0 3
0.00250000 0.00253879 36253.22736771 0 -33765.38670421 0 -11681.74557666 0 -9176.67637575 0 52202.13620623 0 6
0.00350000 0.00331552 50222.62597515 0 -24095.37182384 0 -8118.10676146 0 -59738.29264755 0 -55011.84935221 0 7
0.00450000 0.00420575 56677.34845143 0 -11387.22173649 0 -20138.23365691 0 -29981.75186718 0 8964.56384919 0 24
0.00550000 0.00557378 65794.41143035 0 -11713.52314889 0 -19175.05212093 0 -32259.88269862 0 9704.47195520 0 45
0.00650000 0.00659388 72044.62806723 0 -13466.93650717 0 -19728.88980836 0 -39145.87222658 0 3340.59790406 0 40
0.00750000 0.00754703 79897.01010537 0 5748.28600820 0 -12914.20605223 0 -14583.02684889 0 6038.59129262 0 57
0.00850000 0.00846663 77580.56903006 0 12801.37906233 0 2657.69012622 0 -24220.04620130 0 18158.28053284 0 75
0.00950000 0.00948925 65828.51419079 0 5786.71804764 0 -212.59527991 0 -14274.66260270 0 9277.79991831 0 112
0.01050000 0.01054430 65097.74075276 0 17796.76912751 0 39426.99855372 0 -5749.34895138 0 31450.38503112 0 105
0.01150000 0.01145670 64026.93621955 0 4242.41661589 0 43481.46245582 0 5569.81120445 0 1442.82357479 0 144
0.01250000 0.01249090 63338.90195532 0 -154.75566953 0 65471.09954565 0 30206.40933775 0 33540.17561740 0 169
0.01350000 0.01339930 61976.12021664 0 143.09872596 0 53017.05931288 0 16265.02371210 0 33408.96856829 0 180
0.01450000 0.01448870 71909.98859744 0 -358.53294995 0 60761.15401429 0 39102.02582030 0 31454.14962156 0 267
0.01550000 0.01550050 82098.96334205 0 -4424.36812963 0 62096.03349443 0 36265.51764826 0 70500.92454101 0 238
0.01650000 0.01653350 76277.57784540 0 208.75650490 0 51643.09452614 0 16693.85485232 0 35534.19059399 0 315
0.01750000 0.01747870 87349.01687806 0 -4058.19527556 0 47870.53201393 0 16023.42558455 0 61022.90377301 0 297
0.01850000 0.01844180 86169.26066863 0 -7600.33163596 0 45037.45626258 0 15518.63829607 0 23655.57908205 0 388
0.01950000 0.01947590 94872.32942259 0 -4367.53388634 0 38760.77676939 0 11357.43718273 0 40533.12380311 0 399
0.02050000 0.02045430 91176.83029111 0 -372.42761037 0 24218.60679907 0 12628.09717891 0 19174.71995119 0 462
0.02150000 0.02154770 93036.42724441 0 4836.19217894 0 22445.15253287 0 9228.66094077 0 7124.26595806 0 571
0.02250000 0.02255340 88175.12303278 0 10186.37274828 0 21918.10987150 0 -7276.08967597 0 19996.17572948 0 510
0.02350000 0.02348930 74323.53396140 0 8352.31964835 0 19293.96888948 0 2493.97473145 0 7716.31423844 0 555
0.02450000 0.02439640 77770.45940070 0 2836.89570341 0 16657.75907341 0 2313.73942805 0 25725.32876039 0 592
0.02550000 0.02547300 68312.25809411 0 1491.49751470 0 19043.84507183 0 7856.36807507 0 11525.40435023 0 837
0.02650000 0.02652900 68288.56331900 0 2957.42903139 0 26183.05866840 0 4742.07741798 0 13290.66509606 0 723
0.02750000 0.02749970 63770.61190000 0 6945.69150339 0 33454.69726980 0 -4554.61188647 0 18339.53449012 0 826
0.02850000 0.02848090 63381.41968263 0 2893.33134301 0 34198.64677436 0 -5556.85658441 0 19076.17626030 0 831
0.02950000 0.02946900 58169.78711374 0 1500.25572363 0 38739.51790574 0 -694.91017794 0 15973.04650663 0 996
0.03050000 0.03053250 60402.52141342 0 728.20908760 0 38106.07020286 0 -2582.49796838 0 10912.37401432 0 1041
0.03150000 0.03150510 63231.50040458 0 -408.28201260 0 33899.25111126 0 11196.99919610 0 7704.96510550 0 1036
0.03250000 0.03246190 59316.54779520 0 -2914.73414688 0 26388.56101703 0 14601.18546160 0 5309.51192029 0 1059
0.03350000 0.03345080 60811.42236897 0 -672.85742860 0 17748.05089830 0 7931.82596871 0 -1333.06361887 0 1302
0.03450000 0.03451200 63026.21950244 0 -566.59411285 0 10524.64334382 0 2853.02808067 0 -13280.25711073 0 1339
0.03550000 0.03553350 57323.08643485 0 4451.00814315 0 8595.73363716 0 -3239.80653124 0 -6549.41299813 0 1365
0.03650000 0.03647120 56395.22561505 0 3872.78919647 0 14354.05117164 0 -9693.36641341 0 -9573.54171422 0 1308
0.03750000 0.03744890 53416.88096208 0 3371.72220912 0 18342.63474107 0 -4942.06574885 0 -6038.49164170 0 1579
0.03850000 0.03847530 52197.48582981 0 3373.61557667 0 17173.39724022 0 -1478.29930351 0 -8040.46761983 0 1662
0.03950000 0.03950240 47932.97992591 0 2064.56783033 0 19248.12946473 0 4167.27981967 0 -6061.02382270 0 1683
0.04050000 0.04050350 47453.21609151 0 1910.79538325 0 18739.46686257 0 4795.05849224 0 -9253.58474394 0 1822
0.04150000 0.04152450 44292.73169528 0 2344.59799732 0 17279.02721899 0 5324.21596764 0 -7357.68163756 0 1887
0.04250000 0.04250150 42614.27797602 0 1610.52500650 0 12575.72508252 0 3049.30718273 0 -5050.37523023 0 1920
0.04350000 0.04349210 41234.66630362 0 -1613.41488327 0 11838.75114259 0 3142.84618280 0 -2683.90939139 0 2005
0.04450000 0.04448520 43510.25050035 0 -1628.84970407 0 11405.93396543 0 3965.78565262 0 1718.51339045 0 2151
0.04550000 0.04548030 43463.74673611 0 1336.67319676 0 12753.98951210 0 1604.82275921 0 1623.91144720 0 2274
0.04650000 0.04648670 43490.54176217 0 1509.83328460 0 11845.83743048 0 -318.54192717 0 3946.23192699 0 2311
0.04750000 0.04749250 41769.45959236 0 1797.49228338 0 15310.92148247 0 -890.46293550 0 8354.87735538 0 2568
0.04850000 0.04851840 42487.27841035 0 -140.34503877 0 18156.39823762 0 -2739.35959408 0 5689.79091618 0 2493
0.04950000 0.04949480 39645.23407590 0 1656.94019214 0 20056.74134624 0 -616.89236281 0 8629.19420276 0 2644
0.05050000 0.05050630 41065.92407338 0 1461.31435724 0 19439.90213059 0 462.32270834 0 5405.86329086 0 2829
0.05150000 0.05149060 38875.37533126 0 -28.38246527 0 17498.48069689 0 4656.72086595 0 5562.50347007 0 2784
0.05250000 0.05249300 39967.10655838 0 -874.02606930 0 15824.45590756 0 4069.28974502 0 1694.89612161 0 3055
0.05350000 0.05348950 39411.49729898 0 1013.59383087 0 13809.84640681 0 6846.25095419 0 2744.94004579 0 3009
0.05450000 0.05448610 39532.84997899 0 -272.19871164 0 11173.52586749 0 -31.52268731 0 2419.60192564 0 3336
0.05550000 0.05550870 38285.88475792 0 477.83614264 0 8948.26538706 0 3466.72275607 0 1669.55157010 0 3349
0.05650000 0.05647670 37884.73442974 0 1487.84364751 0 8537.13889422 0 892.43270208 0 2071.97521564 0 3324
0.05750000 0.05747970 36301.61342717 0 909.52504990 0 6107.30614044 0 3711.64258106 0 2227.49709004 0 3639
0.05850000 0.05849280 36528.37463945 0 -403.73571602 0 5101.73974506 0 1201.98943766 0 2579.02125838 0 3846
0.05950000 0.05951020 35603.83551709 0 378.89495529 0 5136.67292987 0 341.87685173 0 972.42139104 0 3787
0.06050000 0.06049470 35689.53531119 0 142.12325414 0 7076.68817832 0 -1348.26592084 0 217.78709302 0 3930
0.06150000 0.06148310 34831.31941450 0 2096.04644979 0 5517.02943204 0 -2683.79866814 0 3654.13292595 0 4083
0.06250000 0.06249100 33593.32277652 0 2217.58735933 0 9518.94408054 0 -607.82745048 0 5308.70364057 0 4303
0.06350000 0.06350600 32105.53449064 0 1568.92628215 0 10494.78128378 0 -35.36954512 0 5877.02392887 0 4470
0.06450000 0.06451750 31625.65993300 0 363.05710187 0 10907.43575745 0 1319.53323794 0 3454.07816113 0 4479
0.06550000 0.06550280 30038.66361675 0 329.38394764 0 11495.39834997 0 292.58064717 0 3513.32617123 0 4636
0.06650000 0.06648880 30113.62325577 0 1569.44668142 0 10637.96858834 0 616.15273151 0 3475.42560338 0 4653
0.06750000 0.06749660 29139.25867173 0 778.10984110 0 9375.16994277 0 293.46421869 0 4158.31123657 0 5220
0.06850000 0.06852730 28859.57174681 0 -350.80336000 0 7390.89861202 0 1785.11342424 0 3491.46940204 0 5029
0.06950000 0.06949320 28566.04441587 0 -890.82278605 0 6563.56342925 0 2275.44025651 0 477.16294529 0 5040
0.07050000 0.07048030 28849.93882422 0 437.44651617 0 6710.55961354 0 1894.07617278 0 -1924.43648743 0 5475
0.07150000 0.07148790 28478.68377305 0 1147.23679143 0 5356.48072217 0 -1837.80661805 0 -1034.56813578 0 5509
0.07250000 0.07249820 27099.62571689 0 1064.40030054 0 5928.41058835 0 -2019.70277017 0 -1893.37861631 0 5916
0.07350000 0.07351270 27286.74800632 0 731.47653066 0 8332.23445113 0 -2240.00881709 0 155.76325108 0 5721
0.07450000 0.07449140 27362.15053834 0 -336.57320814 0 9582.04525968 0 -817.19736217 0 -280.17632168 0 6028
0.07550000 0.07549160 26707.55469506 0 131.42406667 0 9300.45389489 0 1040.04007870 0 190.77837109 0 6183
0.07650000 0.07648840 27948.87303048 0 -29.94997429 0 10529.96913205 0 717.53204478 0 737.73017971 0 6330
0.07750000 0.07749960 27183.99683200 0 133.46469613 0 9031.55141435 0 1782.28998141 0 67.94941801 0 6583
0.07850000 0.07848650 27021.01221067 0 372.31799435 0 8991.13742876 0 917.35207632 0 603.49263531 0 6549
0.07950000 0.07947320 26723.27739630 0 -263.51247282 0 8088.93118556 0 1508.96964326 0 1224.18944892 0 6828
0.08050000 0.08048110 27104.27609331 0 -87.98246458 0 7530.43204938 0 870.04556853 0 -177.21809488 0 7147
0.08150000 0.08149960 26681.64545498 0 569.97338639 0 7462.84657869 0 -199.11804614 0 -497.05437683 0 7386
0.08250000 0.08250610 25940.02113863 0 952.67057802 0 7639.74911232 0 -590.04086789 0 -271.50004795 0 7227
0.08350000 0.08350160 25031.53688726 0 1470.64832706 0 8078.11352421 0 -281.23815763 0 248.17730295 0 7798
0.08450000 0.08449610 24011.00070872 0 1046.80969810 0 8470.89317483 0 243.76941044 0 831.54045174 0 7371
0.08550000 0.08548940 23185.33744700 0 921.78100624 0 8746.00722960 0 1255.41340491 0 2123.07399468 0 8256
0.08650000 0.08650700 22862.68990178 0 406.74628114 0 9030.52168814 0 277.31191125 0 1824.66376849 0 8037
0.08750000 0.08749060 22240.31452373 0 841.49779345 0 8941.33411172 0 138.91006548 0 2669.73681562 0 8155
0.08850000 0.08849210 22090.06307594 0 532.98517810 0 9711.20392869 0 -617.54673720 0 3216.55464912 0 8718
0.08950000 0.08949900 21428.60239127 0 268.58138313 0 9145.66279393 0 806.98978592 0 4770.13468907 0 8571
0.09050000 0.09049190 21548.29422256 0 -360.95446739 0 9196.14152278 0 941.62039785 0 3029.94168662 0 8932
0.09150000 0.09150830 21050.92539171 0 411.35126103 0 8247.55331091 0 900.63065138 0 2218.93818296 0 9285
0.09250000 0.09250820 21153.23367303 0 1339.27519309 0 8236.40347982 0 591.32636480 0 1709.16834831 0 9204
0.09350000 0.09350330 19499.36051487 0 1231.75184678 0 7607.67258732 0 384.12330707 0 2836.57460599 0 9349
0.09450000 0.09448040 18550.57300116 0 584.11717411 0 7716.66855283 0 147.55865839 0 2530.05943804 0 9564
0.09550000 0.09549270 18510.82335506 0 137.50941639 0 6855.58492401 0 734.97870700 0 1343.07300050 0 10155
0.09650000 0.09649430 18489.23232166 0 -214.77763513 0 7189.86948261 0 500.86214933 0 1176.46772896 0 9913
0.09750000 0.09749140 18272.10403197 0 143.17955393 0 6529.05099279 0 -464.19614570 0 575.63688053 0 10476
0.09850000 0.09850240 18027.40565348 0 368.60655107 0 7229.16516339 0 299.16978767 0 1600.40490161 0 10575
0.09950000 0.09950330 17968.16871570 0 491.81052379 0 7110.97916828 0 266.40013514 0 1824.25409247 0 10882
0.10050000 0.10051200 17810.49881028 0 103.18155558 0 7531.49499257 0 1146.78282612 0 2355.02812730 0 10875
0.10150000 0.10150300 17124.67901101 0 389.86430749 0 7060.37864386 0 1039.84188409 0 2601.81917518 0 11118
0.10250000 0.10250800 17090.57625057 0 263.11497636 0 6274.33216033 0 1136.44127474 0 1830.83105341 0 11575
0.10350000 0.10349800 16883.74522296 0 56.95570670 0 6263.25983551 0 637.79026867 0 2792.84999528 0 11364
0.10450000 0.10450100 16983.39614633 0 -61.17780560 0 5743.62455945 0 17.45507718 0 2480.88724352 0 12093
0.10550000 0.10551000 16886.73475066 0 4.60850089 0 5595.67615522 0 583.73628614 0 2365.30324473 0 12067
0.10650000 0.10649700 16743.01597452 0 274.47296716 0 5255.22431170 0 -182.21503508 0 1436.61200057 0 12054
0.10750000 0.10749900 16228.48504019 0 715.75382941 0 4890.29155800 0 -130.19836031 0 1887.95317715 0 12807
0.10850000 0.10850100 15582.85778002 0 580.11452869 0 5077.21454559 0 695.15044739 0 1443.00073199 0 12736
0.10950000 0.10950300 15236.29401319 0 352.63361529 0 4777.07703673 0 576.38204799 0 2094.40774572 0 12933
0.11050000 0.11050200 15238.17630841 0 -69.49887914 0 4609.38667735 0 540.36931152 0 1507.35308384 0 13428
0.11150000 0.11150900 14899.03099922 0 177.31220965 0 4381.48501561 0 210.85360322 0 1383.30982889 0 13453
0.11250000 0.11250000 14684.89223723 0 600.19086805 0 4951.65438215 0 -531.40405011 0 2068.69780749 0 13668
0.11350000 0.11349100 14351.61526018 0 537.90682648 0 4951.64330982 0 -283.68514141 0 1945.90572525 0 13791
0.11450000 0.11448600 14002.50485865 0 191.25005213 0 4885.84048342 0 -118.21146146 0 1812.60600676 0 14205
0.11550000 0.11549300 14002.50485865 0 -102.10455055 0 5038.19567293 0 395.05279890 0 1217.54605403 0 14776
0.11650000 0.11649800 14169.58624017 0 -222.56923011 0 5297.81954528 0 390.07357443 0 1700.62051355 0 14553
0.11750000 0.11747300 14435.43275906 0 -172.98735957 0 4734.43751385 0 501.18546122 0 1442.04851206 0 14568
0.11850000 0.11849100 14454.14498801 0 15.28456935 0 4637.70968424 0 548.17640775 0 1270.84822571 0 16015
0.11950000 0.11950300 14395.12949672 0 192.28531450 0 4672.63179672 0 666.46648272 0 1685.54000714 0 15270
0.12050000 0.12050700 13936.40307949 0 353.03775515 0 3750.30713932 0 345.81527767 0 1568.02942384 0 15999
0.12150000 0.12150000 14043.69390698 0 158.09729716 0 3671.30610174 0 540.46453351 0 1611.83154082 0 15670
0.12250000 0.12250700 13566.14453755 0 141.86305451 0 3592.06147302 0 -60.91993115 0 1843.87425205 0 16887
0.12350000 0.12352200 13591.38943814 0 215.00240333 0 3495.69903012 0 107.42602058 0 1442.08172903 0 16407
0.12450000 0.12449800 13423.09010089 0 25.68037512 0 3742.10254663 0 -229.56361770 0 1165.50612739 0 16306
0.12550000 0.12549900 13367.17486056 0 214.85735587 0 3902.44088233 0 -193.81772425 0 1227.55543567 0 17523
0.12650000 0.12650100 13291.10798905 0 155.91051300 0 4110.97704797 0 -117.58587511 0 1252.32422629 0 17154
0.12750000 0.12750600 13223.56680766 0 47.25313918 0 4034.09082443 0 414.31310792 0 1155.55210737 0 18007
0.12850000 0.12850300 13161.67251192 0 167.10352616 0 4326.17875314 0 -184.25012838 0 1700.93053864 0 17496
0.12950000 0.12949900 13225.11693314 0 125.09401857 0 4594.51654512 0 268.66331833 0 1339.81773701 0 18405
0.13050000 0.13049000 12850.76163102 0 110.96573210 0 4448.30649589 0 147.05376038 0 2286.51258132 0 18100
0.13150000 0.13148800 13027.69738162 0 198.31198090 0 4471.46979941 0 20.51048522 0 2151.35271226 0 19059
0.13250000 0.13249300 13003.33826702 0 106.20407881 0 4870.22850543 0 26.91305704 0 2101.39438268 0 18957
0.13350000 0.13349100 12641.60541519 0 352.49853293 0 4860.36306402 0 -182.91923493 0 1486.14958181 0 19468
0.13450000 0.13450700 12468.65570153 0 357.16108891 0 5058.21443620 0 -280.66018227 0 1474.61221935 0 19953
0.13550000 0.13551000 12174.35330785 0 218.59315827 0 4468.63528426 0 170.65774243 0 1127.26231746 0 19956
0.13650000 0.13649900 12081.34577937 0 61.79608422 0 4087.00546473 0 314.41527171 0 852.88235783 0 19723
0.13750000 0.13749600 12029.41657597 0 -55.32397819 0 3969.73847258 0 600.31155639 0 185.80025385 0 20946
0.13850000 0.13851100 11910.27836092 0 121.24638569 0 3453.25880909 0 447.39610725 0 -193.02716026 0 20955
0.13950000 0.13949800 11963.20407355 0 -17.98710239 0 2983.51542866 0 435.55314862 0 -374.00873835 0 20506
0.14050000 0.14048300 11597.92807779 0 114.85986874 0 3044.34678121 0 159.03623030 0 -630.87560182 0 21447
0.14150000 0.14148400 11617.19392297 0 160.08035053 0 2839.14338535 0 -9.14157711 0 -280.96799290 0 21771
0.14250000 0.14249400 11407.70553740 0 241.93583345 0 2789.08540484 0 119.36962664 0 -166.65398978 0 22470
0.14350000 0.14350900 11321.00923407 0 322.87895680 0 2917.05933510 0 -233.34260216 0 -164.38194872 0 22519
0.14450000 0.14449900 11019.75342041 0 320.98005310 0 3218.82447570 0 3.42634199 0 370.52206327 0 22218
0.14550000 0.14550500 10788.25325310 0 315.33316744 0 2979.20829430 0 105.86382627 0 785.75306692 0 23559
0.14650000 0.14650700 10685.14776439 0 72.48065622 0 3147.21975110 0 334.64773085 0 548.99465255 0 23044
0.14750000 0.14750500 10527.35606340 0 -99.47985595 0 3291.32605862 0 641.03445984 0 423.75005037 0 23649
0.14850000 0.14849900 10785.21943610 0 -52.43343707 0 2990.46884864 0 255.82938663 0 630.07396550 0 23640
0.14950000 0.14949500 10661.24261510 0 222.12522988 0 3112.80696557 0 -8.40610900 0 983.22022943 0 24457
0.15050000 0.15050000 10493.70726827 0 361.35528555 0 3070.32245524 0 -10.38774512 0 1284.58898081 0 24591
0.15150000 0.15149900 10124.77740532 0 395.09930267 0 3159.99721394 0 -181.92383293 0 1383.23232262 0 25020
0.15250000 0.15250500 9832.70054893 0 388.39058106 0 3465.75946381 0 -155.31371470 0 1389.21137802 0 25297
0.15350000 0.15350100 9684.96251887 0 111.23811129 0 3504.81155344 0 9.23276877 0 1134.30431605 0 25452
0.15450000 0.15450400 9541.12194715 0 109.41040263 0 3808.62507414 0 -17.23374141 0 844.79845348 0 26061
0.15550000 0.15549900 9423.36777270 0 132.38403723 0 3475.20415688 0 -173.23648688 0 537.75624286 0 26128
0.15650000 0.15649500 9500.09898370 0 66.31303912 0 3594.82955422 0 213.61393380 0 460.92316648 0 26331
0.15750000 0.15749700 9261.57896245 0 47.60557128 0 3027.61649841 0 37.66384155 0 668.00110694 0 27345
0.15850000 0.15849900 9362.07138251 0 53.46128098 0 2958.84628896 0 513.13914309 0 34.21326224 0 26980
0.15950000 0.15949700 9329.39695197 0 18.01201512 0 2936.55769910 0 36.73354482 0 -43.14918199 0 27777
0.16050000 0.16050000 9170.99627311 0 192.17569848 0 2818.68172908 0 217.24012017 0 6.15629011 0 28224
0.16150000 0.16150500 9057.28349723 0 184.28113089 0 2765.11382161 0 -155.67577972 0 211.79142913 0 28075
0.16250000 0.16249700 8974.70609873 0 25.74813775 0 2748.25067091 0 161.25180250 0 361.38960976 0 28590
0.16350000 0.16349900 8944.77760474 0 95.51640656 0 2883.17802115 0 130.42534297 0 241.87382843 0 29163
0.16450000 0.16449100 8973.83138507 0 31.51991923 0 2952.72329334 0 226.33160608 0 520.43026899 0 28996
0.16550000 0.16550500 8720.47444857 0 184.51143524 0 2861.13302244 0 105.62975732 0 672.88510941 0 30777
0.16650000 0.16650700 8726.14347887 0 197.59338702 0 2694.16236417 0 302.79818851 0 631.37496367 0 29211
0.16750000 0.16749900 8554.58887813 0 87.15868361 0 2533.07111039 0 284.29854821 0 657.70384485 0 30922
0.16850000 0.16850800 8582.38041343 0 -39.04356395 0 2450.53800119 0 -106.33683599 0 580.44891290 0 30867
0.16950000 0.16949900 8544.13660351 0 -42.64439470 0 2225.71444575 0 128.38914243 0 202.41317001 0 30852
0.17050000 0.17049200 8513.93130140 0 250.87562851 0 2555.58114674 0 -330.58308041 0 333.28915660 0 31257
0.17150000 0.17149500 8341.03694936 0 252.79556963 0 2313.55119853 0 -4.27058461 0 277.88656490 0 32608
0.17250000 0.17250900 8163.63616111 0 150.27359244 0 2334.94293008 0 167.81436942 0 172.50571344 0 32361
0.17350000 0.17350400 7878.67880958 0 170.26467490 0 2164.08588580 0 384.59166641 0 34.42297208 0 32508
0.17450000 0.17449800 7976.08205101 0 45.70434239 0 2192.74106244 0 262.14836241 0 -287.68225067 0 32791
0.17550000 0.17549800 7813.65104592 0 49.54477825 0 1898.66011525 0 85.40061988 0 -180.51986215 0 33633
0.17650000 0.17650100 7798.06121258 0 74.20649949 0 1831.26287408 0 47.58674833 0 -125.46937038 0 33984
0.17750000 0.17750300 7794.34091144 0 23.83273628 0 1771.35052449 0 77.46807421 0 291.86426775 0 34069
0.17850000 0.17849800 7785.20624346 0 -5.41281671 0 1728.56706139 0 256.70299306 0 442.02824418 0 34536
