### header ###
fiducial parameters:
Omega_m = 0.31
Omega_nu = 0
Omega_de = 0.69
Omega_k = 0
H_0 = 100
w_de = -1
zeff = 0
beta = 0
fgrowth = 0
b_1 = 2
gamma = 0.55
Lx = 3500 Ly = 3500 Lz = 3500
nx = 700 ny = 700 nz = 700
xoffset = -685.467585 yoffset = -31.7331281 zoffset = 572.489161
bins = 400 dk = 0.001
kx_ny = 0.628318531 ky_ny = 0.628318531 kz_ny = 0.628318531
############################
A(data) = 8.00662963 (not used)
A(ran) = 8.0026806 (used)
Ngal = 476016
weighted Ngal = 0
Nran = 23820508
weighted Nran = 0
SN(data) = 3489.10985
SN(ran) = 69.7062503
SN(data+ran) = 3558.8161
############################
13 columns: k_central k_mean P_0(k) sigma^{lin}_{P_0(k)} P^img_1(k) sigma^{lin}_{P_1(k)} P_2(k) sigma^{lin}_{P_2(k)} P^img_3(k) sigma^{lin}_{P_3(k)} P_4(k) sigma^{lin}_{P_4(k)} N_modes
### header ###
0.00050000 0 0 0 0 0 0 0 0 0 0 0 0
0.00150000 0.00179520 56785.30361841 0 -48440.31384910 0 60937.31470216 0 6452.40836039 0 -102083.29168398 0 3
0.00250000 0.00253879 89589.61252836 0 -28895.11390948 0 17801.64095043 0 28057.38181370 0 88010.69900922 0 6
0.00350000 0.00331552 87219.80284743 0 -3888.89942908 0 7394.50818991 0 -52480.05155918 0 -1031.69597472 0 7
0.00450000 0.00420575 64886.70224172 0 27146.79382061 0 -12760.63290699 0 -27227.28962204 0 28973.17379945 0 24
0.00550000 0.00557378 43383.58310442 0 10207.11121267 0 -8914.25120522 0 -16089.52736372 0 -5670.15968428 0 45
0.00650000 0.00659388 43294.56161288 0 -9837.16269583 0 -10978.13255141 0 -18050.32536585 0 22030.38324516 0 40
0.00750000 0.00754703 54384.26998149 0 -19690.46884124 0 1598.95442706 0 5636.65482938 0 -8136.32073579 0 57
0.00850000 0.00846663 67812.23190530 0 -17334.72101282 0 4173.62426179 0 -2949.30194497 0 1005.50217590 0 75
0.00950000 0.00948925 86942.33038747 0 -14000.29039369 0 -712.15310938 0 -8052.64717713 0 7014.84924420 0 112
0.01050000 0.01054430 82841.36272114 0 22118.29750422 0 30777.96274489 0 -19755.35266468 0 -2931.74123781 0 105
0.01150000 0.01145670 75737.58056399 0 19472.34404231 0 16630.74260085 0 -5753.72251968 0 20471.39991070 0 144
0.01250000 0.01249090 70771.42143633 0 -2564.00718593 0 34987.10702470 0 16764.82845441 0 23290.52453277 0 169
0.01350000 0.01339930 74133.31142102 0 -2080.13551903 0 28961.21568864 0 13017.17867304 0 -9491.15254524 0 180
0.01450000 0.01448870 82480.07276231 0 -1792.11113352 0 32358.42638950 0 13073.31535987 0 -7407.99428154 0 267
0.01550000 0.01550050 79605.03289990 0 2437.87126160 0 40430.15118229 0 7943.72871789 0 7701.53268481 0 238
0.01650000 0.01653350 70926.43398380 0 7381.80823334 0 24209.08459973 0 785.39985976 0 12824.40949795 0 315
0.01750000 0.01747870 71711.68325993 0 5936.17228805 0 37632.06397737 0 20956.14629126 0 830.56055099 0 297
0.01850000 0.01844180 71985.39112945 0 -3068.77232976 0 30701.34225714 0 9809.23829263 0 14577.26923999 0 388
0.01950000 0.01947590 69070.04800470 0 -1986.39721711 0 15559.27372815 0 25315.98491185 0 7960.89082136 0 399
0.02050000 0.02045430 77642.90621879 0 -3924.44159175 0 15802.31125792 0 6785.48603559 0 6371.17071320 0 462
0.02150000 0.02154770 78361.16792977 0 2182.26664316 0 17154.46356478 0 -1063.64406075 0 12395.91052747 0 571
0.02250000 0.02255340 74258.98230771 0 7255.82732156 0 10958.27987301 0 -9290.31164536 0 12086.32832554 0 510
0.02350000 0.02348930 69155.85852205 0 6638.17982620 0 15188.90446297 0 -922.62028847 0 7255.92697248 0 555
0.02450000 0.02439640 63910.12319272 0 -1916.22082241 0 16049.44554788 0 5258.04775453 0 2625.27035915 0 592
0.02550000 0.02547300 64893.67780636 0 1180.26553637 0 24851.72233220 0 -3440.20453813 0 -6504.69187818 0 837
0.02650000 0.02652900 65493.57636503 0 3072.19367813 0 24242.41229743 0 6179.03266062 0 -7888.72140819 0 723
0.02750000 0.02749970 64648.20436513 0 -293.70005921 0 21655.80649655 0 -5680.78911610 0 -3999.66696656 0 826
0.02850000 0.02848090 63680.15100623 0 2581.91113516 0 24657.73520138 0 1857.18318648 0 2689.12445638 0 831
0.02950000 0.02946900 67164.05801042 0 -2776.15292945 0 23014.60219829 0 4699.62612462 0 -2342.37246003 0 996
0.03050000 0.03053250 66715.73957851 0 -428.01400265 0 29757.53728960 0 4997.73739804 0 2370.39651415 0 1041
0.03150000 0.03150510 64032.25093547 0 2879.01482702 0 22923.58768828 0 8489.57218680 0 -412.83163086 0 1036
0.03250000 0.03246190 61558.80429423 0 4143.85078035 0 22991.01814643 0 185.34296684 0 3264.27636908 0 1059
0.03350000 0.03345080 58974.41295831 0 5403.02877570 0 26074.54988517 0 7981.07566950 0 14618.79045806 0 1302
0.03450000 0.03451200 53439.57922796 0 2859.88184973 0 18316.28260800 0 4721.52718312 0 12343.20626133 0 1339
0.03550000 0.03553350 52550.58226827 0 -1159.63779523 0 17210.48952836 0 11227.00519636 0 14971.11183379 0 1365
0.03650000 0.03647120 55643.30403662 0 -3626.50747553 0 14074.36424673 0 5642.41243828 0 4681.33464402 0 1308
0.03750000 0.03744890 56237.33426314 0 -396.81329855 0 9936.58110037 0 1921.53553833 0 4065.58051621 0 1579
0.03850000 0.03847530 53906.83133531 0 3150.63002715 0 6774.50228937 0 -2431.47145785 0 1886.74629375 0 1662
0.03950000 0.03950240 51325.65097359 0 3948.05886058 0 9857.33647165 0 -5729.36340508 0 1723.73952777 0 1683
0.04050000 0.04050350 48344.42751617 0 2610.95384316 0 12768.05136462 0 -6472.47141296 0 1704.25223609 0 1822
0.04150000 0.04152450 47253.80352153 0 3380.04859739 0 16369.98935138 0 752.22053120 0 -1889.18220521 0 1887
0.04250000 0.04250150 45529.84254727 0 1601.52320642 0 17365.94496881 0 -2429.61130728 0 1433.30137545 0 1920
0.04350000 0.04349210 45283.48332005 0 1379.66703403 0 20584.66979359 0 3768.90864502 0 -1101.83361628 0 2005
0.04450000 0.04448520 43312.16660934 0 951.58327573 0 18492.22184937 0 1258.41400494 0 4074.48266536 0 2151
0.04550000 0.04548030 44142.59097074 0 1289.47187605 0 20607.92167571 0 1824.22087550 0 3692.08885543 0 2274
0.04650000 0.04648670 42052.91110772 0 896.10096329 0 19460.93954775 0 5154.89797652 0 8708.75992891 0 2311
0.04750000 0.04749250 40484.29485066 0 2608.29648520 0 17627.80545077 0 3358.38005772 0 9251.75781034 0 2568
0.04850000 0.04851840 39051.31457263 0 1403.07392869 0 16791.06986423 0 6638.54521292 0 8546.46179172 0 2493
0.04950000 0.04949480 38091.12256436 0 -1265.85460722 0 12644.48421965 0 4566.55892495 0 7875.64499258 0 2644
0.05050000 0.05050630 37584.89587365 0 -1165.50612739 0 11000.46543057 0 2964.27172812 0 6119.24210660 0 2829
0.05150000 0.05149060 39893.80776808 0 139.64858954 0 11107.09191858 0 1749.26123647 0 4909.93386223 0 2784
0.05250000 0.05249300 37905.43967715 0 592.10696370 0 9495.21608845 0 -1843.30956348 0 4184.25369362 0 3055
0.05350000 0.05348950 37541.71380685 0 2723.61474819 0 10894.13789534 0 -2110.18580859 0 1350.91220647 0 3009
0.05450000 0.05448610 35369.10223094 0 2109.61004770 0 10643.91442676 0 -1210.39333220 0 2814.77319842 0 3336
0.05550000 0.05550870 34361.18850270 0 531.10620458 0 11132.33681916 0 253.18531547 0 -616.55022797 0 3349
0.05650000 0.05647670 33747.56026125 0 447.39057109 0 8874.33547425 0 887.91076462 0 -867.58308349 0 3324
0.05750000 0.05747970 34028.46514190 0 9.74875018 0 10145.37192948 0 405.48071442 0 -2778.35632209 0 3639
0.05850000 0.05849280 33951.62320766 0 -394.59440465 0 8673.00739207 0 -425.83164743 0 -382.91088751 0 3846
0.05950000 0.05951020 33535.74668747 0 1402.60889105 0 8960.59995691 0 -718.20856383 0 -3749.25526847 0 3787
0.06050000 0.06049470 33490.68232546 0 1284.17930479 0 9887.71893095 0 -1751.77465421 0 -2167.65117440 0 3930
0.06150000 0.06148310 31559.89032358 0 307.63457999 0 11422.09955967 0 -1146.55030730 0 -861.24749923 0 4083
0.06250000 0.06249100 32337.94258859 0 486.59545881 0 13673.32464179 0 924.49151136 0 -1223.27044596 0 4303
0.06350000 0.06350600 32073.64619517 0 143.74977866 0 13582.19940854 0 -57.96439549 0 157.45288785 0 4470
0.06450000 0.06451750 31376.31117809 0 1186.03421760 0 14265.47257310 0 2185.78764245 0 1025.25741784 0 4479
0.06550000 0.06550280 31178.55945683 0 177.87468375 0 12116.88794204 0 2439.97500331 0 3516.42642218 0 4636
0.06650000 0.06648880 30431.62042456 0 181.52633647 0 12274.22567771 0 2803.87803080 0 1651.69191017 0 4653
0.06750000 0.06749660 30115.28410449 0 871.04539946 0 10942.06998948 0 2237.53968865 0 2486.05801921 0 5220
0.06850000 0.06852730 29697.63601233 0 1157.22402842 0 11019.80878203 0 1137.48207327 0 2054.22627895 0 5029
0.06950000 0.06949320 28012.53889818 0 298.22088943 0 8606.08626087 0 224.45484703 0 3941.79192474 0 5040
0.07050000 0.07048030 28572.13419452 0 -715.68185930 0 9206.52736346 0 1505.01682330 0 -10.78409006 0 5475
0.07150000 0.07148790 28907.51491327 0 -375.97961217 0 9814.96268457 0 -48.74480278 0 1415.15383507 0 5509
0.07250000 0.07249820 29077.91799223 0 -102.36253572 0 9688.98177278 0 196.65113217 0 -625.09141933 0 5916
0.07350000 0.07351270 28796.90238834 0 791.22611708 0 8133.56372691 0 -528.68136544 0 1792.52080954 0 5721
0.07450000 0.07449140 28570.80551554 0 1111.03028928 0 8489.93757352 0 508.40240254 0 732.29920439 0 6028
0.07550000 0.07549160 27423.71266433 0 869.94813207 0 8923.37480087 0 568.15420342 0 -96.02064023 0 6183
0.07650000 0.07648840 26746.64000167 0 682.52910433 0 9534.68892643 0 -107.92759689 0 -134.84873673 0 6330
0.07750000 0.07749960 26032.69649736 0 953.17104711 0 8488.67532849 0 -656.34416337 0 492.32538690 0 6583
0.07850000 0.07848650 25709.38461266 0 332.26496655 0 9059.32080499 0 628.12191464 0 575.23163344 0 6549
0.07950000 0.07947320 25561.12618333 0 -245.47233400 0 9344.82070044 0 -286.74663922 0 1241.19653985 0 6828
0.08050000 0.08048110 25621.13818385 0 68.11771735 0 9822.53615474 0 1595.28948755 0 1105.73661078 0 7147
0.08150000 0.08149960 25458.48573227 0 547.57407328 0 9819.33625287 0 392.15406426 0 2771.62434860 0 7386
0.08250000 0.08250610 25160.08657840 0 551.15707759 0 8752.87207099 0 1468.45600675 0 2613.54476717 0 7227
0.08350000 0.08350160 24475.81690461 0 442.74130190 0 8728.02577409 0 818.20826543 0 3374.64530288 0 7798
0.08450000 0.08449610 24134.67857695 0 508.34150475 0 8087.81288075 0 741.93434145 0 2335.07579798 0 7371
0.08550000 0.08548940 23843.91932721 0 377.25514399 0 8070.46254776 0 372.25156040 0 2882.30330749 0 8256
0.08650000 0.08650700 23343.00735241 0 432.11740623 0 8230.08118235 0 -141.10127856 0 3135.46094214 0 8037
0.08750000 0.08749060 23054.79473739 0 447.61976821 0 8371.08723891 0 104.41589835 0 2692.66760032 0 8155
0.08850000 0.08849210 22779.09384940 0 616.79935528 0 7765.49750528 0 73.62398448 0 1036.15037099 0 8718
0.08950000 0.08949900 21964.06001950 0 992.16113172 0 7863.76438805 0 604.57661591 0 1199.79711735 0 8571
0.09050000 0.09049190 21106.61918554 0 1010.24002369 0 7838.69664466 0 -279.55959318 0 1716.78610778 0 8932
0.09150000 0.09150830 20124.06108114 0 790.82640615 0 8532.74318127 0 406.41743310 0 1988.06913816 0 9285
0.09250000 0.09250820 19406.24226315 0 767.41286809 0 7304.47911681 0 1136.93952935 0 2748.16209231 0 9204
0.09350000 0.09350330 18970.98917452 0 362.81793966 0 7096.23083162 0 2176.33187705 0 2662.03047755 0 9349
0.09450000 0.09448040 18605.49173226 0 -140.96841066 0 5871.91958712 0 1653.35275889 0 2629.47784258 0 9564
0.09550000 0.09549270 18748.54616892 0 -230.79928915 0 5700.84109635 0 1163.92278494 0 2211.76331647 0 10155
0.09650000 0.09649430 18544.37249926 0 342.40057269 0 5650.48416308 0 -712.15310938 0 2676.93382675 0 9913
0.09750000 0.09749140 18425.12356096 0 733.77957422 0 6272.25056327 0 -697.59410948 0 1892.10529896 0 10476
0.09850000 0.09850240 18072.35929224 0 339.69671097 0 6320.35981460 0 -272.27068176 0 2802.93688319 0 10575
0.09950000 0.09950330 17753.47633747 0 57.00841096 0 5846.57503561 0 33.61668538 0 1465.48862370 0 10882
0.10050000 0.10051200 17780.16064028 0 -15.88214272 0 6663.15899099 0 -8.65642105 0 959.89526997 0 10875
0.10150000 0.10150300 17775.06737086 0 329.67072085 0 6147.88621090 0 172.92314009 0 475.05477465 0 11118
0.10250000 0.10250800 17026.57821312 0 609.79389536 0 6218.17332885 0 419.90352472 0 325.38019498 0 11575
0.10350000 0.10349800 17158.67104821 0 242.56806320 0 6015.46120607 0 -71.57549366 0 1142.60855966 0 11364
0.10450000 0.10450100 16553.01488063 0 172.58432695 0 6239.86401317 0 212.56427740 0 605.48897548 0 12093
0.10550000 0.10551000 16764.38556142 0 381.29764978 0 6581.82169287 0 -175.96581495 0 903.61242845 0 12067
0.10650000 0.10649700 16603.39395855 0 317.68603646 0 6985.20863066 0 47.17784737 0 1185.17057626 0 12054
0.10750000 0.10749900 16141.34584387 0 382.86216928 0 7412.41213914 0 -15.73543442 0 2728.60836668 0 12807
0.10850000 0.10850100 16247.64016213 0 125.52694647 0 7316.39293831 0 834.70049324 0 2539.19410601 0 12736
0.10950000 0.10950300 15762.22944208 0 227.78208063 0 7842.37265650 0 219.50108890 0 3133.03610301 0 12933
0.11050000 0.11050200 15570.67822272 0 545.27213695 0 6799.33751393 0 890.34667608 0 2755.60269459 0 13428
0.11150000 0.11150900 15128.56029271 0 220.17539348 0 6657.45674371 0 527.61510056 0 2410.32331745 0 13453
0.11250000 0.11250000 15025.47694865 0 97.52160458 0 5842.04645476 0 1042.18035909 0 3454.80893456 0 13668
0.11350000 0.11349100 14875.33622411 0 -168.49974632 0 4908.68268953 0 1235.33928002 0 2023.27913109 0 13791
0.11450000 0.11448600 14976.09437996 0 -219.25085436 0 4325.48119668 0 1252.12492444 0 2132.64048332 0 14205
0.11550000 0.11549300 15014.07245408 0 60.01388281 0 4076.15458641 0 417.32256581 0 1686.23756361 0 14776
0.11650000 0.11649800 15152.47651432 0 184.82588927 0 4333.32040265 0 -578.26545044 0 1642.32472338 0 14553
0.11750000 0.11747300 14828.61101337 0 260.67795767 0 4260.66380719 0 -356.77023584 0 2429.47843938 0 14568
0.11850000 0.11849100 14677.80594934 0 371.15318578 0 4850.95158792 0 -406.83043081 0 2533.44756943 0 16015
0.11950000 0.11950300 14654.33262073 0 81.70412424 0 5204.44663008 0 -149.12982128 0 2260.83586007 0 15270
0.12050000 0.12050700 14529.54752002 0 183.87588380 0 5189.87545062 0 54.72640482 0 1555.14123775 0 15999
0.12150000 0.12150000 14390.70056679 0 252.07697575 0 5103.68847423 0 -199.27416592 0 942.93911174 0 15670
0.12250000 0.12250700 13953.34373646 0 616.26456199 0 5156.68062081 0 -635.87586371 0 1138.89933085 0 16887
0.12350000 0.12352200 13671.77451632 0 257.39058443 0 5296.93375929 0 -142.23951355 0 679.86178128 0 16407
0.12450000 0.12449800 13353.99879402 0 108.26120604 0 5120.80628840 0 119.13600058 0 1162.19550226 0 16306
0.12550000 0.12549900 13448.77789447 0 -73.24032842 0 5015.22059893 0 1052.01590523 0 558.51463743 0 17523
0.12650000 0.12650100 13536.35998379 0 -139.04846954 0 4517.82962343 0 903.64232373 0 -384.79982612 0 17154
0.12750000 0.12750600 13337.50103004 0 68.34248554 0 4094.46821166 0 560.22420438 0 11.32255936 0 18007
0.12850000 0.12850300 13355.21674975 0 527.32057672 0 4252.58101007 0 -533.33174186 0 -48.00948969 0 17496
0.12950000 0.12949900 12752.55010988 0 544.68862543 0 4431.88623819 0 -223.74289654 0 -278.45346793 0 18405
0.13050000 0.13049000 12423.03772327 0 203.99540523 0 4457.09792180 0 -299.02141852 0 484.17061967 0 18100
0.13150000 0.13148800 12148.99768401 0 203.24470160 0 4201.71474986 0 553.97055533 0 11.48465819 0 19059
0.13250000 0.13249300 12209.12040778 0 59.43147853 0 3784.71992486 0 987.94700490 0 -171.03752317 0 18957
0.13350000 0.13349100 12083.78169083 0 -20.53119046 0 3372.24260839 0 654.37993294 0 -153.67058169 0 19468
0.13450000 0.13450700 11992.43501108 0 28.90253237 0 2999.43743175 0 322.81252286 0 0.63773159 0 19953
0.13550000 0.13551000 12044.03204473 0 81.81805846 0 3222.92123589 0 -254.11760522 0 -78.29119084 0 19956
0.13650000 0.13649900 11962.42901082 0 186.10806448 0 3482.06899827 0 -155.14762982 0 139.39614054 0 19723
0.13750000 0.13749600 11826.35013880 0 181.25727898 0 3471.60565131 0 -479.96535070 0 492.46821989 0 20946
0.13850000 0.13851100 11743.52914915 0 118.67317741 0 3747.08509280 0 -9.53619476 0 378.37677049 0 20955
0.13950000 0.13949800 11839.74765183 0 97.68613933 0 3880.07478620 0 -134.30730005 0 54.11443743 0 20506
0.14050000 0.14048300 11606.56449115 0 246.88848434 0 4043.15905845 0 195.56050818 0 232.13682599 0 21447
0.14150000 0.14148400 11416.67412051 0 385.42541247 0 3948.33566871 0 291.61956938 0 385.22168170 0 21771
0.14250000 0.14249400 11254.24311542 0 201.01252092 0 3939.15671143 0 -127.50889261 0 408.18900507 0 22470
0.14350000 0.14350900 11081.84701799 0 43.84153446 0 3671.04036595 0 389.23872114 0 74.48264327 0 22519
0.14450000 0.14449900 11037.65736964 0 0.15383445 0 3748.02624041 0 225.30077264 0 146.13475742 0 22218
0.14550000 0.14550500 10976.58242594 0 4.16463353 0 3325.88278438 0 57.22398913 0 -348.41395230 0 23559
0.14650000 0.14650700 10968.47748417 0 231.08163343 0 3189.91463560 0 102.55519417 0 -263.57337061 0 23044
0.14750000 0.14750500 10689.76492384 0 228.34898366 0 3111.00217662 0 -313.34900683 0 -575.17184289 0 23649
0.14850000 0.14849900 10545.40395285 0 345.08339700 0 3670.68605155 0 -531.78050916 0 -734.76722559 0 23640
0.14950000 0.14949500 10167.88196584 0 379.94571892 0 3566.63941523 0 -115.65264720 0 -432.55808476 0 24457
0.15050000 0.15050000 10115.07804878 0 60.14265395 0 3686.02122143 0 302.60331560 0 -432.02329147 0 24591
0.15150000 0.15149900 10028.73605984 0 -34.58008836 0 3712.59480099 0 184.22466203 0 -570.88796042 0 25020
0.15250000 0.15250500 10034.32758387 0 86.15685966 0 3877.46171754 0 386.82938326 0 -667.91031387 0 25297
0.15350000 0.15350100 10040.22913300 0 186.81780050 0 3842.42888181 0 186.05048839 0 -239.59514398 0 25452
0.15450000 0.15450400 9965.34700025 0 -5.56357749 0 3345.81296905 0 165.24448283 0 261.43751915 0 26061
0.15550000 0.15549900 9910.32861823 0 -9.15556145 0 3298.25733395 0 461.92853357 0 287.03341244 0 26128
0.15650000 0.15649500 9889.74516639 0 43.59340366 0 3033.58448149 0 523.51723315 0 159.64188647 0 26331
0.15750000 0.15749700 9755.26070914 0 155.07787418 0 2848.76523562 0 342.83460782 0 -132.75606734 0 27345
0.15850000 0.15849900 9569.01313337 0 272.77447253 0 2711.40197391 0 143.28916994 0 -176.46628403 0 26980
0.15950000 0.15949700 9397.17065218 0 174.53859228 0 2466.91396959 0 -157.37648881 0 -28.68407540 0 27777
0.16050000 0.16050000 9200.00576414 0 148.41897803 0 2718.89793782 0 -138.82591581 0 -166.56873287 0 28224
0.16150000 0.16150500 9284.53189180 0 117.29135127 0 2793.21538200 0 -79.44847023 0 4.68301764 0 28075
0.16250000 0.16249700 9009.06352264 0 154.95829307 0 2852.29730723 0 15.79788233 0 30.55053719 0 28590
0.16350000 0.16349900 8964.54170454 0 152.40280050 0 2509.03309320 0 249.41297440 0 17.37048462 0 29163
0.16450000 0.16449100 8849.12379064 0 108.82157640 0 2570.68379779 0 643.07176761 0 153.46020752 0 28996
0.16550000 0.16550500 8696.95683065 0 109.75320181 0 2129.94990839 0 338.33038609 0 -5.85367240 0 30777
0.16650000 0.16650700 8555.18678367 0 295.16271332 0 2111.90201893 0 332.70232338 0 145.03638280 0 29211
0.16750000 0.16749900 8373.81103082 0 89.08283222 0 1881.06619112 0 55.30725898 0 285.17769080 0 30922
0.16850000 0.16850800 8326.16681713 0 78.96472036 0 1984.99103186 0 -101.31287932 0 -24.60270575 0 30867
0.16950000 0.16949900 8162.41820538 0 167.78004521 0 2038.02746774 0 -226.87968616 0 -101.66929746 0 30852
0.17050000 0.17049200 8106.60261597 0 109.48868397 0 2178.05915973 0 -124.45293096 0 87.04707458 0 31257
0.17150000 0.17149500 8166.68105044 0 9.32919765 0 2258.64353976 0 -70.21082963 0 27.53200000 0 32608
0.17250000 0.17250900 8110.99832892 0 -30.34282038 0 2245.92143854 0 63.22120314 0 -161.68251593 0 32361
0.17350000 0.17350400 8219.13065310 0 1.94387949 0 2306.13274090 0 216.43737662 0 147.30842385 0 32508
0.17450000 0.17449800 8151.09121709 0 177.13615968 0 2275.78349857 0 159.90097887 0 -97.48285145 0 32791
0.17550000 0.17549800 7990.36535003 0 224.16143042 0 2368.33706173 0 77.77588484 0 506.86334939 0 33633
0.17650000 0.17650100 7883.22953508 0 126.14478219 0 2195.30984179 0 117.85714707 0 576.92127021 0 33984
0.17750000 0.17750300 7787.58679330 0 49.15082493 0 2229.06936017 0 184.37524565 0 590.90450922 0 34069
0.17850000 0.17849800 7819.48616110 0 -62.17210037 0 2210.60072237 0 172.61865116 0 681.73632587 0 34536
