### header ###
fiducial parameters:
Omega_m = 0.31
Omega_nu = 0
Omega_de = 0.69
Omega_k = 0
H_0 = 100
w_de = -1
zeff = 0
beta = 0
fgrowth = 0
b_1 = 2
gamma = 0.55
Lx = 3500 Ly = 3500 Lz = 3500
nx = 700 ny = 700 nz = 700
xoffset = -685.467585 yoffset = -31.7331281 zoffset = 572.489161
bins = 400 dk = 0.001
kx_ny = 0.628318531 ky_ny = 0.628318531 kz_ny = 0.628318531
############################
A(data) = 8.01980294 (not used)
A(ran) = 8.01596524 (used)
Ngal = 476497
weighted Ngal = 0
Nran = 23820508
weighted Nran = 0
SN(data) = 3486.36288
SN(ran) = 69.8219643
SN(data+ran) = 3556.18484
############################
13 columns: k_central k_mean P_0(k) sigma^{lin}_{P_0(k)} P^img_1(k) sigma^{lin}_{P_1(k)} P_2(k) sigma^{lin}_{P_2(k)} P^img_3(k) sigma^{lin}_{P_3(k)} P_4(k) sigma^{lin}_{P_4(k)} N_modes
### header ###
0.00050000 0 0 0 0 0 0 0 0 0 0 0 0
0.00150000 0.00179520 3189.93678025 0 3744.39451787 0 2201.07852302 0 -1902.73473079 0 3040.88114354 0 3
0.00250000 0.00253879 6097.37426508 0 8553.81381540 0 24414.25477862 0 -4689.95998506 0 787.33751660 0 6
0.00350000 0.00331552 21389.18491492 0 -21104.95833682 0 18043.68197096 0 42839.37833958 0 7798.11657420 0 7
0.00450000 0.00420575 37182.30614324 0 -34222.89516571 0 38688.69593482 0 37735.36876793 0 28327.21436953 0 24
0.00550000 0.00557378 68419.99181460 0 -6332.14076821 0 21697.32771462 0 46289.51475307 0 756.80115198 0 45
0.00650000 0.00659388 82386.40089434 0 10959.29852690 0 34504.57510910 0 39066.37293438 0 28938.62814601 0 40
0.00750000 0.00754703 80090.88651294 0 -899.31304472 0 -21866.51283785 0 23335.03527855 0 -328.07187714 0 57
0.00850000 0.00846663 72082.27397161 0 -2430.38637002 0 -11100.33780044 0 14957.82504401 0 32682.95622994 0 75
0.00950000 0.00948925 76986.09591054 0 3873.68605478 0 -24528.96406374 0 7644.26662084 0 18988.15127799 0 112
0.01050000 0.01054430 74243.59177621 0 -6060.10481974 0 -31091.75243025 0 8944.48972430 0 -15863.87338392 0 105
0.01150000 0.01145670 77029.72087033 0 1201.90085906 0 -12004.17167538 0 -17414.44175152 0 -1402.43173385 0 144
0.01250000 0.01249090 70666.34507381 0 6579.81760208 0 -4108.34183466 0 -36776.94833163 0 -19013.17473208 0 169
0.01350000 0.01339930 57906.37650630 0 12855.19056094 0 10058.75313242 0 -19377.12204887 0 418.91255165 0 180
0.01450000 0.01448870 58954.81494338 0 11360.20526393 0 35988.37735805 0 -24678.66189529 0 3295.25673393 0 267
0.01550000 0.01550050 51127.34563608 0 2460.15985146 0 41374.50976608 0 7602.10320794 0 -3464.86260550 0 238
0.01650000 0.01653350 59301.71087995 0 -6561.47075985 0 41276.85186118 0 14154.52787841 0 -21771.06939791 0 315
0.01750000 0.01747870 54880.19941012 0 -5452.07917465 0 38335.37804985 0 11748.73314182 0 -3700.48167764 0 297
0.01850000 0.01844180 67119.10437166 0 1180.35411497 0 36840.50347609 0 8043.31320731 0 -5621.81791412 0 388
0.01950000 0.01947590 64115.18264836 0 -928.24060054 0 26184.05517763 0 8418.05604080 0 -7424.45882854 0 399
0.02050000 0.02045430 68464.94545336 0 -7183.35895562 0 27935.58624069 0 8357.72294286 0 690.69494388 0 462
0.02150000 0.02154770 73283.28904469 0 -3318.12108468 0 17369.37738951 0 7340.15414738 0 -14069.16025406 0 571
0.02250000 0.02255340 76380.88263596 0 1129.31069755 0 21758.55767087 0 2695.52426012 0 -14028.74626847 0 510
0.02350000 0.02348930 68588.51259834 0 3929.80059696 0 13893.44245919 0 -3126.20447860 0 -8507.53149766 0 555
0.02450000 0.02439640 71224.27952142 0 3021.22776699 0 13839.07734433 0 -1389.80928356 0 -6217.98509933 0 592
0.02550000 0.02547300 66953.01949938 0 1617.38984788 0 17222.55836241 0 -2107.47308901 0 -13522.40885452 0 837
0.02650000 0.02652900 66694.92360785 0 3804.88262835 0 16377.51853225 0 52.42380415 0 -7249.39430084 0 723
0.02750000 0.02749970 62021.40602515 0 1823.22436626 0 18739.02396957 0 -378.79308991 0 -7164.23705066 0 826
0.02850000 0.02848090 62359.55482511 0 717.31613445 0 18128.82814882 0 2518.80995602 0 -8977.44096296 0 831
0.02950000 0.02946900 63324.50793306 0 1226.64750503 0 23482.62936838 0 1186.14494085 0 -10613.52089514 0 996
0.03050000 0.03053250 63503.76887187 0 -329.55778313 0 19433.81235194 0 -2332.50701862 0 -6656.53774075 0 1041
0.03150000 0.03150510 61390.72640348 0 1283.43745903 0 24249.60930857 0 -559.21330113 0 776.31944617 0 1036
0.03250000 0.03246190 60316.82161932 0 4448.94869073 0 21921.32084570 0 477.73870618 0 -5680.51230798 0 1059
0.03350000 0.03345080 60533.61773927 0 1493.31337597 0 24206.42724177 0 935.33463906 0 3604.05280079 0 1302
0.03450000 0.03451200 56534.07256828 0 1796.46255718 0 20946.95626166 0 6683.94174467 0 -545.12930396 0 1339
0.03550000 0.03553350 53996.29571984 0 2865.71696491 0 21049.15381974 0 5071.25763484 0 5176.16791249 0 1365
0.03650000 0.03647120 50308.76866224 0 2445.35615317 0 20406.84825701 0 7682.39970752 0 2020.78785800 0 1308
0.03750000 0.03744890 50356.04748922 0 2538.83979162 0 18854.61904068 0 3596.91115129 0 3322.38392973 0 1579
0.03850000 0.03847530 45506.47994190 0 2716.91599167 0 16431.77292386 0 2477.20015935 0 -954.84628985 0 1662
0.03950000 0.03950240 43682.31442803 0 1432.53738504 0 12385.28109564 0 -1789.78594531 0 -1305.51567472 0 1683
0.04050000 0.04050350 44607.73933637 0 -425.67442042 0 15786.58855668 0 1225.47383860 0 -2775.27821579 0 1822
0.04150000 0.04152450 43710.43813307 0 -2002.77318552 0 12721.54760038 0 -2844.26987174 0 -4956.54834972 0 1887
0.04250000 0.04250150 46411.86394232 0 512.41833475 0 16987.27146002 0 -935.55054939 0 -8257.95022392 0 1920
0.04350000 0.04349210 43299.65488229 0 2474.58709069 0 17655.04336983 0 -473.49689854 0 -1449.13479994 0 2005
0.04450000 0.04448520 43396.09483147 0 2607.12281877 0 20648.22493805 0 -13.75481695 0 1137.95818324 0 2151
0.04550000 0.04548030 42641.40517183 0 825.30230394 0 20280.40230758 0 1796.79472692 0 5894.50712975 0 2274
0.04650000 0.04648670 42148.68671740 0 1255.50198351 0 22207.54044226 0 5525.51083285 0 7372.19745540 0 2311
0.04750000 0.04749250 40980.55644903 0 1020.84731086 0 20314.17289827 0 3740.77386765 0 10200.66711962 0 2568
0.04850000 0.04851840 39891.59330312 0 1386.46544147 0 20815.85993581 0 3937.17476529 0 9072.92869219 0 2493
0.04950000 0.04949480 39789.17429854 0 -348.20025643 0 18125.83862112 0 341.78938036 0 4110.35699778 0 2644
0.05050000 0.05050630 38846.91945648 0 194.08678175 0 18528.20690503 0 -171.58560325 0 2947.12069698 0 2829
0.05150000 0.05149060 38240.59894941 0 1724.62531375 0 16387.48362459 0 -1397.03951167 0 -1570.60927552 0 2784
0.05250000 0.05249300 36961.19181661 0 2529.67190667 0 16188.40322435 0 36.23772611 0 -1819.02795516 0 3055
0.05350000 0.05348950 35038.37188861 0 1091.62936173 0 14718.33065818 0 -483.68343738 0 -1198.53487232 0 3009
0.05450000 0.05448610 33853.96530276 0 493.32189613 0 12643.81988016 0 2633.87355553 0 -3675.35857263 0 3336
0.05550000 0.05550870 34172.62681104 0 12.39812499 0 12008.71132856 0 5652.10072250 0 61.18710635 0 3349
0.05650000 0.05647670 33511.71974261 0 -680.77414085 0 10352.52405451 0 4359.67253572 0 -61.21080113 0 3324
0.05750000 0.05747970 33962.58480923 0 -949.98775372 0 8374.90719098 0 3410.98467293 0 68.00500108 0 3639
0.05850000 0.05849280 35300.01092407 0 216.81383567 0 7567.26967406 0 -653.25387751 0 366.95456021 0 3846
0.05950000 0.05951020 33764.94381121 0 755.92754555 0 8877.54644844 0 -1604.11413043 0 960.73123049 0 3787
0.06050000 0.06049470 33111.34447717 0 1787.18394898 0 8053.28937197 0 -1425.69468830 0 315.91446449 0 3930
0.06150000 0.06148310 31905.34685792 0 1402.73068662 0 11109.19566029 0 -1822.36072493 0 -2213.51274379 0 4083
0.06250000 0.06249100 31739.70487864 0 490.31354548 0 11630.14854301 0 -1245.44831258 0 -2441.12652509 0 4303
0.06350000 0.06350600 31455.03540755 0 339.47747894 0 10556.43198837 0 -768.86444987 0 -3541.16199582 0 4470
0.06450000 0.06451750 30582.09331885 0 429.00276126 0 11955.56416943 0 32.67653428 0 -2443.75066607 0 4479
0.06550000 0.06550280 30532.71075015 0 1043.25880353 0 12232.15084340 0 921.19528026 0 -2848.64344004 0 4636
0.06650000 0.06648880 30036.00625879 0 560.89850897 0 10636.11951009 0 2681.24096111 0 -2606.17059884 0 4653
0.06750000 0.06749660 28774.86846195 0 400.94881187 0 10295.11405033 0 1495.77143208 0 -441.70271783 0 5220
0.06850000 0.06852730 29355.83334518 0 738.59824998 0 10198.40836536 0 1119.05772477 0 -1517.08565735 0 5029
0.06950000 0.06949320 27656.45293201 0 854.87537630 0 9813.52328234 0 955.16960174 0 818.60133296 0 5040
0.07050000 0.07048030 28235.20335029 0 -161.04032109 0 10284.75035430 0 -1552.29565027 0 -737.76893285 0 5475
0.07150000 0.07148790 28336.18295263 0 285.38695774 0 12170.25654766 0 -1928.79898341 0 127.19665305 0 5509
0.07250000 0.07249820 28127.69107630 0 733.09087562 0 11873.51824252 0 -717.92400508 0 -313.31136093 0 5916
0.07350000 0.07351270 28052.62071403 0 -112.70962326 0 12116.99866529 0 1359.85864493 0 546.52109519 0 5721
0.07450000 0.07449140 28343.49068701 0 -423.55407022 0 12334.79129447 0 1450.31953870 0 1497.11118338 0 6028
0.07550000 0.07549160 28309.16648007 0 -9.30628901 0 10517.40204339 0 1755.43959372 0 -908.65587240 0 6183
0.07650000 0.07648840 28214.71954937 0 -123.87384837 0 10133.30309543 0 2068.47636100 0 -630.88003075 0 6330
0.07750000 0.07749960 27638.29431931 0 613.84083009 0 9540.87835600 0 1051.76345622 0 279.91390758 0 6583
0.07850000 0.07848650 27741.15621688 0 904.34984528 0 9979.04346605 0 -125.96430330 0 -433.91665902 0 6549
0.07950000 0.07947320 26428.64283288 0 1191.04998074 0 9862.41866874 0 387.63987744 0 615.47178353 0 6828
0.08050000 0.08048110 25371.56798244 0 1151.08996047 0 9861.55502740 0 -366.34890404 0 1204.60250632 0 7147
0.08150000 0.08149960 24558.30572451 0 1032.37249377 0 11112.62808099 0 533.84771220 0 3328.05296004 0 7386
0.08250000 0.08250610 24255.47764072 0 153.68719018 0 10230.32987781 0 1880.34649000 0 2975.06724482 0 7227
0.08350000 0.08350160 23781.58213848 0 38.28400246 0 10879.09060591 0 1372.66932474 0 3952.32170564 0 7798
0.08450000 0.08449610 23606.52868310 0 387.74949345 0 9432.79032113 0 1890.13442514 0 3375.80789698 0 7371
0.08550000 0.08548940 23958.96078208 0 79.92081560 0 9554.82948528 0 -39.36455064 0 3309.65075619 0 8256
0.08650000 0.08650700 23061.65957877 0 565.32079550 0 8311.42955279 0 -499.48475213 0 3586.18206854 0 8037
0.08750000 0.08749060 23372.57045968 0 -154.94389905 0 9046.38832960 0 -169.30138264 0 1857.18318648 0 8155
0.08850000 0.08849210 22340.29761684 0 795.46238855 0 7907.56650503 0 394.04300288 0 620.54623000 0 8718
0.08950000 0.08949900 22496.63884328 0 492.43389568 0 6964.49231093 0 1014.30688859 0 685.00266170 0 8571
0.09050000 0.09049190 21246.57337125 0 100.07565775 0 6798.21920913 0 1367.15530698 0 -607.57832317 0 8932
0.09150000 0.09150830 21194.42272136 0 811.47739917 0 5827.15417788 0 649.89674863 0 -1185.48060136 0 9285
0.09250000 0.09250820 20245.74593089 0 981.25267731 0 5992.18717930 0 1062.44049904 0 -1090.69928645 0 9204
0.09350000 0.09350330 19093.89198001 0 937.55464018 0 5661.39040302 0 7.10150126 0 -162.18852118 0 9349
0.09450000 0.09448040 18878.86743203 0 554.02148802 0 6112.49906078 0 273.34137557 0 35.82007802 0 9564
0.09550000 0.09549270 18385.48463811 0 48.60551294 0 5379.93190613 0 474.31846505 0 -757.68250904 0 10155
0.09650000 0.09649430 18128.93887207 0 525.34195228 0 6509.70764133 0 -584.26000710 0 -21.74460654 0 9913
0.09750000 0.09749140 18021.86949107 0 575.77528459 0 6071.70861615 0 -646.21852232 0 -1062.83135211 0 10476
0.09850000 0.09850240 17205.72842869 0 633.07124383 0 6559.31165651 0 -343.32068288 0 1085.97804714 0 10575
0.09950000 0.09950330 16804.68882376 0 490.65568032 0 6053.71608832 0 43.65031541 0 151.84696980 0 10882
0.10050000 0.10051200 16792.17709671 0 59.64772103 0 6791.05541497 0 430.48091662 0 774.86122099 0 10875
0.10150000 0.10150300 16478.27668810 0 -59.16895371 0 6671.82862132 0 661.01004105 0 168.36577119 0 11118
0.10250000 0.10250800 16737.14764236 0 -5.14415782 0 6439.53124663 0 765.91035361 0 626.27172916 0 11575
0.10350000 0.10349800 16556.89019431 0 -140.63070475 0 6264.05704290 0 546.96177372 0 815.57526658 0 11364
0.10450000 0.10450100 16894.92827103 0 -1.18577955 0 6133.10465727 0 651.38486908 0 1286.27197418 0 12093
0.10550000 0.10551000 16597.41490315 0 313.09323613 0 6014.13252709 0 -56.13004344 0 1776.69845737 0 12067
0.10650000 0.10649700 16650.89423202 0 494.71700906 0 5832.60176169 0 -120.74923831 0 1118.93592920 0 12054
0.10750000 0.10749900 15977.69688305 0 399.29017761 0 6432.93214103 0 -70.67520293 0 1985.38963556 0 12807
0.10850000 0.10850100 15649.40245218 0 579.36161060 0 6419.80036380 0 409.35381364 0 2249.82996920 0 12736
0.10950000 0.10950300 15208.94537089 0 400.96763482 0 6252.67469299 0 538.18031290 0 2570.76130407 0 12933
0.11050000 0.11050200 15040.09241741 0 112.84581285 0 6277.80887033 0 784.48639296 0 2789.76081666 0 13428
0.11150000 0.11150900 14907.00307309 0 78.89585050 0 6009.69252484 0 826.13715723 0 2510.18461499 0 13453
0.11250000 0.11250000 14789.19353702 0 113.91761390 0 5942.82675526 0 319.02578777 0 2550.13356293 0 13668
0.11350000 0.11349100 14762.28778771 0 38.04639037 0 5269.66262326 0 137.96891787 0 1806.57158974 0 13791
0.11450000 0.11448600 14614.25080488 0 -153.51556915 0 5042.24814381 0 124.97775916 0 1631.36312180 0 14205
0.11550000 0.11549300 14661.86180160 0 76.82886890 0 4959.56002207 0 -95.43779305 0 187.64379593 0 14776
0.11650000 0.11649800 14898.36665973 0 104.72459477 0 4888.06602071 0 -262.58018307 0 -252.74906587 0 14553
0.11750000 0.11747300 14632.52014083 0 160.27190175 0 4489.37374864 0 -482.45551656 0 -350.97498103 0 14568
0.11850000 0.11849100 14309.65114912 0 286.36907295 0 4364.95403466 0 -37.99091802 0 -637.55885708 0 16015
0.11950000 0.11950300 14389.48261106 0 116.40888698 0 3950.12938533 0 603.88681007 0 -393.44177564 0 15270
0.12050000 0.12050700 14239.23116328 0 -67.59111758 0 3926.79999693 0 714.81932520 0 -1085.72006197 0 15999
0.12150000 0.12150000 14348.40428599 0 -80.48827225 0 3552.93187711 0 793.14937990 0 -1279.91645974 0 15670
0.12250000 0.12250700 14266.13691258 0 153.71487099 0 3379.94894646 0 202.58921997 0 -2063.18378973 0 16887
0.12350000 0.12352200 14169.69696341 0 178.79368671 0 3352.37885767 0 -984.19459401 0 -1398.53427552 0 16407
0.12450000 0.12449800 13894.43896842 0 237.53569157 0 3440.68064810 0 -803.37577910 0 -1538.52167820 0 16306
0.12550000 0.12549900 14057.75575950 0 411.10102649 0 4145.89916044 0 -626.89842274 0 -1083.12138734 0 17523
0.12650000 0.12650100 13566.80887704 0 195.38888714 0 4553.48250934 0 123.30030195 0 -1068.13610293 0 17154
0.12750000 0.12750600 13658.26628004 0 293.45646806 0 4656.54370876 0 607.52960494 0 -1108.74939036 0 18007
0.12850000 0.12850300 13136.75978108 0 342.93536598 0 4469.00067098 0 650.75042487 0 -112.55461071 0 17496
0.12950000 0.12949900 12941.11180154 0 395.81457485 0 4706.50203834 0 868.21420600 0 240.30266554 0 18405
0.13050000 0.13049000 12739.81693633 0 220.64375282 0 4432.18519096 0 808.56869944 0 1086.41429674 0 18100
0.13150000 0.13148800 12412.29756820 0 -45.42022653 0 4210.05221044 0 828.76461991 0 1023.16364121 0 19059
0.13250000 0.13249300 12530.66072051 0 47.93342282 0 4193.63195274 0 208.54280903 0 1051.14451326 0 18957
0.13350000 0.13349100 12417.83373061 0 68.95401004 0 3596.36860737 0 -32.48509379 0 1235.58287116 0 19468
0.13450000 0.13450700 12380.63071922 0 114.80561435 0 3664.39697106 0 -296.21015525 0 801.72046654 0 19953
0.13550000 0.13551000 12233.25807588 0 145.56563993 0 3938.61416751 0 -571.10387075 0 333.41870280 0 19956
0.13650000 0.13649900 12180.00019350 0 498.71965448 0 4078.11438790 0 -140.40925826 0 71.00726195 0 19723
0.13750000 0.13749600 11791.91520861 0 449.46441753 0 3754.22674231 0 -260.55726933 0 108.43969192 0 20946
0.13850000 0.13851100 11339.16784678 0 178.06734220 0 3902.14192956 0 480.70498200 0 324.85315232 0 20955
0.13950000 0.13949800 11607.11810739 0 -196.10858826 0 3543.81935378 0 535.10442107 0 -354.02762098 0 20506
0.14050000 0.14048300 11421.43522018 0 -67.33246807 0 3253.48085239 0 523.96234060 0 -534.48879981 0 21447
0.14150000 0.14148400 11516.32504387 0 121.42465012 0 2970.87083372 0 194.20968455 0 -546.91748442 0 21771
0.14250000 0.14249400 11320.01272484 0 146.06610901 0 2836.33101484 0 7.16376094 0 -207.64041456 0 22470
0.14350000 0.14350900 11304.51147009 0 153.38602295 0 2817.45270103 0 155.69903160 0 -280.09549370 0 22519
0.14450000 0.14449900 11130.23307745 0 165.28766489 0 3059.30549204 0 -91.39772317 0 -273.35244789 0 22218
0.14550000 0.14550500 10912.18578479 0 352.87056304 0 3207.67464461 0 113.76481581 0 -602.49058991 0 23559
0.14650000 0.14650700 10641.07991161 0 265.30176051 0 3079.20245974 0 -149.36676904 0 -227.48977126 0 23044
0.14750000 0.14750500 10359.64355937 0 171.98974311 0 3220.39674583 0 -135.06796877 0 -118.07637910 0 23649
0.14850000 0.14849900 10429.25526550 0 97.49126641 0 3339.23600811 0 160.41141304 0 225.35170534 0 23640
0.14950000 0.14949500 10480.77479289 0 -5.09760977 0 3566.11901597 0 -42.62202860 0 -493.81240012 0 24457
0.15050000 0.15050000 10278.60521402 0 98.36609080 0 3469.39118635 0 -94.27807775 0 -113.47029197 0 24591
0.15150000 0.15149900 10387.21364817 0 284.56317677 0 3382.71702767 0 -286.24284844 0 -506.88660127 0 25020
0.15250000 0.15250500 10129.19526292 0 85.12979081 0 3298.72237160 0 16.71832469 0 -130.53274452 0 25297
0.15350000 0.15350100 10129.40563709 0 -28.48056607 0 3275.90231014 0 521.58400523 0 10.81271202 0 25452
0.15450000 0.15450400 10037.97037874 0 89.32365529 0 3049.37361668 0 415.76579694 0 -442.84538175 0 26061
0.15550000 0.15549900 9875.36221645 0 266.35363137 0 2656.35037492 0 562.35119798 0 -410.23295623 0 26128
0.15650000 0.15649500 9663.12789433 0 277.43702852 0 2740.99829816 0 155.08562480 0 -388.55112977 0 26331
0.15750000 0.15749700 9315.73370314 0 266.54407536 0 2499.56625548 0 -92.65819663 0 -434.12038979 0 27345
0.15850000 0.15849900 9246.98563834 0 89.54377310 0 2840.52742595 0 -156.87712696 0 -472.20143654 0 26980
0.15950000 0.15949700 9167.90709449 0 58.16524746 0 2799.12800345 0 -414.36736232 0 -693.98231712 0 27777
0.16050000 0.16050000 9072.87333057 0 193.45012307 0 2939.19291241 0 -257.39058443 0 -521.52864361 0 28224
0.16150000 0.16150500 9023.98901650 0 160.40698411 0 3156.80838439 0 52.28606443 0 -645.50657183 0 28075
0.16250000 0.16249700 8881.75393188 0 79.74653721 0 3168.70006125 0 123.91924491 0 -444.64242007 0 28590
0.16350000 0.16349900 8924.43774405 0 30.63767639 0 3041.81121883 0 184.93882698 0 -526.77138941 0 29163
0.16450000 0.16449100 8799.87408984 0 110.25632825 0 3172.54215796 0 313.94248344 0 -139.25441478 0 28996
0.16550000 0.16550500 8925.94358023 0 57.11160503 0 3025.09200835 0 283.87558540 0 243.13385900 0 30777
0.16650000 0.16650700 8756.06090053 0 49.78892301 0 3152.93307071 0 341.20365438 0 288.04542292 0 29211
0.16750000 0.16749900 8841.39530791 0 56.70746517 0 3080.76365754 0 116.81081237 0 92.12927167 0 30922
0.16850000 0.16850800 8625.48497395 0 158.59665900 0 3115.98472279 0 -114.89972911 0 243.31433789 0 30867
0.16950000 0.16949900 8655.76778233 0 250.10499470 0 3232.49879685 0 -204.78929092 0 153.26754907 0 30852
0.17050000 0.17049200 8317.99544141 0 222.26031225 0 3216.18926240 0 -327.50940304 0 578.46253783 0 31257
0.17150000 0.17149500 8375.64903674 0 82.53000895 0 3286.44316337 0 150.26805628 0 498.01324016 0 32608
0.17250000 0.17250900 8233.80148349 0 -29.90789946 0 3078.31667376 0 443.86514286 0 536.63018743 0 32361
0.17350000 0.17350400 8262.31271990 0 -25.66055566 0 2760.31950496 0 410.05579903 0 377.21085469 0 32508
0.17450000 0.17449800 8287.33617399 0 -50.22240453 0 2542.94762412 0 672.88621665 0 332.99352553 0 32791
0.17550000 0.17549800 8211.64576153 0 145.67525594 0 2309.28835348 0 277.36838010 0 486.88333925 0 33633
0.17650000 0.17650100 8036.41514895 0 193.47005325 0 2097.31976715 0 299.51967313 0 563.47171725 0 33984
0.17750000 0.17750300 7880.79362362 0 -27.94377976 0 1817.10137064 0 555.76095025 0 779.02109343 0 34069
0.17850000 0.17849800 8056.17924875 0 -167.95830964 0 1609.58385889 0 401.00860242 0 591.64414052 0 34536
