### header ###
fiducial parameters:
Omega_m = 0.31
Omega_nu = 0
Omega_de = 0.69
Omega_k = 0
H_0 = 100
w_de = -1
zeff = 0
beta = 0
fgrowth = 0
b_1 = 2
gamma = 0.55
Lx = 3500 Ly = 3500 Lz = 3500
nx = 700 ny = 700 nz = 700
xoffset = -685.467585 yoffset = -31.7331281 zoffset = 572.489161
bins = 400 dk = 0.001
kx_ny = 0.628318531 ky_ny = 0.628318531 kz_ny = 0.628318531
############################
A(data) = 8.02395966 (not used)
A(ran) = 8.01639726 (used)
Ngal = 476403
weighted Ngal = 0
Nran = 23820508
weighted Nran = 0
SN(data) = 3494.6267
SN(ran) = 69.8257274
SN(data+ran) = 3564.45243
############################
13 columns: k_central k_mean P_0(k) sigma^{lin}_{P_0(k)} P^img_1(k) sigma^{lin}_{P_1(k)} P_2(k) sigma^{lin}_{P_2(k)} P^img_3(k) sigma^{lin}_{P_3(k)} P_4(k) sigma^{lin}_{P_4(k)} N_modes
### header ###
0.00050000 0 0 0 0 0 0 0 0 0 0 0 0
0.00150000 0.00179520 8726.46457629 0 250.42719935 0 -8250.78642976 0 14682.67777226 0 -18957.48093825 0 3
0.00250000 0.00253879 16998.56523133 0 2404.56570854 0 5869.36188009 0 4627.20204799 0 -7431.05793414 0 6
0.00350000 0.00331552 26183.94445438 0 -19754.68832519 0 -4470.84974922 0 -13918.57663653 0 -7246.29404989 0 7
0.00450000 0.00420575 35940.21274509 0 -27160.52350339 0 4350.74824191 0 3384.90934798 0 -6924.04510837 0 24
0.00550000 0.00557378 60628.95045596 0 135.84524597 0 18937.32930708 0 -13383.22973155 0 -6894.49307343 0 45
0.00650000 0.00659388 56637.04518909 0 10753.99548011 0 9263.47233000 0 38175.49367947 0 30074.20577941 0 40
0.00750000 0.00754703 47076.75704768 0 1808.23243846 0 -10382.41933152 0 -2852.69591093 0 2444.45929486 0 57
0.00850000 0.00846663 55439.24109021 0 -12300.13491779 0 -16516.03331573 0 33121.42029275 0 15170.19223403 0 75
0.00950000 0.00948925 70362.18831104 0 -16781.54766488 0 -14798.71573636 0 -2670.09113002 0 -29050.79079643 0 112
0.01050000 0.01054430 70864.76113456 0 938.68623178 0 -29258.06471703 0 -10549.48964071 0 3379.76071694 0 105
0.01150000 0.01145670 79192.14590741 0 -991.01071717 0 -17868.29634584 0 -30644.09833783 0 -19598.56854524 0 144
0.01250000 0.01249090 65804.15507619 0 -2413.35713445 0 -15701.66382532 0 -10216.00228950 0 -10134.24424304 0 169
0.01350000 0.01339930 79068.46803919 0 2109.17822703 0 -3748.52449503 0 -17109.28847952 0 -2819.46786414 0 180
0.01450000 0.01448870 83396.19691780 0 -16519.35501318 0 -5026.58080419 0 -2798.22007282 0 -40495.47789872 0 267
0.01550000 0.01550050 73323.48158378 0 -8303.87822727 0 4891.02233144 0 -85.73677566 0 -6520.01597573 0 238
0.01650000 0.01653350 97852.44564752 0 4607.99156443 0 -684.42690080 0 -21234.39381395 0 -34714.50638766 0 315
0.01750000 0.01747870 80319.97291344 0 4249.66898864 0 9942.11726278 0 -19192.21422440 0 -15572.44979469 0 297
0.01850000 0.01844180 85803.98467287 0 10800.72069084 0 1755.56138930 0 -18637.60147423 0 -7367.93461035 0 388
0.01950000 0.01947590 78942.90787574 0 3896.31788671 0 13918.35519003 0 -17151.91693007 0 -26115.84965675 0 399
0.02050000 0.02045430 75221.72095069 0 6839.47469140 0 25174.03770767 0 -8407.50411524 0 -17629.46629950 0 462
0.02150000 0.02154770 71426.12800286 0 5630.41003818 0 27987.73689059 0 -507.27856157 0 -24970.52837751 0 571
0.02250000 0.02255340 69354.05313630 0 1550.18083623 0 30865.76628070 0 11454.65219463 0 -21821.44847584 0 510
0.02350000 0.02348930 69425.46963138 0 -3023.19864081 0 21586.49374318 0 15215.81021228 0 -20865.35322775 0 555
0.02450000 0.02439640 71727.62740767 0 -2495.56914623 0 25754.11680492 0 5801.41102268 0 -25957.62613509 0 592
0.02550000 0.02547300 70205.73636135 0 2180.39542026 0 20277.74494962 0 2909.84017931 0 -17839.50830131 0 837
0.02650000 0.02652900 70658.04083019 0 3338.08448633 0 25835.27694584 0 -6522.81727391 0 -3355.52339791 0 723
0.02750000 0.02749970 69097.50737025 0 1997.21487846 0 24896.12235473 0 -1519.28904999 0 -8606.14162249 0 826
0.02850000 0.02848090 68846.71921311 0 3542.72319362 0 31289.94704450 0 -2931.99590128 0 799.65769242 0 831
0.02950000 0.02946900 62625.06917426 0 5114.92688392 0 29159.52102615 0 9633.46513614 0 6026.27886742 0 996
0.03050000 0.03053250 62536.37985247 0 -1762.92448530 0 20726.17410478 0 8105.71682999 0 -910.73193331 0 1041
0.03150000 0.03150510 61533.67011689 0 -1935.87419897 0 22313.05969778 0 7585.93761370 0 -5346.80351027 0 1036
0.03250000 0.03246190 62255.14280207 0 3230.39505514 0 27855.64405550 0 272.09906072 0 -7338.28292448 0 1059
0.03350000 0.03345080 59573.75790074 0 4873.79379402 0 19880.24848863 0 -4307.66582604 0 360.73302089 0 1302
0.03450000 0.03451200 56191.60556164 0 2773.47342685 0 19925.20212739 0 2199.82735032 0 7506.28330895 0 1339
0.03550000 0.03553350 55049.49525659 0 -653.68791264 0 24667.14667748 0 3958.35612267 0 1779.46653858 0 1365
0.03650000 0.03647120 53433.15727957 0 1902.17004222 0 20774.89233398 0 10322.68413912 0 -1538.51060588 0 1308
0.03750000 0.03744890 53393.51835672 0 1979.96419640 0 20474.94305464 0 5384.37190838 0 -2901.62451430 0 1579
0.03850000 0.03847530 49312.03798207 0 2107.87169270 0 16348.28759473 0 -798.32126282 0 -548.41335550 0 1662
0.03950000 0.03950240 47689.72094964 0 2797.11284034 0 19661.57007346 0 -2726.48248032 0 673.73767842 0 1683
0.04050000 0.04050350 46740.60126619 0 1591.18165504 0 18523.44580535 0 2493.70899566 0 1218.36540607 0 1822
0.04150000 0.04152450 44668.85856937 0 437.79640163 0 14000.51184019 0 -46.66674886 0 -487.33730457 0 1887
0.04250000 0.04250150 44582.60515903 0 1262.36682490 0 14199.81368692 0 6793.86778547 0 277.46249486 0 1920
0.04350000 0.04349210 44448.29785898 0 255.04435880 0 9641.33755908 0 4365.68480809 0 1412.50754944 0 2005
0.04450000 0.04448520 43226.24536875 0 1059.20295127 0 9110.87354935 0 2458.04503741 0 489.35578938 0 2151
0.04550000 0.04548030 42987.41532241 0 530.49722671 0 11417.55990649 0 1897.13213443 0 1719.62062293 0 2274
0.04650000 0.04648670 40978.00981432 0 1930.43768748 0 14749.99750716 0 -4662.38989626 0 2992.45079479 0 2311
0.04750000 0.04749250 39257.48126075 0 2556.02403973 0 16321.82473841 0 -3738.30473922 0 1687.84305070 0 2568
0.04850000 0.04851840 39724.73336810 0 1755.92677601 0 19534.23833805 0 -1211.75522815 0 7989.65672124 0 2493
0.04950000 0.04949480 37136.68816499 0 1794.80170845 0 21333.04822809 0 728.60436960 0 1551.57594916 0 2644
0.05050000 0.05050630 37245.41839471 0 -644.27865101 0 18024.52684903 0 4342.27791343 0 2918.63160522 0 2829
0.05150000 0.05149060 37166.47271875 0 -370.16442717 0 18562.64183521 0 1498.92704465 0 -1642.22507245 0 2784
0.05250000 0.05249300 37023.75045184 0 1504.00924174 0 18476.83131787 0 35.25882188 0 -843.76872727 0 3055
0.05350000 0.05348950 36216.79941905 0 1069.20679674 0 16379.40082747 0 1895.58200895 0 -332.48198412 0 3009
0.05450000 0.05448610 35410.06983277 0 146.96075285 0 15791.90327259 0 1797.64729593 0 592.12246495 0 3336
0.05550000 0.05550870 35825.94635296 0 -773.73405833 0 14992.81359043 0 412.83052363 0 -1219.69408505 0 3349
0.05650000 0.05647670 35816.64560011 0 140.02172689 0 13369.50004877 0 3769.04151292 0 -2604.63154569 0 3324
0.05750000 0.05747970 36014.72949111 0 236.93003540 0 12475.29909642 0 -281.90803328 0 -2303.37573202 0 3639
0.05850000 0.05849280 34756.80266847 0 1030.78250792 0 11046.33807230 0 812.97216302 0 -657.89982500 0 3846
0.05950000 0.05951020 34445.11672482 0 549.38772008 0 10670.04511334 0 1836.48901140 0 -434.28315297 0 3787
0.06050000 0.06049470 33798.82512516 0 1677.96653697 0 10767.06082340 0 107.86780634 0 -2947.18713093 0 3930
0.06150000 0.06148310 32837.19371466 0 505.79487004 0 9745.53920795 0 1159.22811921 0 -2066.41690858 0 4083
0.06250000 0.06249100 31891.50645190 0 -175.41994933 0 10337.46569276 0 -1155.36387785 0 -2284.36455031 0 4303
0.06350000 0.06350600 32913.37130941 0 527.06148432 0 10423.18763150 0 -1916.86301725 0 -484.04882410 0 4470
0.06450000 0.06451750 32566.03247985 0 -370.98710091 0 12396.35342046 0 971.70168992 0 1344.86671712 0 4479
0.06550000 0.06550280 33506.84791969 0 -129.99020060 0 13139.97075528 0 977.19577750 0 1158.13195906 0 4636
0.06650000 0.06648880 33398.11768997 0 347.30782705 0 13725.69673819 0 -56.60083869 0 2035.90158138 0 4653
0.06750000 0.06749660 32564.92524737 0 1222.25179208 0 13291.44015880 0 991.42150042 0 1228.85089767 0 5220
0.06850000 0.06852730 31962.36933074 0 1121.67079343 0 15069.65552467 0 -1438.32821092 0 1880.12504351 0 5029
0.06950000 0.06949320 30629.92576206 0 1648.60273155 0 15004.21808500 0 773.06971884 0 1410.23772285 0 5040
0.07050000 0.07048030 29140.03373447 0 1538.36666565 0 14582.47323265 0 161.29941349 0 2271.59815979 0 5475
0.07150000 0.07148790 27950.09098621 0 566.74801817 0 12734.39149717 0 1997.63562681 0 1394.03891164 0 5509
0.07250000 0.07249820 27943.11542157 0 -52.99447177 0 12810.56909193 0 2481.02011141 0 -1336.55140118 0 5916
0.07350000 0.07351270 27200.93748898 0 1077.01278574 0 10806.44508278 0 1268.91056887 0 -1983.58484661 0 5721
0.07450000 0.07449140 25631.76761568 0 1454.52702213 0 11531.82629862 0 567.90175441 0 369.43697543 0 6028
0.07550000 0.07549160 25391.83033686 0 268.94787708 0 10141.91736414 0 1526.60785670 0 1334.90162479 0 6183
0.07650000 0.07648840 24862.57321053 0 -829.36252545 0 9322.73141243 0 1943.62482634 0 2331.61016031 0 6330
0.07750000 0.07749960 25804.82805259 0 -663.68843642 0 8953.45830740 0 2452.91855102 0 571.33196064 0 6583
0.07850000 0.07848650 26231.77689760 0 -371.57614859 0 6951.42696764 0 2856.56015229 0 800.02529361 0 6549
0.07950000 0.07947320 25886.32036326 0 437.78532931 0 6968.96553016 0 -602.34554246 0 810.39120410 0 6828
0.08050000 0.08048110 25446.52762146 0 1249.96582110 0 5340.59193605 0 -583.22253026 0 581.79198590 0 7147
0.08150000 0.08149960 24478.36353932 0 770.44447062 0 7196.98898747 0 -760.32436574 0 623.76606205 0 7386
0.08250000 0.08250610 23476.20741998 0 1050.40156027 0 6938.81558967 0 -389.22100542 0 -460.12374463 0 7227
0.08350000 0.08350160 23508.31716196 0 -57.94335807 0 7108.44360590 0 549.54051817 0 -1034.10420537 0 7798
0.08450000 0.08449610 23122.11447228 0 12.72475857 0 7574.11237079 0 540.47560584 0 81.86566946 0 7371
0.08550000 0.08548940 23522.48973772 0 636.44165951 0 7719.19304289 0 -874.17554569 0 247.33137733 0 8256
0.08650000 0.08650700 22946.61812391 0 465.08193168 0 8031.65404927 0 438.91249197 0 698.31823952 0 8037
0.08750000 0.08749060 22601.05086632 0 202.93689097 0 7704.62186343 0 212.94405814 0 1812.42884956 0 8155
0.08850000 0.08849210 22195.58233146 0 689.80805067 0 7931.28342479 0 269.75062063 0 -268.65778217 0 8718
0.08950000 0.08949900 21603.32367691 0 876.30253928 0 7508.19882115 0 506.23997750 0 -229.53261519 0 8571
0.09050000 0.09049190 20803.68037851 0 545.55780293 0 7087.27332084 0 164.54139020 0 -268.10638039 0 8932
0.09150000 0.09150830 20761.38409770 0 116.13318609 0 6592.66149887 0 -269.82369797 0 -1305.50460239 0 9285
0.09250000 0.09250820 20187.17333260 0 499.42496157 0 7916.54616046 0 -861.59406300 0 -1924.11539001 0 9204
0.09350000 0.09350330 19939.92831940 0 893.35945567 0 7932.34636798 0 -954.17752143 0 -1876.13900657 0 9349
0.09450000 0.09448040 18794.16414717 0 1143.18432055 0 8754.09002672 0 -484.74748779 0 -489.59162990 0 9564
0.09550000 0.09549270 18665.72517927 0 400.77054744 0 8759.88085260 0 117.05218905 0 -358.61599239 0 10155
0.09650000 0.09649430 18515.58445473 0 -225.51114681 0 9192.28835374 0 1445.55843902 0 -122.92052121 0 9913
0.09750000 0.09749140 18641.47678792 0 -122.69907471 0 9100.29947915 0 1034.51055969 0 -280.46530935 0 10476
0.09850000 0.09850240 18394.78539096 0 106.09080893 0 7802.42370855 0 1495.66070883 0 -162.45314974 0 10575
0.09950000 0.09950330 18136.57877619 0 398.94915001 0 7433.37205002 0 1235.36142467 0 703.49676584 0 10882
0.10050000 0.10051200 17786.80403517 0 409.95282641 0 6475.23949417 0 927.37695921 0 210.59561805 0 10875
0.10150000 0.10150300 17565.80043179 0 441.54438358 0 6613.24495071 0 411.28593432 0 1230.09099805 0 11118
0.10250000 0.10250800 17098.10543145 0 233.49429301 0 5853.18521353 0 882.11550981 0 1099.99893206 0 11575
0.10350000 0.10349800 16876.21604208 0 228.07217554 0 5702.50194507 0 330.05382329 0 1264.28233709 0 11364
0.10450000 0.10450100 16750.98804839 0 281.67772892 0 5951.91713394 0 469.78766973 0 1612.18585522 0 12093
0.10550000 0.10551000 16144.66754132 0 575.55826703 0 5306.65526048 0 783.54745981 0 1484.20085264 0 12067
0.10650000 0.10649700 15803.97210665 0 571.90218537 0 4651.77153676 0 544.95103953 0 1440.14407219 0 12054
0.10750000 0.10749900 15442.23925482 0 -219.73250049 0 4470.32934996 0 268.66774726 0 1215.26515512 0 12807
0.10850000 0.10850100 15560.49168388 0 61.61793051 0 4345.44459833 0 234.19184947 0 333.05663778 0 12736
0.10950000 0.10950300 15368.71901803 0 231.76922480 0 4535.96609148 0 -1164.70892000 0 -150.48396661 0 12933
0.11050000 0.11050200 15262.86759276 0 223.31882650 0 4911.82722977 0 -882.88946532 0 -235.77629915 0 13428
0.11150000 0.11150900 15157.90195348 0 49.70953444 0 5277.75649271 0 -455.35046540 0 173.73695596 0 13453
0.11250000 0.11250000 15089.69643260 0 61.78335104 0 5346.64849773 0 583.68535344 0 654.05108490 0 13668
0.11350000 0.11349100 15243.93391732 0 374.40512758 0 5774.47205639 0 1097.92951455 0 756.56531146 0 13791
0.11450000 0.11448600 14779.00699818 0 261.63571377 0 5164.67483933 0 1593.66185580 0 1917.29483792 0 14205
0.11550000 0.11549300 14480.71856757 0 -52.25439758 0 4554.32400603 0 1354.98682201 0 2209.26097106 0 14776
0.11650000 0.11649800 14622.77649499 0 80.48273609 0 4491.41105641 0 663.79030181 0 2342.95929325 0 14553
0.11750000 0.11747300 14500.75947549 0 218.95411606 0 3712.19619730 0 344.49324208 0 2349.32588002 0 14568
0.11850000 0.11849100 14153.42064593 0 115.60835790 0 3993.46646467 0 -230.13716412 0 2552.10443675 0 16015
0.11950000 0.11950300 14447.50159311 0 127.82113217 0 3880.30730502 0 -161.16543836 0 2528.44287861 0 15270
0.12050000 0.12050700 14254.28952503 0 65.86217406 0 4104.18971285 0 16.56198346 0 1433.64461752 0 15999
0.12150000 0.12150000 14139.35879341 0 252.74685140 0 4045.01920902 0 -277.85002623 0 1726.56297060 0 15670
0.12250000 0.12250700 14026.31035701 0 184.50811355 0 3764.59043834 0 -220.10342337 0 848.93728850 0 16887
0.12350000 0.12352200 13702.44485607 0 264.05833844 0 3965.60849542 0 91.53103396 0 940.07691577 0 16407
0.12450000 0.12449800 13537.68866277 0 290.30528442 0 3903.83599526 0 18.41117243 0 229.97107925 0 16306
0.12550000 0.12549900 13161.67251192 0 371.30376940 0 3559.60848897 0 -205.58871277 0 491.15725663 0 17523
0.12650000 0.12650100 13299.08006292 0 -108.52207001 0 3152.47910539 0 351.75779440 0 135.41563976 0 17154
0.12750000 0.12750600 13185.69945678 0 -171.61328406 0 3167.70355202 0 555.30587770 0 210.71962809 0 18007
0.12850000 0.12850300 13274.16733208 0 80.29838188 0 2932.90383191 0 -25.08036584 0 -1018.10912493 0 17496
0.12950000 0.12949900 13273.72443909 0 160.12796153 0 2948.79261803 0 -80.75710830 0 -68.16676775 0 18405
0.13050000 0.13049000 12997.24848837 0 309.35189757 0 3406.38965813 0 -56.72529162 0 -387.64430637 0 18100
0.13150000 0.13148800 12848.54716605 0 196.38650361 0 3220.69569860 0 218.30306336 0 260.64806239 0 19059
0.13250000 0.13249300 12748.12117995 0 25.07361172 0 3064.45412308 0 831.84604791 0 526.62523472 0 18957
0.13350000 0.13349100 12610.38145920 0 109.67735638 0 2786.12909412 0 507.83992843 0 190.06531337 0 19468
0.13450000 0.13450700 12502.31556897 0 230.63431151 0 2672.11736546 0 324.54755615 0 201.35687022 0 19953
0.13550000 0.13551000 12283.63715381 0 491.27130158 0 2996.71363984 0 -661.79063995 0 526.56433694 0 19956
0.13650000 0.13649900 11951.02451625 0 430.30265219 0 2876.41283069 0 -552.24770158 0 559.71044851 0 19723
0.13750000 0.13749600 11597.92807779 0 293.47971995 0 3518.72946574 0 -123.87052668 0 1538.83170330 0 20946
0.13850000 0.13851100 11607.00738414 0 -36.60765249 0 3519.52667313 0 -13.73278303 0 588.23165001 0 20955
0.13950000 0.13949800 11490.74797354 0 157.65661863 0 3799.64541872 0 499.98522121 0 690.51557222 0 20506
0.14050000 0.14048300 11632.36300797 0 46.40710284 0 3294.64775606 0 331.35482145 0 313.30250307 0 21447
0.14150000 0.14148400 11300.52543316 0 18.43409214 0 3171.40170851 0 89.11538486 0 535.14095974 0 21771
0.14250000 0.14249400 11412.35591383 0 262.34434256 0 2719.65085590 0 68.79235410 0 440.45486682 0 22470
0.14350000 0.14350900 11327.32045922 0 -43.24661845 0 2749.28039712 0 215.85386511 0 180.87639100 0 22519
0.14450000 0.14449900 11179.39419964 0 109.71732748 0 2820.66367523 0 140.97726852 0 189.28360724 0 22218
0.14550000 0.14550500 11050.51233875 0 388.81022217 0 2712.97424404 0 290.39164855 0 -189.77521846 0 23559
0.14650000 0.14650700 10630.56120303 0 389.10031708 0 2801.35354074 0 -22.89435675 0 130.46852504 0 23044
0.14750000 0.14750500 10429.79780942 0 145.41616354 0 2971.08120789 0 65.39436833 0 375.57657955 0 23649
0.14850000 0.14849900 10412.18174063 0 85.31768817 0 2921.84257942 0 -11.28624213 0 292.52307108 0 23640
0.14950000 0.14949500 10319.41780330 0 85.49318452 0 3118.98532281 0 -88.63562102 0 572.28639504 0 24457
0.15050000 0.15050000 10332.60494216 0 101.30158555 0 3058.33112746 0 -190.18489448 0 220.21968278 0 24591
0.15150000 0.15149900 10073.08072074 0 226.04704734 0 2870.12375019 0 -34.90716484 0 460.06838300 0 25020
0.15250000 0.15250500 10148.69362692 0 131.03321360 0 3145.51461308 0 -76.56689769 0 -94.24043185 0 25297
0.15350000 0.15350100 9809.88048747 0 189.56041536 0 3088.01603030 0 -40.51751183 0 -198.42824031 0 25452
0.15450000 0.15450400 9837.41735930 0 220.83862574 0 3404.47414594 0 89.10375892 0 105.50685452 0 26061
0.15550000 0.15549900 9593.27259705 0 54.71632900 0 2923.19340305 0 266.77105802 0 201.69014720 0 26128
0.15650000 0.15649500 9670.16989291 0 -97.49381305 0 3080.64186197 0 255.23369556 0 -1.01792643 0 26331
0.15750000 0.15749700 9736.32703370 0 -31.90246805 0 3111.69973308 0 54.13846437 0 -328.61774276 0 27345
0.15850000 0.15849900 9690.35474106 0 199.56536807 0 3344.40678380 0 -171.72622177 0 -192.35507014 0 26980
0.15950000 0.15949700 9554.60803878 0 221.03239142 0 3138.10722778 0 -266.85631492 0 230.01869025 0 27777
0.16050000 0.16050000 9374.16236121 0 83.18781576 0 2999.20491293 0 308.63773262 0 193.92180411 0 28224
0.16150000 0.16150500 9327.83575417 0 138.46938695 0 2950.90743207 0 316.85561210 0 -2.03125120 0 28075
0.16250000 0.16249700 9254.41516830 0 189.80843544 0 3001.34187162 0 249.92562304 0 -138.54246429 0 28590
0.16350000 0.16349900 9012.28556916 0 254.46527621 0 2684.97233457 0 73.81786089 0 -28.66193075 0 29163
0.16450000 0.16449100 8702.81409048 0 241.34346407 0 2787.39133915 0 158.04193553 0 183.45181376 0 28996
0.16550000 0.16550500 8652.82254393 0 86.87534282 0 2729.71559916 0 148.16320733 0 373.76625444 0 30777
0.16650000 0.16650700 8559.53820733 0 -47.19445586 0 2526.38342620 0 464.42202112 0 326.19068916 0 29211
0.16750000 0.16749900 8673.30634484 0 8.20934272 0 2591.05687546 0 375.02185607 0 509.90380978 0 30922
0.16850000 0.16850800 8536.13131266 0 -10.72834090 0 2149.71400819 0 388.88440675 0 604.95971835 0 30867
0.16950000 0.16949900 8455.85695773 0 185.25770994 0 2159.38014776 0 364.27173591 0 893.25648305 0 30852
0.17050000 0.17049200 8392.45682581 0 91.61031181 0 1911.61473529 0 295.42402018 0 930.90349466 0 31257
0.17150000 0.17149500 8278.00220416 0 90.83857077 0 1817.87643337 0 342.35296170 0 767.06408986 0 32608
0.17250000 0.17250900 8309.76870407 0 18.81287638 0 1877.19087743 0 -202.04889052 0 622.04320831 0 32361
0.17350000 0.17350400 8170.94389549 0 160.90634596 0 1808.06635359 0 -290.36618221 0 258.08592643 0 32508
0.17450000 0.17449800 8173.98878482 0 158.69630993 0 1910.06460982 0 -323.09043821 0 178.51134242 0 32791
0.17550000 0.17549800 8021.10212372 0 144.36650715 0 1860.96992157 0 -173.57640725 0 710.09808590 0 33633
0.17650000 0.17650100 7998.90211246 0 3.43687177 0 1893.78829233 0 316.12373143 0 525.98746881 0 33984
0.17750000 0.17750300 7972.53890707 0 -138.03092289 0 1863.35047141 0 395.37389632 0 465.93228623 0 34069
0.17850000 0.17849800 8106.21508460 0 114.48673139 0 1717.61653214 0 266.31709270 0 134.36044721 0 34536
