### header ###
fiducial parameters:
Omega_m = 0.31
Omega_nu = 0
Omega_de = 0.69
Omega_k = 0
H_0 = 100
w_de = -1
zeff = 0
beta = 0
fgrowth = 0
b_1 = 2
gamma = 0.55
Lx = 3500 Ly = 3500 Lz = 3500
nx = 700 ny = 700 nz = 700
xoffset = -685.467585 yoffset = -31.7331281 zoffset = 572.489161
bins = 400 dk = 0.001
kx_ny = 0.628318531 ky_ny = 0.628318531 kz_ny = 0.628318531
############################
A(data) = 8.00889057 (not used)
A(ran) = 8.0006645 (used)
Ngal = 475288
weighted Ngal = 0
Nran = 23820508
weighted Nran = 0
SN(data) = 3502.907
SN(ran) = 69.6886894
SN(data+ran) = 3572.59569
############################
13 columns: k_central k_mean P_0(k) sigma^{lin}_{P_0(k)} P^img_1(k) sigma^{lin}_{P_1(k)} P_2(k) sigma^{lin}_{P_2(k)} P^img_3(k) sigma^{lin}_{P_3(k)} P_4(k) sigma^{lin}_{P_4(k)} N_modes
### header ###
0.00050000 0 0 0 0 0 0 0 0 0 0 0 0
0.00150000 0.00179520 57884.34257991 0 -33199.36945948 0 7886.51801555 0 45767.56536112 0 -96178.42085819 0 3
0.00250000 0.00253879 84146.23620102 0 -5499.83411159 0 26529.62243522 0 -6113.71701651 0 89975.48304829 0 6
0.00350000 0.00331552 67158.41112476 0 20946.84553841 0 12658.43534892 0 -25715.69583780 0 89670.10832979 0 7
0.00450000 0.00420575 44933.48713253 0 24369.41186310 0 14315.07658828 0 -27177.79633010 0 28319.46374216 0 24
0.00550000 0.00557378 37439.73769527 0 -3385.67333840 0 10884.37210485 0 20566.73262739 0 1371.35171809 0 45
0.00650000 0.00659388 30210.83826768 0 -8659.53237277 0 3062.33930904 0 31443.18801999 0 19534.68123104 0 40
0.00750000 0.00754703 50495.22661219 0 -20401.42281784 0 -24018.97278259 0 11304.62219334 0 -4065.06011694 0 57
0.00850000 0.00846663 63104.39011566 0 -20145.54139129 0 -19088.02364786 0 14140.13385615 0 9623.32288660 0 75
0.00950000 0.00948925 81513.90169863 0 -12069.71983831 0 -18253.28107978 0 -12567.75300865 0 3831.06867655 0 112
0.01050000 0.01054430 78914.23055446 0 -4291.15698974 0 -7761.24573255 0 -16855.84296442 0 22826.70484612 0 105
0.01150000 0.01145670 86062.19128764 0 10073.64540930 0 4535.93287451 0 -5442.52375833 0 30987.22968396 0 144
0.01250000 0.01249090 71114.77422896 0 18152.74437043 0 22631.61048282 0 -3131.37525429 0 42209.80595040 0 169
0.01350000 0.01339930 67121.65100636 0 12619.90365855 0 26974.61916968 0 16361.02076827 0 41192.03785307 0 180
0.01450000 0.01448870 58222.26993338 0 2055.10099261 0 32220.79739201 0 16819.63646226 0 36100.42928521 0 267
0.01550000 0.01550050 63779.46975986 0 -4852.60136432 0 39923.03870560 0 16514.48319026 0 59699.76095718 0 238
0.01650000 0.01653350 64079.19759270 0 1364.86333574 0 38927.74742765 0 12899.59058347 0 51920.34553960 0 315
0.01750000 0.01747870 65227.06550665 0 982.69097230 0 36670.65401337 0 10526.60314531 0 59575.41874946 0 297
0.01850000 0.01844180 66514.99832955 0 -2624.46207944 0 37154.84677769 0 10121.67715437 0 47914.71058995 0 388
0.01950000 0.01947590 68577.44027352 0 82.06187105 0 32533.70129138 0 11336.28904232 0 35329.24186159 0 399
0.02050000 0.02045430 66726.47973359 0 3356.70813667 0 34567.35519082 0 5675.47440019 0 31627.32078173 0 462
0.02150000 0.02154770 67264.70544302 0 -3828.99815181 0 29669.95520029 0 5036.92235558 0 28060.59278790 0 571
0.02250000 0.02255340 72657.37052269 0 -4408.26896935 0 26228.23375366 0 10139.22678920 0 25277.12105174 0 510
0.02350000 0.02348930 70519.96893970 0 -867.64619574 0 21404.79689291 0 10960.26181916 0 8027.94482046 0 555
0.02450000 0.02439640 73753.41995649 0 1161.95191112 0 18539.50067634 0 2610.15663577 0 -501.16110210 0 592
0.02550000 0.02547300 70371.37834064 0 3203.52252280 0 19044.50941132 0 -5248.81343563 0 -5266.62880626 0 837
0.02650000 0.02652900 61731.31111490 0 7465.20498388 0 14372.43123084 0 -9057.41636512 0 -6552.05928376 0 723
0.02750000 0.02749970 62789.38247457 0 1188.71372021 0 15863.20904443 0 3063.81192824 0 -11253.13588293 0 826
0.02850000 0.02848090 55134.19854146 0 142.50524935 0 13330.41474216 0 -6992.87067944 0 -10729.74708876 0 831
0.02950000 0.02946900 60795.92111422 0 -177.76396050 0 14574.61188203 0 -795.86763564 0 -24084.41022227 0 996
0.03050000 0.03053250 56403.64058191 0 1402.07741946 0 18312.18584781 0 -2546.47969574 0 -19929.18816433 0 1041
0.03150000 0.03150510 58131.58759311 0 5712.38953114 0 19149.58577385 0 -4371.57528490 0 -13240.72891113 0 1036
0.03250000 0.03246190 55315.45249874 0 1892.64784288 0 19761.22099683 0 1496.15896344 0 -8772.91297891 0 1059
0.03350000 0.03345080 53418.87398055 0 -58.61168360 0 18135.13937396 0 -1271.87795192 0 -7990.97432789 0 1302
0.03450000 0.03451200 56779.32456301 0 -1016.34973252 0 26411.37000616 0 145.53795911 0 -15584.07573575 0 1339
0.03550000 0.03553350 54088.52818558 0 747.25680799 0 25284.53950936 0 1692.54878875 0 -10742.98958924 0 1365
0.03650000 0.03647120 54576.92843333 0 3604.68392331 0 21442.99641354 0 1445.01589511 0 -15408.91155712 0 1308
0.03750000 0.03744890 49745.74094521 0 343.32179012 0 17883.90832383 0 2795.24161744 0 -13370.05366501 0 1579
0.03850000 0.03847530 53753.47963657 0 -610.18917736 0 17547.53109584 0 2623.15554511 0 -19028.56526358 0 1662
0.03950000 0.03950240 49132.77704325 0 1666.84992285 0 13561.71560762 0 576.68100076 0 -12048.90386765 0 1683
0.04050000 0.04050350 50346.52528987 0 3431.13630410 0 11411.13795810 0 3793.36741054 0 -10775.48686258 0 1822
0.04150000 0.04152450 46868.81878759 0 1382.43511523 0 9896.72073103 0 -375.78806095 0 -3492.54341755 0 1887
0.04250000 0.04250150 48619.02117167 0 682.78266057 0 14270.78728901 0 2653.38299187 0 -1021.78513677 0 1920
0.04350000 0.04349210 45365.19707721 0 -757.50867354 0 10742.29203278 0 4870.28386705 0 1815.90555956 0 2005
0.04450000 0.04448520 46606.07251964 0 630.46038964 0 14221.18327382 0 1539.58462138 0 950.31881623 0 2151
0.04550000 0.04548030 45192.35808679 0 2105.05932220 0 15881.58910363 0 2200.83493188 0 1976.86394545 0 2274
0.04650000 0.04648670 44047.92259354 0 2491.88206206 0 15880.14970140 0 -52.75431304 0 4216.89490718 0 2311
0.04750000 0.04749250 40785.12991598 0 2118.81114962 0 14173.68300035 0 653.47532401 0 7286.40908271 0 2568
0.04850000 0.04851840 42005.52155749 0 969.45179352 0 17958.97868610 0 -1852.85390748 0 7537.44083099 0 2493
0.04950000 0.04949480 40552.16820180 0 -100.72604611 0 17292.20328552 0 88.74368691 0 7752.24393248 0 2644
0.05050000 0.05050630 41808.54489897 0 596.55139488 0 19293.85816624 0 370.53535006 0 5081.23379950 0 2829
0.05150000 0.05149060 40347.44091590 0 1411.34495533 0 18872.55620689 0 117.82946626 0 4130.03251898 0 2784
0.05250000 0.05249300 39472.72725523 0 1402.19921503 0 17131.98674540 0 3379.28460698 0 2728.87410248 0 3055
0.05350000 0.05348950 38058.68065264 0 296.64529761 0 15613.74956626 0 2081.86280170 0 2821.01798962 0 3009
0.05450000 0.05448610 38504.45244984 0 -195.00246301 0 14278.98080937 0 4875.16676230 0 -880.70378840 0 3336
0.05550000 0.05550870 36830.20621401 0 579.36825400 0 11595.27071983 0 1318.80246450 0 -2176.30973240 0 3349
0.05650000 0.05647670 35463.77060814 0 2368.44778498 0 9493.07912976 0 299.20854081 0 -1651.69191017 0 3324
0.05750000 0.05747970 34768.31788628 0 1137.50421792 0 9900.73998494 0 1263.26368321 0 -402.01507675 0 3639
0.05850000 0.05849280 34010.19580595 0 -692.39454574 0 9817.22143883 0 1573.77596042 0 1797.96839335 0 3846
0.05950000 0.05951020 34481.32322698 0 -698.58176085 0 8759.34938101 0 1027.69886546 0 -711.57513403 0 3787
0.06050000 0.06049470 35139.35149095 0 171.17149830 0 10097.59484789 0 403.72907263 0 -29.89073736 0 3930
0.06150000 0.06148310 35033.72151218 0 511.34431924 0 12171.47450339 0 -927.20090924 0 815.34496223 0 4083
0.06250000 0.06249100 34205.17944600 0 1912.25693013 0 11808.52369584 0 -2048.60153795 0 -257.01080369 0 4303
0.06350000 0.06350600 32521.07884109 0 1843.14347861 0 13402.60629998 0 -694.43296074 0 1364.04398371 0 4470
0.06450000 0.06451750 31099.72450412 0 1749.61555087 0 12381.29505871 0 -313.34457790 0 1285.97302141 0 4479
0.06550000 0.06550280 30256.78841567 0 519.22892174 0 12285.07655603 0 1799.72889300 0 1665.20014645 0 4636
0.06650000 0.06648880 30071.43769821 0 -651.80783189 0 10854.35503227 0 2762.11322158 0 1129.45463778 0 4653
0.06750000 0.06749660 29543.84142060 0 -202.01013739 0 9636.43251919 0 3162.73207817 0 900.51439197 0 5220
0.06850000 0.06852730 30761.68642740 0 -960.57289625 0 7677.71611412 0 3069.49203087 0 643.80807721 0 5029
0.06950000 0.06949320 30591.28334845 0 -189.94683950 0 7562.06568139 0 -106.22411972 0 1448.62547300 0 5040
0.07050000 0.07048030 31510.95064788 0 548.68019853 0 7696.10724565 0 315.00210493 0 889.00581755 0 5475
0.07150000 0.07148790 30078.96687909 0 1504.74001518 0 7915.25069846 0 -1244.44073102 0 -79.56860495 0 5509
0.07250000 0.07249820 29293.60687970 0 1481.65421793 0 10240.92609266 0 -2203.84660423 0 1810.30296320 0 5916
0.07350000 0.07351270 28312.04528453 0 562.01681377 0 9849.33118080 0 -1356.93555117 0 829.08239563 0 5721
0.07450000 0.07449140 28001.90946636 0 254.99674781 0 10537.90798895 0 508.80764962 0 707.34107702 0 6028
0.07550000 0.07549160 27422.93760159 0 529.82402936 0 10807.99520825 0 382.46135112 0 -1902.20325919 0 6183
0.07650000 0.07648840 26990.12042443 0 852.56458211 0 10228.32578702 0 127.22987003 0 -1235.98147486 0 6330
0.07750000 0.07749960 26600.81748381 0 385.56713823 0 10095.36931060 0 1089.92754541 0 -92.10712702 0 6583
0.07850000 0.07848650 26011.65908020 0 -409.27852183 0 7903.64690205 0 1323.59678115 0 -740.94226114 0 6549
0.07950000 0.07947320 27015.14387852 0 198.36180636 0 8284.66774371 0 1309.35777143 0 -1214.58974331 0 6828
0.08050000 0.08048110 26282.82031501 0 493.24660432 0 6991.14339677 0 1157.66692141 0 -862.99914101 0 7147
0.08150000 0.08149960 26107.98830613 0 452.40411977 0 6687.89456463 0 898.58780745 0 -913.84989998 0 7386
0.08250000 0.08250610 24994.88749211 0 603.56460542 0 6789.33920462 0 406.28235073 0 -776.08028396 0 7227
0.08350000 0.08350160 24527.96755451 0 1261.86857028 0 7087.22903154 0 9.38440426 0 -1394.04998397 0 7798
0.08450000 0.08449610 23273.25170606 0 905.06068854 0 6412.33761687 0 935.03236459 0 -490.69554069 0 7371
0.08550000 0.08548940 22233.33895909 0 1392.12339945 0 7288.26923328 0 -424.12097325 0 1164.13315911 0 8256
0.08650000 0.08650700 21441.44628806 0 418.97012774 0 7250.91120934 0 920.23420247 0 1103.73694892 0 8037
0.08750000 0.08749060 21268.49657439 0 67.11666846 0 7816.87309244 0 668.58572569 0 1626.96740885 0 8155
0.08850000 0.08849210 21193.20476563 0 58.31893133 0 6513.45008712 0 559.66394475 0 1865.96354006 0 8718
0.08950000 0.08949900 20919.82906585 0 11.05787543 0 7577.40085126 0 1112.93472915 0 2779.34175900 0 8571
0.09050000 0.09049190 21457.94405204 0 -288.11739304 0 6355.85768797 0 1302.50400237 0 2329.11888723 0 8932
0.09150000 0.09150830 21427.16298904 0 -81.95325155 0 6038.52485867 0 848.93950296 0 3057.62249867 0 9285
0.09250000 0.09250820 21241.14793209 0 372.34788963 0 4814.91117064 0 979.12346925 0 2518.85424532 0 9204
0.09350000 0.09350330 21060.00469806 0 433.07737679 0 5395.32243763 0 -298.30061017 0 2338.87360539 0 9349
0.09450000 0.09448040 21258.97437505 0 247.58825527 0 4947.30295849 0 -595.81287082 0 2240.11954033 0 9564
0.09550000 0.09549270 20251.39281655 0 350.60959431 0 5659.61883105 0 -605.72038706 0 1886.19267751 0 10155
0.09650000 0.09649430 20004.25852660 0 723.31512003 0 5819.19317634 0 -445.98660030 0 1222.53967253 0 9913
0.09750000 0.09749140 19298.06564967 0 421.30638828 0 4971.68421774 0 200.89626151 0 362.21228349 0 10476
0.09850000 0.09850240 18900.67991193 0 1016.00538322 0 5784.69181220 0 -702.34302959 0 -962.10198430 0 10575
0.09950000 0.09950330 17966.39714373 0 805.27579004 0 5846.64146956 0 -677.06712650 0 -425.01561709 0 10882
0.10050000 0.10051200 17279.91300497 0 365.12541215 0 6141.66356436 0 -252.13344461 0 -371.33034298 0 10875
0.10150000 0.10150300 17148.70595587 0 56.75452256 0 5942.85997224 0 -101.66198972 0 -970.44940999 0 11118
0.10250000 0.10250800 17646.73912621 0 129.36461425 0 6421.54979112 0 720.01888893 0 -666.50191416 0 11575
0.10350000 0.10349800 17295.52498297 0 219.37597163 0 6409.45881242 0 304.72588026 0 26.02107056 0 11364
0.10450000 0.10450100 17235.07008946 0 433.21356639 0 6248.25683538 0 658.15448848 0 754.26226790 0 12093
0.10550000 0.10551000 16805.35316325 0 343.55652340 0 6271.75230865 0 620.99355192 0 1287.10239854 0 12067
0.10650000 0.10649700 16846.54221157 0 219.62952787 0 6215.06200558 0 622.73412138 0 1378.29406575 0 12054
0.10750000 0.10749900 16788.74467602 0 -140.29299885 0 5933.38206219 0 837.12422515 0 2159.33585846 0 12807
0.10850000 0.10850100 16605.16553052 0 49.24383246 0 5580.90567392 0 435.08257482 0 1226.30426296 0 12736
0.10950000 0.10950300 16682.78252750 0 365.25606558 0 5446.87518199 0 -160.90302426 0 1081.71409486 0 12933
0.11050000 0.11050200 16097.38871434 0 564.66531387 0 5706.05616134 0 -296.06067886 0 1200.30644429 0 13428
0.11150000 0.11150900 15543.66175016 0 597.49586419 0 5537.23642483 0 -226.76342675 0 1145.79738921 0 13453
0.11250000 0.11250000 15199.31244830 0 462.23191527 0 5411.56553814 0 460.02630817 0 566.60961411 0 13668
0.11350000 0.11349100 14766.93816413 0 229.82492456 0 5765.12701425 0 38.77195982 0 -424.71777156 0 13791
0.11450000 0.11448600 14964.80060864 0 -152.73939918 0 5314.05157346 0 450.71780470 0 -162.64691542 0 14205
0.11550000 0.11549300 14821.63544874 0 -196.67992022 0 5359.38167127 0 152.18578293 0 -386.69872983 0 14776
0.11650000 0.11649800 15038.65301518 0 94.73669344 0 5282.16327798 0 404.00145182 0 -164.43952481 0 14553
0.11750000 0.11747300 14855.18459294 0 166.94187022 0 4860.77274004 0 300.53279086 0 361.20138023 0 14568
0.11850000 0.11849100 14598.86027339 0 322.11275193 0 5150.30296172 0 -4.09457893 0 265.91848901 0 16015
0.11950000 0.11950300 14508.06720987 0 258.23651005 0 4846.23477755 0 297.81453511 0 276.09063382 0 15270
0.12050000 0.12050700 14042.58667450 0 266.66587093 0 4944.57916659 0 290.47579822 0 479.95538561 0 15999
0.12150000 0.12150000 14165.48947998 0 190.08302909 0 4893.14821781 0 3.36661787 0 442.72912234 0 15670
0.12250000 0.12250700 13866.75815638 0 174.91062239 0 4619.60643316 0 625.81776384 0 308.57019144 0 16887
0.12350000 0.12352200 13741.30871618 0 111.60571247 0 4237.45621437 0 470.78196450 0 292.62604370 0 16407
0.12450000 0.12449800 13411.13199009 0 248.06104354 0 3712.90482609 0 531.97648931 0 75.39633151 0 16306
0.12550000 0.12549900 13437.15195341 0 118.37643910 0 3240.74767884 0 550.54145633 0 -116.74548566 0 17523
0.12650000 0.12650100 13201.42215802 0 57.91202339 0 2700.75039744 0 272.21532013 0 -272.13559939 0 17154
0.12750000 0.12750600 12956.61305628 0 249.35982724 0 2799.31623297 0 -49.91226871 0 14.06185252 0 18007
0.12850000 0.12850300 12819.86984477 0 275.06976547 0 2999.48172105 0 127.62958095 0 -244.86667783 0 17496
0.12950000 0.12949900 12759.19350477 0 93.04085617 0 2722.78432383 0 31.41816457 0 329.59875074 0 18405
0.13050000 0.13049000 12692.53810936 0 106.19511023 0 3041.05830074 0 7.69127971 0 -8.15374858 0 18100
0.13150000 0.13148800 12727.19448604 0 73.16415083 0 3152.44588842 0 65.27102264 0 409.99157955 0 19059
0.13250000 0.13249300 12748.56407294 0 -14.09396226 0 3156.31012978 0 -128.90179107 0 379.56150925 0 18957
0.13350000 0.13349100 12529.33204153 0 322.19247267 0 3781.17678092 0 -137.86262355 0 205.25654302 0 19468
0.13450000 0.13450700 12468.54497828 0 273.62593431 0 3772.62894616 0 -194.69243791 0 290.57212745 0 19953
0.13550000 0.13551000 12158.63060660 0 208.39001095 0 3818.70088973 0 11.88968384 0 408.99174862 0 19956
0.13650000 0.13649900 12130.83907131 0 -19.62713514 0 3717.51091321 0 212.92302073 0 178.95866435 0 19723
0.13750000 0.13749600 12071.93430327 0 28.19024971 0 3411.88153124 0 561.04687812 0 586.14894571 0 20946
0.13850000 0.13851100 12083.22807459 0 105.40011731 0 3307.22591706 0 343.64288754 0 322.58775466 0 20955
0.13950000 0.13949800 11876.06487723 0 275.52483802 0 3115.20966005 0 236.72298293 0 259.00271493 0 20506
0.14050000 0.14048300 11719.28075780 0 170.66106413 0 3048.76463881 0 162.83514495 0 623.99636641 0 21447
0.14150000 0.14148400 11465.94596595 0 252.74906587 0 3081.47228633 0 156.35451323 0 578.60979975 0 21771
0.14250000 0.14249400 11436.49358193 0 -12.74070272 0 2694.91528226 0 361.96204895 0 711.35922369 0 22470
0.14350000 0.14350900 11277.27355104 0 10.83411482 0 2956.21107566 0 230.46711940 0 383.94836434 0 22519
0.14450000 0.14449900 11295.43216374 0 344.45781064 0 2846.26289021 0 -53.37823855 0 664.16011746 0 22218
0.14550000 0.14550500 10984.97524815 0 256.24459881 0 3005.67115062 0 -149.58821553 0 516.51841663 0 23559
0.14650000 0.14650700 10713.08323991 0 366.73311371 0 3045.01112070 0 -104.63834136 0 1127.99309090 0 23044
0.14750000 0.14750500 10553.61961787 0 94.44360901 0 3068.59517256 0 20.78950780 0 813.26890132 0 23649
0.14850000 0.14849900 10455.61847090 0 138.31105270 0 3192.04052197 0 323.87989497 0 693.02123933 0 23640
0.14950000 0.14949500 10313.30588000 0 270.01192749 0 3149.87710906 0 -3.64800993 0 598.41597438 0 24457
0.15050000 0.15050000 10119.51805103 0 275.68981566 0 3307.73524400 0 -234.64581479 0 280.35015718 0 24591
0.15150000 0.15149900 9987.80167498 0 212.30629224 0 3286.63139289 0 -404.12324739 0 287.53055982 0 25020
0.15250000 0.15250500 9800.51330068 0 149.19625523 0 3537.41955004 0 -261.92248698 0 380.07415789 0 25297
0.15350000 0.15350100 9755.72574679 0 96.67468246 0 3123.40318042 0 394.91107314 0 526.13362350 0 25452
0.15450000 0.15450400 9740.45701086 0 -88.96325111 0 2880.57602482 0 321.72964949 0 206.51657359 0 26061
0.15550000 0.15549900 9871.17687767 0 -75.30908159 0 2975.84230756 0 528.23182905 0 73.30510152 0 26128
0.15650000 0.15649500 9832.25765593 0 46.47486547 0 2599.41648070 0 431.73430379 0 -237.71395600 0 26331
0.15750000 0.15749700 9670.81208775 0 -19.62514212 0 2289.09243301 0 230.72510457 0 235.52385015 0 27345
0.15850000 0.15849900 9614.22143560 0 72.51719489 0 2249.17670204 0 111.71200679 0 -283.16806384 0 26980
0.15950000 0.15949700 9746.39177696 0 166.45025900 0 2284.54170751 0 81.12194140 0 -193.48001835 0 27777
0.16050000 0.16050000 9469.51722255 0 214.04354000 0 2113.13104699 0 -184.45053746 0 89.75868693 0 28224
0.16150000 0.16150500 9483.01438650 0 58.40573836 0 2305.86700511 0 -278.17555258 0 225.13690223 0 28075
0.16250000 0.16249700 9442.99900461 0 38.87891848 0 2439.78677379 0 217.16482837 0 102.32599704 0 28590
0.16350000 0.16349900 9290.58845348 0 231.80133454 0 2517.03838405 0 -139.85342755 0 151.27674507 0 29163
0.16450000 0.16449100 9129.67435689 0 270.59543901 0 2528.55360186 0 96.06404374 0 228.05445982 0 28996
0.16550000 0.16550500 8958.48514287 0 212.09259637 0 2587.83482894 0 53.63223768 0 546.31072102 0 30777
0.16650000 0.16650700 8875.96310600 0 56.60792497 0 2616.73359672 0 65.03241404 0 525.81806224 0 29211
0.16750000 0.16749900 8889.79243969 0 7.75280862 0 2792.41817461 0 65.01093373 0 264.74039365 0 30922
0.16850000 0.16850800 8857.56090215 0 32.86465308 0 2925.87290565 0 -108.63910449 0 342.29206391 0 30867
0.16950000 0.16949900 8765.17342386 0 195.46417895 0 2689.62271100 0 111.03991668 0 470.14752029 0 30852
0.17050000 0.17049200 8766.05920985 0 51.01551516 0 2878.56086170 0 328.78161316 0 754.85353005 0 31257
0.17150000 0.17149500 8705.75932888 0 70.53834900 0 2738.60667599 0 163.23374864 0 419.21371889 0 32608
0.17250000 0.17250900 8614.14691333 0 195.03789445 0 2795.99453553 0 142.98578824 0 245.74249872 0 32361
0.17350000 0.17350400 8227.92207901 0 292.01706584 0 2633.09849280 0 243.57343029 0 820.02412670 0 32508
0.17450000 0.17449800 8219.83928189 0 110.20993521 0 2280.36744105 0 236.31995030 0 526.11147885 0 32791
0.17550000 0.17549800 7981.28604367 0 -28.83709493 0 2037.61779173 0 428.46021734 0 739.13747220 0 33633
0.17650000 0.17650100 8176.33611768 0 -115.83423332 0 1901.36176251 0 236.36091790 0 291.91298598 0 33984
0.17750000 0.17750300 8042.54921690 0 -17.87250383 0 1445.51414972 0 243.15489641 0 -48.46057620 0 34069
0.17850000 0.17849800 8033.84636959 0 186.16342611 0 1449.69948851 0 -3.43455765 0 -105.41451133 0 34536
