### header ###
fiducial parameters:
Omega_m = 0.31
Omega_nu = 0
Omega_de = 0.69
Omega_k = 0
H_0 = 100
w_de = -1
zeff = 0
beta = 0
fgrowth = 0
b_1 = 2
gamma = 0.55
Lx = 3500 Ly = 3500 Lz = 3500
nx = 700 ny = 700 nz = 700
xoffset = -685.467585 yoffset = -31.7331281 zoffset = 572.489161
bins = 400 dk = 0.001
kx_ny = 0.628318531 ky_ny = 0.628318531 kz_ny = 0.628318531
############################
A(data) = 8.05401107 (not used)
A(ran) = 8.05940132 (used)
Ngal = 479072
weighted Ngal = 0
Nran = 23820508
weighted Nran = 0
SN(data) = 3479.80466
SN(ran) = 70.2003084
SN(data+ran) = 3550.00496
############################
13 columns: k_central k_mean P_0(k) sigma^{lin}_{P_0(k)} P^img_1(k) sigma^{lin}_{P_1(k)} P_2(k) sigma^{lin}_{P_2(k)} P^img_3(k) sigma^{lin}_{P_3(k)} P_4(k) sigma^{lin}_{P_4(k)} N_modes
### header ###
0.00050000 0 0 0 0 0 0 0 0 0 0 0 0
0.00150000 0.00179520 52191.61749765 0 -40516.51531588 0 31274.33506651 0 27061.31547301 0 -111673.25365590 0 3
0.00250000 0.00253879 79480.02635270 0 -18841.33225090 0 30790.14230219 0 -29869.58921677 0 74907.37764909 0 6
0.00350000 0.00331552 70921.11926788 0 13402.82774647 0 3522.99231080 0 -5620.76604326 0 71320.38730084 0 7
0.00450000 0.00420575 50512.16726916 0 29164.83574206 0 1371.07490997 0 -23516.95357532 0 27028.43066830 0 24
0.00550000 0.00557378 37453.68882455 0 -4552.87353148 0 -627.57162009 0 -613.15656041 0 -18115.87352878 0 45
0.00650000 0.00659388 51417.66199283 0 -25225.52401808 0 -32853.35930889 0 16622.88125023 0 8849.95421500 0 40
0.00750000 0.00754703 65028.42799940 0 -18385.04174512 0 -26219.15444731 0 -28070.66860348 0 -47300.41800902 0 57
0.00850000 0.00846663 67392.81224117 0 -1177.49745516 0 -26970.41168625 0 -21255.43123111 0 -8262.97705939 0 75
0.00950000 0.00948925 75719.86484428 0 -4336.22135175 0 -17863.97813916 0 -29017.24165223 0 -52418.26798669 0 112
0.01050000 0.01054430 74128.21815160 0 2235.01519859 0 -22790.60906721 0 -50996.47075673 0 -24976.06453992 0 105
0.01150000 0.01145670 77447.81185548 0 6279.77974414 0 -1852.77640120 0 -20978.40166414 0 -46072.38646338 0 144
0.01250000 0.01249090 71339.32097628 0 -692.82636641 0 4462.76695210 0 -18625.31119369 0 -29245.44226674 0 169
0.01350000 0.01339930 77821.94571110 0 -4346.07572084 0 3090.31907386 0 1474.09182008 0 -31945.31795052 0 180
0.01450000 0.01448870 70332.95737352 0 -6150.83144931 0 316.41050465 0 5277.21394879 0 -32442.68678137 0 267
0.01550000 0.01550050 77518.78545757 0 -3243.22787960 0 -4799.33240962 0 5491.31949381 0 -21712.82896937 0 238
0.01650000 0.01653350 77992.68095981 0 -4774.28681088 0 -10341.92783966 0 -251.12697028 0 -23967.04357919 0 315
0.01750000 0.01747870 86552.03093761 0 -1688.47417322 0 -11897.21301764 0 -2753.26643405 0 4458.02799708 0 297
0.01850000 0.01844180 89923.99673788 0 -369.07933934 0 4143.85078035 0 -19861.31481319 0 -3012.42526876 0 388
0.01950000 0.01947590 84639.72971819 0 7900.91203782 0 18256.27060748 0 -12489.91456518 0 2709.71898054 0 399
0.02050000 0.02045430 85789.36920411 0 9251.08239853 0 24197.79082841 0 -19805.06740311 0 5080.80197883 0 462
0.02150000 0.02154770 75793.60652758 0 11326.21322674 0 46302.69081961 0 -5826.37911514 0 8272.77606685 0 571
0.02250000 0.02255340 66927.33170580 0 7439.17394823 0 43666.70245003 0 5616.50319821 0 4879.59569223 0 510
0.02350000 0.02348930 66316.36082230 0 -300.59701034 0 49658.38030240 0 23753.34771019 0 1726.52975362 0 555
0.02450000 0.02439640 61332.59669818 0 1778.50324632 0 31907.67204613 0 20922.48642381 0 -4647.76335517 0 592
0.02550000 0.02547300 61385.19024107 0 1116.84325981 0 19290.86863853 0 7482.54424454 0 -14002.50485865 0 837
0.02650000 0.02652900 58344.95129237 0 -1295.05232776 0 10102.11235641 0 7058.47420399 0 -1096.55322458 0 723
0.02750000 0.02749970 63132.95671369 0 -3558.89986018 0 9730.00473623 0 1639.91095656 0 -9190.89324081 0 826
0.02850000 0.02848090 64931.87732698 0 -4080.25134659 0 8335.42328067 0 1257.21819386 0 -7437.67918438 0 831
0.02950000 0.02946900 66579.88215299 0 2523.90322544 0 13244.05060858 0 -1449.69948851 0 -6912.85098797 0 996
0.03050000 0.03053250 64075.43300226 0 5733.50445457 0 16098.93883982 0 -5513.12090138 0 2143.03739632 0 1041
0.03150000 0.03150510 61474.76534885 0 3047.08164544 0 24688.29481788 0 1491.48644237 0 9701.61529540 0 1036
0.03250000 0.03246190 59021.80250853 0 2391.30106341 0 24348.48516920 0 1151.85395088 0 4917.28588591 0 1059
0.03350000 0.03345080 57907.26229229 0 1498.77203210 0 31603.51528337 0 1536.56187671 0 9440.46344222 0 1302
0.03450000 0.03451200 57658.91004660 0 -1742.38532276 0 28919.80519382 0 908.22848067 0 -661.45957743 0 1339
0.03550000 0.03553350 57012.50772369 0 2990.47992097 0 29458.25234975 0 887.79007628 0 4547.45916464 0 1365
0.03650000 0.03647120 53193.44144724 0 6983.21561220 0 23826.20360750 0 -284.16789477 0 2283.20195620 0 1308
0.03750000 0.03744890 48221.52471068 0 2260.96872797 0 19232.07459375 0 5135.24459996 0 -75.64025483 0 1579
0.03850000 0.03847530 46971.34851541 0 11.33329951 0 19176.71296965 0 7158.34657385 0 -4455.44814540 0 1662
0.03950000 0.03950240 46750.89852827 0 -1515.26979608 0 13931.19908682 0 7134.78466664 0 -7921.78337010 0 1683
0.04050000 0.04050350 45724.16184783 0 1190.54065380 0 12196.94085048 0 2704.20496278 0 -7408.43717453 0 1822
0.04150000 0.04152450 45359.66091480 0 1756.25894576 0 12565.09565070 0 74.66090770 0 -1310.59787181 0 1887
0.04250000 0.04250150 43848.17785381 0 519.09162492 0 8301.02156746 0 1737.38063194 0 2661.39935503 0 1920
0.04350000 0.04349210 43706.34137288 0 1799.89497787 0 11578.77295585 0 1299.68055954 0 -122.11113426 0 2005
0.04450000 0.04448520 42303.92071135 0 -395.69388651 0 7594.59617171 0 125.20363458 0 -1.16190762 0 2151
0.04550000 0.04548030 42347.43494789 0 730.26411109 0 11369.72746328 0 -1448.61440067 0 -3111.48935891 0 2274
0.04650000 0.04648670 41198.45980146 0 2553.22274156 0 10049.61846445 0 -2062.96234324 0 -1637.22038163 0 2311
0.04750000 0.04749250 39201.01240418 0 1216.81528059 0 12258.72442296 0 -2022.82516577 0 -512.96530759 0 2568
0.04850000 0.04851840 39761.60420974 0 385.81072938 0 11224.23711516 0 1337.50362112 0 1665.56553317 0 2493
0.04950000 0.04949480 39652.65253353 0 -1359.03929289 0 15222.01071418 0 2848.99775444 0 4241.50868525 0 2644
0.05050000 0.05050630 41702.25058071 0 -1343.12836213 0 13945.15021609 0 2925.35250639 0 3028.66836927 0 2829
0.05150000 0.05149060 41360.33719031 0 1495.08494794 0 15504.90861329 0 4471.89054775 0 7850.05684992 0 2784
0.05250000 0.05249300 40624.35975961 0 2281.70719235 0 14061.85251968 0 1233.11374273 0 7365.73121771 0 3055
0.05350000 0.05348950 37251.95106635 0 2345.79380840 0 14993.58865317 0 1959.22573201 0 15001.33928054 0 3009
0.05450000 0.05448610 35628.41607819 0 2658.39875501 0 12917.08485668 0 734.59892626 0 9773.75149159 0 3336
0.05550000 0.05550870 33571.28885014 0 653.98686541 0 12443.30007769 0 168.84409562 0 7138.28352128 0 3349
0.05650000 0.05647670 33416.94064216 0 168.14764639 0 12165.27400149 0 -2405.42934988 0 3529.85715218 0 3324
0.05750000 0.05747970 32485.86884816 0 744.61384405 0 12150.76925598 0 -3225.83325731 0 -905.46150669 0 3639
0.05850000 0.05849280 31424.03289806 0 2029.31354811 0 13701.00545384 0 -2955.71282104 0 2.70244446 0 3846
0.05950000 0.05951020 30910.83064271 0 922.60478721 0 11826.35013880 0 323.59090729 0 -1630.93130114 0 3787
0.06050000 0.06049470 30012.42220693 0 -184.12833280 0 14460.01332016 0 1341.35679015 0 -1341.52287503 0 3930
0.06150000 0.06148310 31130.72701361 0 -791.30583781 0 12226.83612749 0 3883.89473826 0 -1637.88472112 0 4083
0.06250000 0.06249100 32240.94902318 0 -268.68324851 0 13824.46187557 0 1561.93964519 0 -665.96601363 0 4303
0.06350000 0.06350600 31072.70803156 0 1207.85776982 0 12259.49948570 0 1588.33606756 0 1516.08914812 0 4470
0.06450000 0.06451750 30924.22815574 0 1149.67270289 0 12884.20005197 0 -1178.35002417 0 3608.04991005 0 4479
0.06550000 0.06550280 30084.39231825 0 45.39254572 0 13478.34100174 0 1285.58549004 0 2504.75917582 0 4636
0.06650000 0.06648880 30359.98248298 0 -146.15468761 0 13377.25067614 0 2564.43900660 0 3350.62943035 0 4653
0.06750000 0.06749660 29655.67190127 0 452.03873305 0 11653.62187163 0 2477.23337633 0 2012.21787859 0 5220
0.06850000 0.06852730 29268.91559535 0 524.20261005 0 10952.93194013 0 1011.60745580 0 1495.36175606 0 5029
0.06950000 0.06949320 29011.15187358 0 408.87881090 0 9449.09985558 0 1322.65563354 0 2711.25803369 0 5040
0.07050000 0.07048030 28433.28724129 0 531.60667366 0 9777.71538388 0 -1110.76455348 0 -41.44260456 0 5475
0.07150000 0.07148790 27851.10440233 0 304.55204476 0 9340.14817937 0 -123.96685590 0 561.21185576 0 5509
0.07250000 0.07249820 28148.83921670 0 160.58746301 0 10131.31007696 0 270.21012211 0 730.37704880 0 5916
0.07350000 0.07351270 28321.45676062 0 -386.33445034 0 10807.50802596 0 -67.25020070 0 209.94788705 0 5721
0.07450000 0.07449140 28231.21731335 0 539.25432841 0 10649.08520245 0 741.48369783 0 239.84537852 0 6028
0.07550000 0.07549160 27828.95975269 0 943.77285780 0 10635.76519570 0 -648.75519194 0 -1002.79831418 0 6183
0.07650000 0.07648840 26425.09968893 0 1077.27852153 0 11715.62689061 0 550.14728157 0 1148.25544532 0 6330
0.07750000 0.07749960 26007.11942703 0 1034.72868449 0 10410.73126608 0 322.44935060 0 -460.92648818 0 6583
0.07850000 0.07848650 25141.92796570 0 -16.35327014 0 9200.41544016 0 1535.17783611 0 -71.98085148 0 6549
0.07950000 0.07947320 24977.17177240 0 176.38767052 0 8656.32139857 0 1607.19223673 0 -1475.39835441 0 6828
0.08050000 0.08048110 25015.26056977 0 710.13130287 0 9031.08637670 0 -244.77034860 0 -1506.05762183 0 7147
0.08150000 0.08149960 23888.87296597 0 995.69984673 0 8115.07294446 0 28.97361669 0 -1416.10605501 0 7386
0.08250000 0.08250610 23551.94212174 0 385.83287403 0 8256.21186892 0 0.34329189 0 296.42938728 0 7227
0.08350000 0.08350160 23380.32108705 0 -216.20264334 0 7889.82864067 0 911.62879162 0 -397.33591228 0 7798
0.08450000 0.08449610 23810.03801327 0 57.44200320 0 8031.73155555 0 905.78592581 0 -477.21387799 0 7371
0.08550000 0.08548940 22903.10388737 0 591.67735750 0 7996.13403126 0 1123.69702887 0 107.38793178 0 8256
0.08650000 0.08650700 22676.78556808 0 269.25458047 0 7403.05602467 0 675.43285135 0 -611.33516298 0 8037
0.08750000 0.08749060 22302.20881946 0 682.80369799 0 7998.34849622 0 -252.47115051 0 899.86555373 0 8155
0.08850000 0.08849210 21661.01048921 0 758.05453915 0 7334.69549124 0 470.56162524 0 -1137.36027770 0 8718
0.08950000 0.08949900 21065.31941397 0 397.38573774 0 6982.81700850 0 157.65772586 0 -521.26290781 0 8571
0.09050000 0.09049190 20821.28537497 0 341.43285150 0 6764.44861843 0 -540.97718215 0 -910.08420231 0 8932
0.09150000 0.09150830 20705.24741087 0 433.57895311 0 7092.43302421 0 -128.69695306 0 -1168.13026837 0 9285
0.09250000 0.09250820 20261.91152513 0 304.12243856 0 6953.51963703 0 -497.79179366 0 -457.36784298 0 9204
0.09350000 0.09350330 20064.27052712 0 281.22376360 0 7438.67569361 0 576.07091566 0 -889.56718442 0 9349
0.09450000 0.09448040 19677.95711419 0 430.05573935 0 6886.75351838 0 1214.65617726 0 -204.50141047 0 9564
0.09550000 0.09549270 19282.45367167 0 622.02217089 0 7145.52482171 0 493.60756211 0 -524.68979234 0 10155
0.09650000 0.09649430 18673.14363690 0 667.09317630 0 6399.92554075 0 820.47255585 0 402.87096746 0 9913
0.09750000 0.09749140 18259.81375142 0 164.06417300 0 6797.66559289 0 848.24748266 0 555.85063608 0 10476
0.09850000 0.09850240 18063.72287888 0 307.12636028 0 5777.82697081 0 1119.51169009 0 701.13725342 0 10575
0.09950000 0.09950330 17736.31423400 0 249.02987196 0 5313.76369302 0 370.84537515 0 222.79842723 0 10882
0.10050000 0.10051200 17741.96111965 0 146.58318658 0 5584.85849388 0 -305.51090809 0 772.96563898 0 10875
0.10150000 0.10150300 17457.18092532 0 270.14700986 0 5014.39017457 0 -368.12711941 0 -363.64061339 0 11118
0.10250000 0.10250800 17314.34793516 0 451.97119186 0 5930.95722306 0 -94.35115509 0 408.49903016 0 11575
0.10350000 0.10349800 16968.00561483 0 435.23758737 0 5797.54678132 0 101.00374001 0 538.34086161 0 11364
0.10450000 0.10450100 16658.09124316 0 -9.33721401 0 5892.61376221 0 338.46768292 0 610.12163618 0 12093
0.10550000 0.10551000 16274.65663469 0 499.80252785 0 6015.23975958 0 731.40345331 0 -18.79261402 0 12067
0.10650000 0.10649700 16272.88506272 0 525.08839604 0 5552.50516076 0 213.65822310 0 1203.76100963 0 12054
0.10750000 0.10749900 15986.22257316 0 99.37267585 0 5630.88614815 0 566.56311034 0 1780.69556663 0 12807
0.10850000 0.10850100 15900.19060932 0 -212.11584825 0 5624.79636950 0 220.01595201 0 1607.22545370 0 12736
0.10950000 0.10950300 16012.68542948 0 47.32256266 0 5611.56494134 0 754.39624303 0 2363.02234582 0 12933
0.11050000 0.11050200 15755.80749369 0 430.19414341 0 5659.93992847 0 178.16145696 0 2048.91156304 0 13428
0.11150000 0.11150900 15722.92268897 0 369.81011278 0 5334.53537438 0 257.08498827 0 2109.16715470 0 13453
0.11250000 0.11250000 14948.52429116 0 475.39026609 0 5418.69611532 0 -135.30713098 0 1686.28185291 0 13668
0.11350000 0.11349100 14870.35367794 0 263.45157504 0 5048.48186269 0 86.97632242 0 1436.34626477 0 13791
0.11450000 0.11448600 14449.60533483 0 148.00487308 0 5313.37616165 0 -16.60904084 0 1466.20832481 0 14205
0.11550000 0.11549300 14834.81151527 0 15.57377847 0 5018.56444103 0 419.13399815 0 1212.89567761 0 14776
0.11650000 0.11649800 14454.25571125 0 -40.70839870 0 4607.41580354 0 664.82999311 0 1183.69795706 0 14553
0.11750000 0.11747300 14705.81893113 0 165.28877213 0 4361.82056673 0 467.27535923 0 657.30634839 0 14568
0.11850000 0.11849100 14032.17868917 0 475.79219148 0 4813.62678096 0 227.07234461 0 1616.93588257 0 16015
0.11950000 0.11950300 13997.41158924 0 491.05760571 0 5083.97973605 0 158.93879384 0 1633.26756167 0 15270
0.12050000 0.12050700 13429.62277254 0 122.43444615 0 4915.86862833 0 -239.65382730 0 1797.91303173 0 15999
0.12150000 0.12150000 13490.29911254 0 149.83734284 0 4988.01589685 0 100.55675026 0 1949.54852012 0 15670
0.12250000 0.12250700 13453.76044064 0 172.25437167 0 4938.71083443 0 -51.91248419 0 2527.63459890 0 16887
0.12350000 0.12352200 13565.70164456 0 -145.96202915 0 5012.16463728 0 438.73422754 0 1743.19360247 0 16407
0.12450000 0.12449800 13546.76796912 0 -139.31863426 0 4887.02522218 0 271.25867127 0 1590.89377459 0 16306
0.12550000 0.12549900 13571.90214646 0 388.78918475 0 5023.52484254 0 113.55222718 0 958.16355837 0 17523
0.12650000 0.12650100 13095.23856301 0 315.79931232 0 4652.86769692 0 297.51336788 0 1379.93276982 0 17154
0.12750000 0.12750600 12885.08583796 0 259.33045574 0 4551.91023922 0 678.80437426 0 1910.03139284 0 18007
0.12850000 0.12850300 12743.47080352 0 97.35751273 0 4502.27300706 0 579.57641370 0 1351.01185740 0 17496
0.12950000 0.12949900 12546.60486825 0 144.81493630 0 4250.89801670 0 649.50700279 0 992.61177534 0 18405
0.13050000 0.13049000 12502.09412248 0 227.68242971 0 4149.29836416 0 -195.83510183 0 1191.00569144 0 18100
0.13150000 0.13148800 12253.96332329 0 231.21007240 0 3674.94889661 0 -462.44228945 0 955.51505827 0 19059
0.13250000 0.13249300 12201.36978040 0 -90.73449091 0 4127.55231822 0 -12.14755828 0 1591.62454803 0 18957
0.13350000 0.13349100 12308.43916140 0 -151.18595200 0 3949.66434768 0 181.86182791 0 1201.74584652 0 19468
0.13450000 0.13450700 12397.01775995 0 -99.07914851 0 3999.58946029 0 576.47948445 0 1107.50928999 0 19953
0.13550000 0.13551000 12447.72900762 0 113.09494016 0 3903.97993548 0 110.82843527 0 808.18781147 0 19956
0.13650000 0.13649900 12341.87758235 0 354.30553634 0 3801.29519511 0 140.68606638 0 888.15214131 0 19723
0.13750000 0.13749600 12007.49337283 0 437.32582783 0 3725.41655313 0 -181.24399219 0 1305.61532564 0 20946
0.13850000 0.13851100 11700.12563586 0 351.13442251 0 3558.43482254 0 -0.42012940 0 1174.81795256 0 20955
0.13950000 0.13949800 11366.07359609 0 105.55369045 0 3556.36429780 0 298.11680958 0 801.06277044 0 20506
0.14050000 0.14048300 11402.61226799 0 -69.47352352 0 3208.70437082 0 377.01930347 0 492.52136705 0 21447
0.14150000 0.14148400 11283.14188319 0 109.20844343 0 3232.74238800 0 373.63781547 0 448.70153435 0 21771
0.14250000 0.14249400 11283.80622268 0 71.84599056 0 2820.25399921 0 26.71309086 0 207.95819028 0 22470
0.14350000 0.14350900 11195.78124037 0 238.36279423 0 3016.30058245 0 -127.34945113 0 413.56461877 0 22519
0.14450000 0.14449900 11132.22609592 0 179.15575173 0 3391.10984988 0 -311.43238741 0 478.24360419 0 22218
0.14550000 0.14550500 11046.92490551 0 158.19694808 0 3615.72303115 0 -260.16309457 0 760.54581224 0 23559
0.14650000 0.14650700 10892.77599939 0 164.38637765 0 3841.59845745 0 -174.19202851 0 648.41748603 0 23044
0.14750000 0.14750500 10859.09398729 0 180.55972252 0 4211.01550270 0 -184.87682196 0 322.84241813 0 23649
0.14850000 0.14849900 10694.63674676 0 299.51856590 0 4219.62977141 0 -118.36536678 0 388.74157376 0 23640
0.14950000 0.14949500 10471.07543634 0 71.73726033 0 3971.32181503 0 365.27378130 0 631.08154706 0 24457
0.15050000 0.15050000 10431.31471792 0 25.02865808 0 3695.88666284 0 487.09482065 0 620.37682343 0 24591
0.15150000 0.15149900 10327.84384249 0 97.89728856 0 3579.31722715 0 630.47478366 0 -91.41388877 0 25020
0.15250000 0.15250500 10172.96416293 0 325.86516281 0 3239.75116961 0 290.85557896 0 196.11855335 0 25297
0.15350000 0.15350100 9853.56080888 0 202.90256677 0 3060.80025589 0 32.56924345 0 469.91389423 0 25452
0.15450000 0.15450400 9899.34487201 0 -54.44937525 0 3330.20099105 0 -147.77899766 0 151.52033621 0 26061
0.15550000 0.15549900 9831.53795482 0 175.48638328 0 3675.41393425 0 -375.99068449 0 533.77906379 0 26128
0.15650000 0.15649500 9768.65822217 0 377.43119395 0 3841.79775930 0 -485.85250581 0 213.77448251 0 26331
0.15750000 0.15749700 9494.05349435 0 285.60729700 0 3853.31297711 0 -57.71615397 0 1037.31739403 0 27345
0.15850000 0.15849900 9352.17272412 0 30.01552246 0 3705.17634336 0 608.60694214 0 474.32067951 0 26980
0.15950000 0.15949700 9233.18952162 0 -137.90469838 0 3381.84231401 0 774.92211878 0 416.14557768 0 27777
0.16050000 0.16050000 9460.54863945 0 -89.54875565 0 2968.34634366 0 923.43631881 0 55.84780988 0 28224
0.16150000 0.16150500 9346.38189824 0 137.81058362 0 2842.21041932 0 181.76771315 0 193.20874639 0 28075
0.16250000 0.16249700 9210.36946017 0 318.51313913 0 2475.53931063 0 -275.00665322 0 292.84970466 0 28590
0.16350000 0.16349900 8913.87474617 0 293.32913633 0 2792.44031926 0 -370.79887139 0 380.47940498 0 29163
0.16450000 0.16449100 8799.75229427 0 211.16362831 0 3064.68664190 0 -436.24295446 0 560.76674830 0 28996
0.16550000 0.16550500 8738.94308636 0 78.01150391 0 3178.51014104 0 -13.42774048 0 283.66853292 0 30777
0.16650000 0.16650700 8690.37986971 0 20.01987050 0 3087.34061848 0 78.73297660 0 238.81565232 0 29211
0.16750000 0.16749900 8598.02560840 0 164.82705618 0 3020.81809097 0 176.49617931 0 165.32752526 0 30922
0.16850000 0.16850800 8439.09345795 0 159.50791134 0 2959.77636425 0 66.27882564 0 82.79009786 0 30867
0.16950000 0.16949900 8352.58538414 0 210.10954299 0 2821.32801471 0 368.80142399 0 71.74855410 0 30852
0.17050000 0.17049200 8181.73941219 0 85.67643149 0 2786.00729854 0 145.74611882 0 28.06778980 0 31257
0.17150000 0.17149500 8038.39709509 0 189.41426067 0 2582.32081118 0 143.45636205 0 -141.22971753 0 32608
0.17250000 0.17250900 7969.51616239 0 56.15739208 0 2447.08343584 0 151.37639599 0 67.07260061 0 32361
0.17350000 0.17350400 7931.82596871 0 -37.92005515 0 2440.55076420 0 285.55968600 0 142.38123931 0 32508
0.17450000 0.17449800 7941.65819315 0 -63.38695585 0 2137.21335347 0 413.26455876 0 65.08788638 0 32791
0.17550000 0.17549800 8036.22691942 0 -23.43557199 0 2076.18269907 0 424.00692830 0 382.75919666 0 33633
0.17650000 0.17650100 8002.92136637 0 20.41625973 0 1787.62684197 0 306.00251932 0 567.96043773 0 33984
0.17750000 0.17750300 8089.37407855 0 -56.34307497 0 1847.91565061 0 0.71120643 0 768.33187105 0 34069
0.17850000 0.17849800 8115.11723376 0 74.94967393 0 1984.38205400 0 -106.97271960 0 809.94498941 0 34536
