### header ###
fiducial parameters:
Omega_m = 0.31
Omega_nu = 0
Omega_de = 0.69
Omega_k = 0
H_0 = 100
w_de = -1
zeff = 0
beta = 0
fgrowth = 0
b_1 = 2
gamma = 0.55
Lx = 3500 Ly = 3500 Lz = 3500
nx = 700 ny = 700 nz = 700
xoffset = -685.467585 yoffset = -31.7331281 zoffset = 572.489161
bins = 400 dk = 0.001
kx_ny = 0.628318531 ky_ny = 0.628318531 kz_ny = 0.628318531
############################
A(data) = 8.12463445 (not used)
A(ran) = 8.12418644 (used)
Ngal = 483037
weighted Ngal = 0
Nran = 23820508
weighted Nran = 0
SN(data) = 3489.7126
SN(ran) = 70.7646103
SN(data+ran) = 3560.47721
############################
13 columns: k_central k_mean P_0(k) sigma^{lin}_{P_0(k)} P^img_1(k) sigma^{lin}_{P_1(k)} P_2(k) sigma^{lin}_{P_2(k)} P^img_3(k) sigma^{lin}_{P_3(k)} P_4(k) sigma^{lin}_{P_4(k)} N_modes
### header ###
0.00050000 0 0 0 0 0 0 0 0 0 0 0 0
0.00150000 0.00179520 2878.07367941 0 -2368.17097686 0 4912.58014786 0 16912.97616048 0 5450.71727870 0 3
0.00250000 0.00253879 10139.62539290 0 -1076.90095526 0 21302.26716509 0 -24805.88290745 0 7720.86496394 0 6
0.00350000 0.00331552 15150.81566559 0 2475.08534531 0 29097.18383742 0 -12290.39127195 0 11586.08069023 0 7
0.00450000 0.00420575 29987.95236908 0 -11350.24017159 0 42145.36501995 0 -26022.62068178 0 25915.99419377 0 24
0.00550000 0.00557378 55710.18087852 0 -24584.76858083 0 65779.79596159 0 -15509.00537348 0 15875.94221797 0 45
0.00650000 0.00659388 96682.87597693 0 -24223.81079174 0 87996.19426371 0 -4399.07893975 0 -10123.38229239 0 40
0.00750000 0.00754703 99225.52464828 0 4969.35902953 0 82402.23431883 0 10164.00665215 0 17080.94332798 0 57
0.00850000 0.00846663 92334.10968116 0 23377.11011286 0 68956.77812181 0 29746.90785778 0 6246.59598666 0 75
0.00950000 0.00948925 81840.97817378 0 15305.82821306 0 64966.86587341 0 19626.13863404 0 6394.30079974 0 112
0.01050000 0.01054430 78187.22170687 0 14030.18567070 0 49247.92922137 0 17758.23743714 0 -10033.48608719 0 105
0.01150000 0.01145670 69028.41606338 0 6519.58415507 0 47680.42019679 0 24690.06638985 0 -5628.66061086 0 144
0.01250000 0.01249090 66137.54277648 0 1926.87239889 0 51709.86064479 0 11804.86982865 0 -6896.74075536 0 169
0.01350000 0.01339930 69862.49429197 0 -6299.05666165 0 47986.68070128 0 15873.83847625 0 -8443.64418345 0 180
0.01450000 0.01448870 76654.59050547 0 -7906.09388583 0 31713.68491531 0 18156.73040736 0 -14476.51108414 0 267
0.01550000 0.01550050 88265.25175680 0 -6458.14382465 0 38840.94040107 0 4743.28430138 0 12072.93081251 0 238
0.01650000 0.01653350 87115.72299413 0 3437.39216762 0 31354.94159119 0 2377.03990904 0 -24592.74065470 0 315
0.01750000 0.01747870 87179.05669209 0 6469.63689781 0 59938.70172676 0 -7923.41100185 0 19333.82925883 0 297
0.01850000 0.01844180 79235.32797420 0 13641.76851606 0 39986.70457331 0 3750.66145372 0 -20264.23671334 0 388
0.01950000 0.01947590 70494.61331587 0 5995.49780442 0 43810.42122618 0 9496.60012906 0 7441.10053275 0 399
0.02050000 0.02045430 73010.68840766 0 1560.13485625 0 51582.52890938 0 6961.66886810 0 -13395.07711910 0 462
0.02150000 0.02154770 71880.64693667 0 797.56945196 0 50268.79756965 0 5944.50974863 0 -2217.69808258 0 571
0.02250000 0.02255340 68546.54848728 0 662.16377729 0 39809.87954595 0 10447.17028706 0 -7171.45620644 0 510
0.02350000 0.02348930 75148.86505339 0 1771.59411563 0 49973.83083648 0 -2970.37257910 0 -1716.05533434 0 555
0.02450000 0.02439640 70071.31833805 0 4129.68927691 0 46837.59483160 0 1198.26913652 0 491.78173575 0 592
0.02550000 0.02547300 68014.63400299 0 3234.73540647 0 38866.96036440 0 12827.62047215 0 -4862.83219245 0 837
0.02650000 0.02652900 65394.81122765 0 -2532.75001297 0 37646.01510665 0 6546.61169995 0 3371.88829400 0 723
0.02750000 0.02749970 70186.13834642 0 -1705.56984274 0 32585.07687854 0 13208.28699941 0 -7052.57265486 0 826
0.02850000 0.02848090 68417.55590314 0 -134.87420308 0 30647.19858878 0 10071.72989711 0 1762.55909858 0 831
0.02950000 0.02946900 67314.86307445 0 1923.19638705 0 22812.42154711 0 9855.18844063 0 3145.68069795 0 996
0.03050000 0.03053250 65058.54472291 0 467.07162845 0 18648.34162931 0 6881.66024896 0 7733.79743933 0 1041
0.03150000 0.03150510 65756.43335622 0 3650.39048016 0 25046.59524901 0 3862.79088716 0 4381.57359421 0 1036
0.03250000 0.03246190 57768.30461581 0 3884.43728218 0 20927.35824673 0 1513.99647873 0 10640.64809094 0 1059
0.03350000 0.03345080 59727.77393897 0 3946.30943326 0 24306.18888839 0 1848.76821962 0 12485.04274226 0 1302
0.03450000 0.03451200 54244.20507253 0 1642.92262892 0 22596.62193639 0 1458.15874467 0 6283.22323716 0 1339
0.03550000 0.03553350 53788.35745975 0 2233.16612035 0 30138.53598661 0 -6177.20572702 0 4820.67985187 0 1365
0.03650000 0.03647120 50612.81470176 0 3633.06229182 0 25888.09193523 0 -2323.04018090 0 1373.87620815 0 1308
0.03750000 0.03744890 49099.44934555 0 2246.85151382 0 30814.61214004 0 -3907.85524917 0 5101.99440853 0 1579
0.03850000 0.03847530 49671.99926192 0 175.46756033 0 27217.10308321 0 5221.48693798 0 -1549.66043697 0 1662
0.03950000 0.03950240 48969.57097543 0 -1944.24487653 0 22433.96948480 0 9798.54242686 0 -2220.98656305 0 1683
0.04050000 0.04050350 50268.46539990 0 503.00132249 0 19935.27794298 0 6423.00026567 0 -5038.43926408 0 1822
0.04150000 0.04152450 48438.32083063 0 729.86440016 0 17806.62349660 0 2543.43480642 0 -2329.82751601 0 1887
0.04250000 0.04250150 47709.31896457 0 2597.03593086 0 16625.98150118 0 3755.41148107 0 585.50785811 0 1920
0.04350000 0.04349210 43555.42558561 0 2897.81563456 0 19439.01634461 0 -887.68821090 0 1242.97918414 0 2005
0.04450000 0.04448520 42946.00482759 0 2684.28585043 0 19874.49087973 0 -931.48922065 0 1426.24830454 0 2151
0.04550000 0.04548030 41423.78161152 0 2140.18073652 0 21882.34626234 0 -2656.66040001 0 4786.01240286 0 2274
0.04650000 0.04648670 39507.16218541 0 1780.20838434 0 20714.88033346 0 -710.22320317 0 4239.77033026 0 2311
0.04750000 0.04749250 40847.24565821 0 -217.39956165 0 23820.88889159 0 3024.64911536 0 7983.16833889 0 2568
0.04850000 0.04851840 39785.52043135 0 -338.28388232 0 21733.20204703 0 5781.22617453 0 5843.74052046 0 2493
0.04950000 0.04949480 39312.95360809 0 860.37500003 0 17917.78963777 0 7912.15044751 0 4887.49025982 0 2644
0.05050000 0.05050630 38561.91781564 0 1022.95326704 0 15923.88538443 0 5142.93986571 0 3763.67143538 0 2829
0.05150000 0.05149060 37107.90012046 0 1057.92077605 0 14006.49089559 0 3497.18272164 0 2964.78105506 0 2784
0.05250000 0.05249300 36407.79702218 0 556.80396325 0 13413.78934805 0 -2726.96966261 0 2572.11212770 0 3055
0.05350000 0.05348950 34946.47159261 0 2352.06074425 0 12239.45857778 0 -2149.75829749 0 4248.38459897 0 3009
0.05450000 0.05448610 35775.56727503 0 -35.87233939 0 15017.83704452 0 -2669.47107983 0 3287.39538331 0 3336
0.05550000 0.05550870 34460.61797957 0 -493.48023038 0 13577.88120186 0 1385.16997946 0 279.26506934 0 3349
0.05650000 0.05647670 35797.93337117 0 -10.95648616 0 15685.49823109 0 -193.16445709 0 -2533.99011335 0 3324
0.05750000 0.05747970 34365.39598613 0 1769.83361599 0 13541.89614620 0 759.88811614 0 -2291.68335701 0 3639
0.05850000 0.05849280 33305.99594748 0 1228.85089767 0 14329.02771755 0 2378.53467289 0 -752.94687571 0 3846
0.05950000 0.05951020 32432.16807279 0 503.58483401 0 12958.27390501 0 2584.01487688 0 -1462.35515577 0 3787
0.06050000 0.06049470 32117.27115495 0 37.25715506 0 11311.37631148 0 2686.03527776 0 -338.98918942 0 3930
0.06150000 0.06148310 32488.96909911 0 -477.40542921 0 9341.00074838 0 1962.73565898 0 -1963.33356452 0 4083
0.06250000 0.06249100 31734.94377896 0 461.45795977 0 8426.79210508 0 838.64888427 0 -22.93565652 0 4303
0.06350000 0.06350600 32060.13795889 0 1034.81615585 0 10182.86282131 0 -1030.39829825 0 -507.98829759 0 4470
0.06450000 0.06451750 31264.03780443 0 497.79843706 0 10121.88752854 0 484.14072439 0 -517.40752431 0 4479
0.06550000 0.06550280 30408.47926569 0 575.61584311 0 9774.61513293 0 574.09561292 0 -194.77215865 0 4636
0.06650000 0.06648880 30235.52955202 0 -99.86816238 0 10382.41933152 0 606.87633777 0 -527.57191849 0 4653
0.06750000 0.06749660 29466.99948636 0 711.19535329 0 10274.56381546 0 1766.66693109 0 -683.49571829 0 5220
0.06850000 0.06852730 29617.58310389 0 1281.13441547 0 10150.67557307 0 478.07530486 0 1162.74911851 0 5029
0.06950000 0.06949320 27690.33424596 0 661.06650990 0 10154.17442771 0 355.79587126 0 1913.91777885 0 5040
0.07050000 0.07048030 28419.00394227 0 430.64921596 0 10275.88142212 0 -496.86393284 0 2302.89962206 0 5475
0.07150000 0.07148790 27314.65026486 0 -178.79479394 0 11985.68089294 0 460.08720596 0 2550.23321385 0 5509
0.07250000 0.07249820 28506.91820133 0 543.19386158 0 11959.32875987 0 -1843.43135906 0 530.33224907 0 5916
0.07350000 0.07351270 27811.24403298 0 850.56713471 0 14150.76328797 0 -1478.46538838 0 1414.24590444 0 5721
0.07450000 0.07449140 27042.93541381 0 915.36127231 0 13486.31307561 0 -1349.78282934 0 1279.13032467 0 6028
0.07550000 0.07549160 26289.35298666 0 760.94663039 0 13338.49753928 0 1648.77988874 0 1953.60099100 0 6183
0.07650000 0.07648840 26098.68755328 0 -2.87189532 0 13151.70741959 0 2966.76300121 0 1579.13496564 0 6330
0.07750000 0.07749960 25598.21847148 0 -3.16865577 0 10467.18905033 0 4578.80491620 0 1032.91393045 0 6583
0.07850000 0.07848650 25434.34806416 0 16.61789870 0 9965.74560395 0 1676.75965356 0 71.18497277 0 6549
0.07950000 0.07947320 24773.21954924 0 942.49400428 0 8010.29553470 0 465.18047537 0 2040.18657108 0 6828
0.08050000 0.08048110 24688.84843412 0 1018.54537453 0 9414.38811728 0 -1345.02172967 0 4270.85034602 0 7147
0.08150000 0.08149960 23312.89062891 0 586.90961443 0 9149.28344414 0 -965.19891356 0 3384.47752732 0 7386
0.08250000 0.08250610 23792.21157031 0 436.56294465 0 10296.69739278 0 788.52004089 0 4568.90625782 0 7227
0.08350000 0.08350160 23165.96087856 0 171.95098997 0 9905.97719457 0 667.84387992 0 2319.55239858 0 7798
0.08450000 0.08449610 22864.90436675 0 415.88427082 0 9688.51673514 0 1000.44101622 0 2867.54389851 0 7371
0.08550000 0.08548940 22621.42394398 0 323.21001932 0 9616.75699799 0 496.76981808 0 1695.75976295 0 8256
0.08650000 0.08650700 22246.51502562 0 332.78647305 0 9246.23272026 0 570.42181554 0 1752.28398115 0 8037
0.08750000 0.08749060 22083.97329729 0 224.77040828 0 9043.42094655 0 1181.77137254 0 1974.18444284 0 8155
0.08850000 0.08849210 21756.45392915 0 -209.95120875 0 8220.81364648 0 476.00145842 0 341.51146501 0 8718
0.08950000 0.08949900 22318.59586019 0 -239.40027107 0 8005.99947267 0 918.44602201 0 1145.24377297 0 8571
0.09050000 0.09049190 21903.93729574 0 320.35557398 0 8103.98954731 0 -310.52002784 0 -60.03447734 0 8932
0.09150000 0.09150830 21751.80355273 0 817.20068387 0 8803.67189725 0 -45.47946347 0 989.60896085 0 9285
0.09250000 0.09250820 20801.02302055 0 1068.13942463 0 8703.12411558 0 -682.49035119 0 640.99570670 0 9204
0.09350000 0.09350330 20304.20780594 0 824.50288209 0 8951.86389263 0 373.79504248 0 1517.74999684 0 9349
0.09450000 0.09448040 19652.82293686 0 42.78180225 0 7763.90309051 0 784.03574934 0 1240.74257453 0 9564
0.09550000 0.09549270 19820.56865786 0 -61.58272052 0 8209.03269287 0 1214.99941932 0 602.11634534 0 10155
0.09650000 0.09649430 19376.90060238 0 90.29768770 0 6702.53217804 0 686.71555034 0 -286.22845442 0 9913
0.09750000 0.09749140 19436.35898665 0 241.21723957 0 6536.34765484 0 266.80095330 0 -1412.57398339 0 10476
0.09850000 0.09850240 18820.51628024 0 746.83384518 0 5583.43016397 0 36.21768521 0 -657.48239836 0 10575
0.09950000 0.09950330 18255.82771449 0 709.06171629 0 6297.69476570 0 -518.06522040 0 -1129.89753077 0 10882
0.10050000 0.10051200 17660.35808574 0 847.56874915 0 5427.90828957 0 337.07367722 0 -1063.93304843 0 10875
0.10150000 0.10150300 17179.04412587 0 422.50109213 0 6571.10368245 0 225.86656844 0 -841.57640696 0 11118
0.10250000 0.10250800 16536.18494690 0 -123.43095538 0 6030.46420620 0 989.65878631 0 -536.52832204 0 11575
0.10350000 0.10349800 16797.04891963 0 103.42138214 0 5607.64533835 0 1119.64455799 0 -594.52515944 0 11364
0.10450000 0.10450100 16778.33669069 0 -24.62219304 0 6149.41419173 0 431.24379980 0 467.05944890 0 12093
0.10550000 0.10551000 16888.94921563 0 138.52253411 0 5621.91756504 0 467.70828713 0 844.55264787 0 12067
0.10650000 0.10649700 16607.60144198 0 104.57600417 0 6202.40633831 0 -234.16195419 0 1133.13064962 0 12054
0.10750000 0.10749900 16560.43333826 0 667.95017424 0 6463.31460034 0 -246.74122242 0 1331.66850594 0 12807
0.10850000 0.10850100 15960.31333309 0 726.74754073 0 6260.51389896 0 -649.25898272 0 1030.79136578 0 12736
0.10950000 0.10950300 15424.19136537 0 368.59880045 0 6659.15080940 0 -117.53494241 0 1740.71340171 0 12933
0.11050000 0.11050200 15340.81675948 0 71.81122346 0 6513.38365317 0 988.19945390 0 1323.19817745 0 13428
0.11150000 0.11150900 15111.50891249 0 32.54156264 0 6162.30237782 0 1015.39972705 0 395.49015573 0 13453
0.11250000 0.11250000 15204.18427122 0 202.82284603 0 5550.67822716 0 549.94133633 0 533.63955249 0 13668
0.11350000 0.11349100 14799.26935260 0 3.22759376 0 4868.45693346 0 4.51995551 0 -238.20556722 0 13791
0.11450000 0.11448600 14733.16757344 0 342.66741572 0 4564.21159209 0 128.50983078 0 182.17960364 0 14205
0.11550000 0.11549300 14285.07058802 0 508.74896630 0 4665.71159371 0 -451.89036389 0 -1047.12193766 0 14776
0.11650000 0.11649800 13791.13417786 0 824.80958548 0 4535.23531804 0 -271.74806802 0 -986.29944296 0 14553
0.11750000 0.11747300 13265.19874898 0 401.35516619 0 4447.58679478 0 -408.57100027 0 -615.31012759 0 14568
0.11850000 0.11849100 13295.31547249 0 -52.61923068 0 5183.59744245 0 129.53180636 0 -222.85489609 0 16015
0.11950000 0.11950300 13268.85261617 0 -220.62050094 0 5288.29734593 0 94.40264140 0 -522.58937233 0 15270
0.12050000 0.12050700 13912.92975087 0 -399.19274115 0 5208.55446259 0 680.57483900 0 -577.83141531 0 15999
0.12150000 0.12150000 13953.56518295 0 -273.98689210 0 5235.39377795 0 195.55275755 0 376.02500870 0 15670
0.12250000 0.12250700 14308.21174690 0 51.95633060 0 5499.60159277 0 266.25840938 0 436.78217668 0 16887
0.12350000 0.12352200 14115.44257180 0 387.82146356 0 5564.68471806 0 349.06168330 0 1080.26029861 0 16407
0.12450000 0.12449800 13910.93673240 0 347.98102440 0 5114.03002561 0 428.59087078 0 903.10863767 0 16306
0.12550000 0.12549900 13558.06174043 0 68.03821805 0 5098.37375832 0 489.37129064 0 1309.00345703 0 17523
0.12650000 0.12650100 13698.68026563 0 -72.08614929 0 5041.42879178 0 391.47643799 0 1082.05180076 0 17154
0.12750000 0.12750600 13698.34809588 0 -75.29203021 0 4604.14946771 0 -5.73942815 0 1060.99998958 0 18007
0.12850000 0.12850300 13819.03643641 0 182.40990799 0 4901.21994260 0 -196.50165579 0 657.67284235 0 17496
0.12950000 0.12949900 13446.34198301 0 459.35864698 0 4637.99756468 0 -502.03027960 0 639.48876330 0 18405
0.13050000 0.13049000 13034.00860677 0 334.39417462 0 4566.35962311 0 124.33999325 0 456.16317404 0 18100
0.13150000 0.13148800 12855.96562368 0 305.68806529 0 5084.97624529 0 -9.73149950 0 131.84260055 0 19059
0.13250000 0.13249300 12648.58097983 0 135.90060759 0 4909.59062016 0 377.03037579 0 255.59243888 0 18957
0.13350000 0.13349100 12549.15150296 0 126.56995947 0 4802.73161334 0 531.84805034 0 264.39825881 0 19468
0.13450000 0.13450700 12515.82380525 0 139.55668925 0 4398.19315376 0 489.13323565 0 590.36196531 0 19953
0.13550000 0.13551000 12415.72998889 0 -85.10177783 0 4112.82612621 0 512.96641483 0 434.27983127 0 19956
0.13650000 0.13649900 12385.05964915 0 63.42880923 0 3736.41137168 0 798.91473943 0 989.71746963 0 19723
0.13750000 0.13749600 12240.56581026 0 54.62343220 0 3373.84809549 0 663.30865568 0 1112.19288338 0 20946
0.13850000 0.13851100 12223.51443004 0 123.17961361 0 2986.44959473 0 874.28073277 0 762.87653661 0 20955
0.13950000 0.13949800 11893.44842720 0 129.11105801 0 2513.34022756 0 173.83882135 0 984.35624996 0 20506
0.14050000 0.14048300 12007.60409608 0 278.43243052 0 2831.02737126 0 65.92030376 0 1098.99688666 0 21447
0.14150000 0.14148400 11577.22283038 0 334.86474842 0 2732.01864273 0 -339.82625717 0 1205.94225762 0 21771
0.14250000 0.14249400 11232.43063552 0 322.16811355 0 2631.34906548 0 -14.43410408 0 961.87943058 0 22470
0.14350000 0.14350900 11008.02782842 0 270.54561355 0 2775.25607114 0 21.01737625 0 1225.29668141 0 22519
0.14450000 0.14449900 11113.18169723 0 -0.13505357 0 3020.28661938 0 -32.93562668 0 691.00164728 0 22218
0.14550000 0.14550500 10893.78358095 0 67.75155557 0 2889.86570534 0 1.44420762 0 699.41882861 0 23559
0.14650000 0.14650700 10981.40995956 0 308.44396694 0 3112.22013235 0 -210.59561805 0 686.10878694 0 23044
0.14750000 0.14750500 10660.23503355 0 114.33061161 0 3229.95216215 0 -287.48073436 0 720.59686429 0 23649
0.14850000 0.14849900 10669.13718270 0 153.20554405 0 3439.73950049 0 -269.27783236 0 678.69143655 0 23640
0.14950000 0.14949500 10598.51789501 0 246.56295799 0 3304.45783585 0 82.90779667 0 528.88731068 0 24457
0.15050000 0.15050000 10337.44354811 0 183.35880623 0 3519.29415431 0 242.72418298 0 736.61851830 0 24591
0.15150000 0.15149900 10208.42881932 0 172.24662104 0 3269.61322965 0 292.94935559 0 751.38235622 0 25020
0.15250000 0.15250500 10043.56190277 0 99.04294201 0 3129.32687419 0 462.64491299 0 515.20856060 0 25297
0.15350000 0.15350100 10068.23104247 0 269.83255583 0 3138.14044475 0 120.17347742 0 728.17919233 0 25452
0.15450000 0.15450400 9849.99552029 0 81.71176414 0 2852.47446443 0 166.51558572 0 993.05688280 0 26061
0.15550000 0.15549900 9642.02404322 0 90.71489290 0 2775.49966229 0 181.62598740 0 866.32637462 0 26128
0.15650000 0.15649500 9551.37491993 0 224.18136060 0 2936.85665187 0 -78.59645483 0 844.82724152 0 26331
0.15750000 0.15749700 9407.99938586 0 231.09824192 0 2988.74156597 0 -336.03730762 0 602.88033575 0 27345
0.15850000 0.15849900 9193.09663345 0 256.34424974 0 3011.25160233 0 -43.83234443 0 617.56113122 0 26980
0.15950000 0.15949700 9080.92291071 0 113.27431182 0 3101.02601196 0 31.08787712 0 614.04013193 0 27777
0.16050000 0.16050000 9035.50423431 0 -1.00901653 0 3053.18249642 0 124.14179863 0 517.99103583 0 28224
0.16150000 0.16150500 9136.81600640 0 -3.44163287 0 2927.31230788 0 347.48830595 0 347.33993679 0 28075
0.16250000 0.16249700 9023.65684675 0 -1.77462793 0 2835.42308421 0 219.97609164 0 411.57492200 0 28590
0.16350000 0.16349900 9030.66562836 0 164.28008333 0 2861.62020473 0 44.10715953 0 138.38634451 0 29163
0.16450000 0.16449100 8840.35450938 0 284.84662828 0 2871.14240407 0 6.85820906 0 553.92848049 0 28996
0.16550000 0.16550500 8666.09826138 0 183.60793354 0 2782.38664833 0 -114.47455184 0 389.25975856 0 30777
0.16650000 0.16650700 8468.56798662 0 50.36424101 0 2924.87639642 0 -125.30771444 0 655.87137510 0 29211
0.16750000 0.16749900 8707.30945436 0 36.95742723 0 2894.48286479 0 121.78560791 0 38.81425610 0 30922
0.16850000 0.16850800 8492.34026800 0 65.89893418 0 3013.73180309 0 91.65759063 0 303.17354032 0 30867
0.16950000 0.16949900 8542.39824851 0 177.08522699 0 2867.47746456 0 -120.66730311 0 251.91421258 0 30852
0.17050000 0.17049200 8463.28648768 0 69.87456313 0 2870.62200481 0 -23.09454438 0 491.25690755 0 31257
0.17150000 0.17149500 8373.81103082 0 13.22312391 0 3043.59386312 0 -38.64407447 0 463.87947721 0 32608
0.17250000 0.17250900 8423.38182903 0 104.60169196 0 3185.60750125 0 332.09223829 0 45.13898948 0 32361
0.17350000 0.17350400 8317.14287240 0 119.98303343 0 3113.55988365 0 13.32576437 0 578.32634823 0 32508
0.17450000 0.17449800 8229.81544655 0 110.00255056 0 2922.41834031 0 392.28803939 0 713.15626201 0 32791
0.17550000 0.17549800 8088.15612282 0 66.52928163 0 2952.75651031 0 239.46006162 0 708.63653902 0 33633
0.17650000 0.17650100 8128.64761469 0 58.87730867 0 2723.85833934 0 366.90141305 0 653.90271574 0 33984
0.17750000 0.17750300 7962.45201916 0 103.51859715 0 2550.24428618 0 219.92073001 0 984.17134213 0 34069
0.17850000 0.17849800 7963.85820441 0 62.92523990 0 2326.89334994 0 226.47222461 0 787.52353166 0 34536
