### header ###
fiducial parameters:
Omega_m = 0.31
Omega_nu = 0
Omega_de = 0.69
Omega_k = 0
H_0 = 100
w_de = -1
zeff = 0
beta = 0
fgrowth = 0
b_1 = 2
gamma = 0.55
Lx = 3500 Ly = 3500 Lz = 3500
nx = 700 ny = 700 nz = 700
xoffset = -685.467585 yoffset = -31.7331281 zoffset = 572.489161
bins = 400 dk = 0.001
kx_ny = 0.628318531 ky_ny = 0.628318531 kz_ny = 0.628318531
############################
A(data) = 8.02604196 (not used)
A(ran) = 8.01774732 (used)
Ngal = 476445
weighted Ngal = 0
Nran = 23820508
weighted Nran = 0
SN(data) = 3496.46884
SN(ran) = 69.837487
SN(data+ran) = 3566.30633
############################
13 columns: k_central k_mean P_0(k) sigma^{lin}_{P_0(k)} P^img_1(k) sigma^{lin}_{P_1(k)} P_2(k) sigma^{lin}_{P_2(k)} P^img_3(k) sigma^{lin}_{P_3(k)} P_4(k) sigma^{lin}_{P_4(k)} N_modes
### header ###
0.00050000 0 0 0 0 0 0 0 0 0 0 0 0
0.00150000 0.00179520 12586.46523760 0 -9436.76528574 0 19759.33870161 0 -9237.75131944 0 7541.61509745 0 3
0.00250000 0.00253879 28035.12644081 0 -18332.00530924 0 8405.06820378 0 -24292.56992886 0 -15372.92650146 0 6
0.00350000 0.00331552 31335.23285301 0 -12393.69606250 0 -12392.47810677 0 25461.03236697 0 39758.61468204 0 7
0.00450000 0.00420575 41517.89637248 0 -7624.34750850 0 -4517.19850091 0 -4537.93696530 0 17413.44524229 0 24
0.00550000 0.00557378 45027.71261674 0 -3835.70798065 0 8032.18552087 0 -365.46090359 0 6989.43825874 0 45
0.00650000 0.00659388 48789.20280413 0 3359.24369905 0 7162.50976799 0 -738.98356688 0 15815.81949420 0 40
0.00750000 0.00754703 50385.72131973 0 -2436.28791915 0 16408.96393474 0 5090.43490142 0 20997.77823258 0 57
0.00850000 0.00846663 50023.54557491 0 -2197.64610233 0 18468.74852075 0 10905.38737736 0 33373.31568238 0 75
0.00950000 0.00948925 61438.22667695 0 -2355.31600775 0 23374.56347815 0 2232.23604506 0 -204.21131556 0 112
0.01050000 0.01054430 67639.83580788 0 -245.25310197 0 51946.91911916 0 -938.66408713 0 27279.77244168 0 105
0.01150000 0.01145670 69939.11477972 0 5422.92574340 0 49079.40843763 0 -12367.67609918 0 23823.54624954 0 144
0.01250000 0.01249090 69909.55167245 0 1195.24639185 0 57662.67463704 0 12269.13240829 0 23323.52006073 0 169
0.01350000 0.01339930 67846.55611224 0 -239.29176228 0 47263.65789062 0 25810.03204526 0 -5531.37916500 0 180
0.01450000 0.01448870 76876.36917159 0 1317.23019438 0 55393.73383521 0 23060.77379279 0 5967.69519681 0 267
0.01550000 0.01550050 68817.93116858 0 2275.99387275 0 51748.50305841 0 23011.05905435 0 33198.70511999 0 238
0.01650000 0.01653350 69989.93675063 0 4280.32825607 0 33961.03468375 0 12474.30258718 0 17408.57341936 0 315
0.01750000 0.01747870 66104.32580203 0 635.28570879 0 15649.29172893 0 18445.38591538 0 23584.60547996 0 297
0.01850000 0.01844180 65691.77097928 0 4441.93990912 0 23004.19421296 0 6671.38572833 0 2657.47975205 0 388
0.01950000 0.01947590 63362.37528394 0 3672.78979327 0 33435.20997811 0 -4675.25593770 0 23883.66897331 0 399
0.02050000 0.02045430 63614.38139681 0 5040.66480136 0 34934.18131206 0 -3465.02869037 0 13498.49263291 0 462
0.02150000 0.02154770 58387.02612668 0 -570.60672337 0 40919.88010902 0 6825.64535770 0 21936.60065395 0 571
0.02250000 0.02255340 64078.31180671 0 -5469.60666484 0 38156.00638779 0 15364.84370434 0 9137.65750308 0 510
0.02350000 0.02348930 65943.00202942 0 -6642.42052660 0 34529.93073293 0 18821.06989648 0 3585.21877628 0 555
0.02450000 0.02439640 73703.04087857 0 -5102.88019452 0 34989.32148966 0 13851.14617838 0 2781.87732139 0 592
0.02550000 0.02547300 70496.93850408 0 584.87562836 0 22558.53313901 0 5721.04808914 0 1371.06383764 0 837
0.02650000 0.02652900 69687.88372958 0 2098.17233616 0 23452.29119837 0 -1930.45983213 0 6640.03997677 0 723
0.02750000 0.02749970 67327.26407825 0 6334.57667967 0 24023.06954278 0 -5858.56636339 0 1060.59917143 0 826
0.02850000 0.02848090 65426.69952313 0 4935.96489788 0 31717.22805925 0 -10073.60112000 0 6358.32681641 0 831
0.02950000 0.02946900 63422.71945420 0 4660.80655381 0 35073.36043503 0 -10381.98751085 0 1836.37828815 0 996
0.03050000 0.03053250 60436.07055762 0 3386.63663066 0 36311.68924275 0 -6.40683467 0 3891.11389404 0 1041
0.03150000 0.03150510 60837.22088580 0 -668.63333668 0 40223.20943143 0 5507.08648435 0 -1950.71111422 0 1036
0.03250000 0.03246190 58100.69580687 0 1547.14701923 0 32307.05080234 0 4894.65405398 0 -7541.61509745 0 1059
0.03350000 0.03345080 59130.53273825 0 1603.18405514 0 33000.51050573 0 6669.82453053 0 -7554.85759793 0 1302
0.03450000 0.03451200 53933.95853112 0 2223.55534241 0 24783.73825782 0 6567.68233408 0 -10321.96443801 0 1339
0.03550000 0.03553350 50101.60546489 0 2492.63498015 0 19096.77078446 0 7867.08608549 0 -15249.02718674 0 1365
0.03650000 0.03647120 49532.48796921 0 2251.46867327 0 18227.81473270 0 1155.62961365 0 -15508.45175724 0 1308
0.03750000 0.03744890 48073.81989760 0 868.47219117 0 12853.64043547 0 -2908.23469222 0 -17877.04348244 0 1579
0.03850000 0.03847530 45773.98730952 0 3126.90203506 0 15032.56323653 0 -3039.25351180 0 -13275.05311807 0 1662
0.03950000 0.03950240 44035.41086649 0 1401.34664602 0 17877.04348244 0 -3264.94070857 0 -9721.13580405 0 1683
0.04050000 0.04050350 43823.59729271 0 1256.85280714 0 19932.39913853 0 160.87866515 0 -8965.37212891 0 1822
0.04150000 0.04152450 41895.13047905 0 3482.72226543 0 18684.76957796 0 3023.63046148 0 -10104.57041252 0 1887
0.04250000 0.04250150 41906.75642011 0 680.53276417 0 22349.70909293 0 61.79995953 0 -6125.76370592 0 1920
0.04350000 0.04349210 41201.44932916 0 -562.51506839 0 21302.93150458 0 996.49594689 0 -6035.23637820 0 2005
0.04450000 0.04448520 41655.19320023 0 180.95279005 0 25743.81954284 0 -751.85846618 0 2344.28797223 0 2151
0.04550000 0.04548030 42959.51306387 0 5.17169469 0 22780.64397488 0 4517.33136881 0 -3776.70356169 0 2274
0.04650000 0.04648670 41297.77855508 0 1642.20292780 0 21792.77115456 0 4862.24535924 0 -354.10512726 0 2311
0.04750000 0.04749250 41223.26180905 0 451.96676293 0 19271.38134685 0 3906.27190672 0 1538.64347377 0 2568
0.04850000 0.04851840 41664.60467633 0 336.09377648 0 20037.14333131 0 3395.17339309 0 1166.98981891 0 2493
0.04950000 0.04949480 39582.34327093 0 728.68519757 0 20282.94894229 0 1371.52887529 0 3306.01903365 0 2644
0.05050000 0.05050630 39212.63834524 0 1536.59509368 0 16000.61659543 0 5312.10284429 0 3513.06043543 0 2829
0.05150000 0.05149060 38645.07097503 0 -294.31235877 0 14658.54010416 0 4944.08091197 0 8894.34316519 0 2784
0.05250000 0.05249300 38151.90962761 0 -340.91688117 0 13817.04341794 0 5946.91244312 0 5093.62373097 0 3055
0.05350000 0.05348950 38141.39091903 0 235.82833908 0 10639.05367617 0 1810.94515804 0 4678.26761005 0 3009
0.05450000 0.05448610 37862.14688711 0 202.72762403 0 10984.79809095 0 188.88500355 0 1308.35018987 0 3336
0.05550000 0.05550870 36799.09298127 0 1232.38296929 0 10989.17165926 0 -4016.85121468 0 617.33747026 0 3349
0.05650000 0.05647670 36624.59314213 0 100.00213751 0 10415.25984693 0 -3163.92788925 0 -2192.25388014 0 3324
0.05750000 0.05747970 36008.19681947 0 465.72080482 0 10695.75505156 0 -1112.80186125 0 -2150.78802370 0 3639
0.05850000 0.05849280 36317.44685166 0 570.55357621 0 10856.82416070 0 -460.81908663 0 -3957.51462598 0 3846
0.05950000 0.05951020 35216.96848793 0 658.41579534 0 9811.06522623 0 714.40522025 0 -6579.93939765 0 3787
0.06050000 0.06049470 34710.52035073 0 810.72448108 0 10393.46951169 0 1278.72064866 0 -6164.37290256 0 3930
0.06150000 0.06148310 33925.82469083 0 1578.72528962 0 10307.06108881 0 -1564.17625481 0 -7638.26542079 0 4083
0.06250000 0.06249100 33104.36891253 0 832.62111064 0 10786.49275345 0 -130.38991153 0 -3622.01211165 0 4303
0.06350000 0.06350600 32480.99702524 0 229.18162249 0 10719.57162225 0 436.99365808 0 -5522.60988375 0 4470
0.06450000 0.06451750 31953.29002439 0 29.28530264 0 11052.62715279 0 1229.10556114 0 -4790.49669441 0 4479
0.06550000 0.06550280 32633.90583099 0 431.15079228 0 10633.58394771 0 1559.61445698 0 -4977.80721337 0 4636
0.06650000 0.06648880 31124.52651171 0 1711.50460884 0 11816.49576971 0 376.20770206 0 -3634.34668150 0 4653
0.06750000 0.06749660 30370.61191481 0 1356.21585006 0 11096.57321000 0 754.64315587 0 -398.10100992 0 5220
0.06850000 0.06852730 28921.35531930 0 669.74389086 0 11664.36202670 0 2701.30401368 0 1905.97892196 0 5029
0.06950000 0.06949320 28627.49581861 0 381.59660255 0 11106.98119533 0 3509.01903688 0 2286.05861601 0 5040
0.07050000 0.07048030 28699.24448343 0 -334.21480295 0 9975.62211768 0 3175.21058824 0 4296.28347613 0 5475
0.07150000 0.07148790 28964.75883259 0 -481.70038400 0 8475.38853871 0 2408.92820452 0 1627.00062583 0 5509
0.07250000 0.07249820 28016.96782811 0 335.80700326 0 8464.85875780 0 -761.07506936 0 2401.98585686 0 5916
0.07350000 0.07351270 28110.52897283 0 1224.63234192 0 8374.82968470 0 -1917.26162095 0 4.46013174 0 5721
0.07450000 0.07449140 27236.92254464 0 655.29007804 0 8189.52325654 0 -2068.60922889 0 -80.23936639 0 6028
0.07550000 0.07549160 26441.81889941 0 298.88855062 0 8930.10677436 0 -1579.14603796 0 -2384.56908992 0 6183
0.07650000 0.07648840 27164.39881707 0 346.71102874 0 9478.39722705 0 -800.98747864 0 -2880.65353109 0 6330
0.07750000 0.07749960 26597.71723286 0 735.09053748 0 10640.17198097 0 -1136.76237216 0 -4372.33927531 0 6583
0.07850000 0.07848650 26609.78606691 0 53.97082937 0 10301.50278175 0 307.48621084 0 -2100.28715020 0 6549
0.07950000 0.07947320 26053.73391452 0 198.75376666 0 10592.18452521 0 1636.64462074 0 -2604.04471247 0 6828
0.08050000 0.08048110 26068.01721353 0 339.08773311 0 9894.15195167 0 2239.92023849 0 -979.95721531 0 7147
0.08150000 0.08149960 25936.03510169 0 374.24457887 0 9995.79589350 0 1510.24296061 0 -1619.29428775 0 7386
0.08250000 0.08250610 24601.48779130 0 1370.68737860 0 8955.83885724 0 1124.75997205 0 1114.54021624 0 7227
0.08350000 0.08350160 23423.17098410 0 1329.70870445 0 8290.00460427 0 1278.52134681 0 849.85075529 0 7798
0.08450000 0.08449610 22632.93916179 0 382.98285762 0 7523.87723309 0 1656.90697516 0 1309.24704818 0 7371
0.08550000 0.08548940 22440.83432619 0 225.20776511 0 7491.19173023 0 1244.36322474 0 1570.80857737 0 8256
0.08650000 0.08650700 22444.26674689 0 537.60455201 0 7336.10167649 0 -464.42534282 0 1751.38712284 0 8037
0.08750000 0.08749060 21306.80681827 0 690.13357702 0 7876.44219997 0 -13.09213831 0 3053.57002779 0 8155
0.08850000 0.08849210 21134.63216734 0 434.97517327 0 7770.56863005 0 361.72731566 0 2126.65035559 0 8718
0.08950000 0.08949900 20906.76372257 0 32.54422000 0 8179.53601955 0 663.62310970 0 2936.31410796 0 8571
0.09050000 0.09049190 20721.08083536 0 158.50697317 0 7980.22310049 0 949.57143431 0 3287.78291467 0 8932
0.09150000 0.09150830 20931.56573016 0 385.38223041 0 7595.30480050 0 347.40858521 0 2207.19044632 0 9285
0.09250000 0.09250820 20144.21271231 0 492.23459384 0 7419.84166910 0 -305.60502285 0 2041.40452681 0 9204
0.09350000 0.09350330 19804.62451012 0 630.31977111 0 7590.14509713 0 -275.31114215 0 1366.75670329 0 9349
0.09450000 0.09448040 19354.53450624 0 538.56562981 0 7406.63238559 0 -708.60221481 0 275.51598016 0 9564
0.09550000 0.09549270 18903.78016287 0 564.15820139 0 7259.07151273 0 -424.66462440 0 -208.55277412 0 10155
0.09650000 0.09649430 18897.80110747 0 239.68815151 0 7355.93221024 0 161.63822663 0 -244.57326122 0 9913
0.09750000 0.09749140 18279.52248960 0 228.92031563 0 7178.21032458 0 -102.65506654 0 -582.84164229 0 10476
0.09850000 0.09850240 18350.49609169 0 167.70918233 0 7134.05389320 0 774.38178933 0 -908.11111402 0 10575
0.09950000 0.09950330 17948.79214727 0 109.53408050 0 7082.06932818 0 0.50969344 0 -922.28258256 0 10882
0.10050000 0.10051200 17937.27692946 0 730.33940290 0 7673.70793254 0 119.83909321 0 -1168.52887206 0 10875
0.10150000 0.10150300 17055.36625765 0 473.44042969 0 7326.95593619 0 -252.97272683 0 -505.73618672 0 11118
0.10250000 0.10250800 16860.38261759 0 318.16103920 0 7293.39571967 0 180.21648045 0 -1652.05729689 0 11575
0.10350000 0.10349800 16444.28465091 0 186.93848884 0 7300.43771825 0 424.10104306 0 -676.84125107 0 11364
0.10450000 0.10450100 16578.81339746 0 -74.54974156 0 7130.06785627 0 378.60486038 0 -2224.02038005 0 12093
0.10550000 0.10551000 16404.75645131 0 -129.92598112 0 6130.12620189 0 780.00320864 0 -1319.72146746 0 12067
0.10650000 0.10649700 16618.78449005 0 6.98239626 0 5909.79801033 0 422.89305243 0 -1693.95497400 0 12054
0.10750000 0.10749900 16669.60646097 0 318.80766297 0 5849.04416405 0 428.07822214 0 -2014.59842843 0 12807
0.10850000 0.10850100 16295.25115885 0 391.40778957 0 5388.54617484 0 632.99705925 0 -968.71880562 0 12736
0.10950000 0.10950300 15819.03046840 0 500.31406926 0 5644.98121764 0 1028.45731971 0 -26.34593257 0 12933
0.11050000 0.11050200 15585.62586122 0 167.79222477 0 5373.16671567 0 556.20052154 0 536.67115503 0 13428
0.11150000 0.11150900 15446.44673825 0 168.35802056 0 5076.87130352 0 1212.15383185 0 308.15940819 0 13453
0.11250000 0.11250000 15578.65029659 0 -165.85678239 0 4635.35127905 0 140.18116837 0 1107.81931508 0 13668
0.11350000 0.11349100 15510.00188271 0 -240.04910930 0 4737.36060761 0 -266.80648946 0 712.42105964 0 13791
0.11450000 0.11448600 15989.54427061 0 57.68349061 0 5330.75971161 0 -740.02215095 0 568.79418379 0 14205
0.11550000 0.11549300 15492.06471651 0 378.00031145 0 5588.35734852 0 -659.99581609 0 114.11137958 0 14776
0.11650000 0.11649800 15222.67505367 0 584.58553345 0 5143.42704801 0 -338.16873015 0 235.30793981 0 14553
0.11750000 0.11747300 15129.77824844 0 115.41127051 0 5134.31452468 0 852.23684129 0 228.14746735 0 14568
0.11850000 0.11849100 14808.90227519 0 144.37093608 0 4831.98469551 0 1091.85191546 0 -370.30947463 0 16015
0.11950000 0.11950300 14695.74311555 0 253.10338026 0 4423.32733110 0 747.99643929 0 32.25578594 0 15270
0.12050000 0.12050700 14206.45708181 0 580.95381091 0 3820.64961890 0 565.53449137 0 -239.52095941 0 15999
0.12150000 0.12150000 13794.67732181 0 356.01178159 0 3947.21736390 0 340.36880109 0 417.44546862 0 15670
0.12250000 0.12250700 13562.37994711 0 160.85984220 0 3542.37995155 0 190.97878017 0 -350.17334471 0 16887
0.12350000 0.12352200 13303.28754636 0 134.70368928 0 3486.99618281 0 522.34799564 0 498.19814798 0 16407
0.12450000 0.12449800 13268.63116967 0 -13.17141616 0 3374.11383129 0 -29.40433013 0 325.35805033 0 16306
0.12550000 0.12549900 13345.36238067 0 -45.94981583 0 3327.72079030 0 254.22168507 0 489.53848274 0 17523
0.12650000 0.12650100 13391.75542166 0 204.69406892 0 3561.25826537 0 -162.52954878 0 433.80482853 0 17154
0.12750000 0.12750600 13050.17420100 0 485.83036116 0 3478.60336060 0 -278.53208144 0 453.19579099 0 18007
0.12850000 0.12850300 12916.75268694 0 48.29925243 0 3905.70721815 0 -0.41354469 0 337.63725855 0 17496
0.12950000 0.12949900 12683.23735651 0 88.66839510 0 3878.83468582 0 -266.38795558 0 424.27709303 0 18405
0.13050000 0.13049000 12894.05442106 0 210.61997717 0 4277.40516232 0 -337.34162748 0 265.60403498 0 18100
0.13150000 0.13148800 12545.38691252 0 190.21478976 0 4372.94825318 0 -77.01787348 0 166.00625877 0 19059
0.13250000 0.13249300 12775.69126875 0 200.11676984 0 4679.66272298 0 66.86211571 0 778.25156685 0 18957
0.13350000 0.13349100 12316.18978877 0 274.33456310 0 4735.31222752 0 -48.66751795 0 288.07421097 0 19468
0.13450000 0.13450700 12237.90845231 0 255.44074803 0 4328.59251995 0 654.82725487 0 906.02065910 0 19953
0.13550000 0.13551000 12053.11135108 0 -23.10229501 0 4082.99728315 0 469.55293644 0 599.58964081 0 19956
0.13650000 0.13649900 12110.90888664 0 -140.44690416 0 3615.84482673 0 727.00441866 0 296.48696337 0 19723
0.13750000 0.13749600 12081.12433287 0 89.38599247 0 3301.35758490 0 401.24444294 0 639.69803023 0 20946
0.13850000 0.13851100 11843.40151902 0 368.62648126 0 3164.66973502 0 206.42578052 0 752.09209224 0 20955
0.13950000 0.13949800 11527.72953844 0 185.47362027 0 3039.12064390 0 289.43832139 0 678.24411463 0 20506
0.14050000 0.14048300 11637.01338440 0 118.67096294 0 3146.48897766 0 321.06198830 0 766.11740608 0 21447
0.14150000 0.14148400 11192.90243592 0 247.68458450 0 2997.73229373 0 -36.73276976 0 891.17710045 0 21771
0.14250000 0.14249400 11239.18475366 0 79.79049434 0 2922.38512333 0 378.26051108 0 935.29145699 0 22470
0.14350000 0.14350900 11125.36125453 0 27.60806687 0 2843.48373668 0 187.27176582 0 1231.33109843 0 22519
0.14450000 0.14449900 10928.87177830 0 128.94275868 0 2936.39161423 0 -253.71900152 0 585.38716977 0 22218
0.14550000 0.14550500 10809.79999720 0 397.71237132 0 3093.03179344 0 -110.24005193 0 676.11822826 0 23559
0.14650000 0.14650700 10575.18850661 0 236.37641916 0 3026.97430357 0 -192.01736424 0 607.44545527 0 23044
0.14750000 0.14750500 10375.08945249 0 228.45417075 0 3304.88965652 0 76.07395779 0 848.37924332 0 23649
0.14850000 0.14849900 10428.07052675 0 48.03296302 0 3210.02197747 0 -87.74950287 0 392.71875283 0 23640
0.14950000 0.14949500 10391.65365042 0 62.84618350 0 3706.71539651 0 -42.49259313 0 629.87687812 0 24457
0.15050000 0.15050000 10285.51434471 0 282.20477158 0 3723.73355976 0 -349.76477593 0 480.88988983 0 24591
0.15150000 0.15149900 10170.30680497 0 235.09535118 0 3856.22499854 0 -255.16615438 0 588.71108168 0 25020
0.15250000 0.15250500 9909.47604922 0 157.89135191 0 3968.46515523 0 34.52439457 0 481.41139632 0 25297
0.15350000 0.15350100 9910.89330679 0 108.55871941 0 3624.87984378 0 297.63959238 0 430.73115117 0 25452
0.15450000 0.15450400 9846.61846122 0 -123.32576830 0 3394.67513847 0 475.98927886 0 173.08036710 0 26061
0.15550000 0.15549900 9889.45728595 0 59.62413698 0 3017.49639353 0 411.32136576 0 -191.57225678 0 26128
0.15650000 0.15649500 9692.30347022 0 131.64662040 0 2948.65975013 0 329.33855110 0 -281.69323018 0 26331
0.15750000 0.15749700 9514.65909083 0 172.14143396 0 2531.18881517 0 264.41043837 0 -136.37561033 0 27345
0.15850000 0.15849900 9383.82850078 0 61.77272161 0 2383.65008696 0 325.01148656 0 -242.37872644 0 26980
0.15950000 0.15949700 9261.46823921 0 1.47915187 0 2436.39864239 0 384.69574627 0 -117.60912699 0 27777
0.16050000 0.16050000 9344.68783254 0 140.31403626 0 2468.76304784 0 90.65355222 0 93.16021584 0 28224
0.16150000 0.16150500 9197.17124898 0 304.79785038 0 2567.76070404 0 -199.28302378 0 315.81924250 0 28075
0.16250000 0.16249700 8923.51874109 0 331.10237245 0 2613.52262252 0 -271.34171370 0 799.26351766 0 28590
0.16350000 0.16349900 8796.57453705 0 262.52260699 0 3055.96164995 0 -179.51228059 0 627.73991943 0 29163
0.16450000 0.16449100 8618.58691559 0 223.40629787 0 2998.95024946 0 -115.21861206 0 1171.79520788 0 28996
0.16550000 0.16550500 8397.67189080 0 220.28058057 0 3017.71784002 0 183.12850187 0 996.72625124 0 30777
0.16650000 0.16650700 8394.30590406 0 6.74153998 0 2792.82785063 0 207.87957677 0 1008.49170360 0 29211
0.16750000 0.16749900 8360.83426613 0 -132.77489030 0 2935.04079060 0 437.06673543 0 744.46436767 0 30922
0.16850000 0.16850800 8419.66152789 0 -118.90237453 0 2471.27646557 0 407.02973266 0 578.86557045 0 30867
0.16950000 0.16949900 8479.98355351 0 30.12735294 0 2307.91538520 0 114.17449183 0 493.17241975 0 30852
0.17050000 0.17049200 8381.93811724 0 161.10011165 0 2316.93932993 0 -158.83692845 0 470.84064782 0 31257
0.17150000 0.17149500 8381.03018660 0 112.44720916 0 2382.78644562 0 -217.87677885 0 245.58748618 0 32608
0.17250000 0.17250900 8108.21917540 0 281.72755438 0 2387.31502647 0 -144.39529519 0 408.46359872 0 32361
0.17350000 0.17350400 7908.37478474 0 276.11499293 0 2272.81611552 0 126.07613378 0 310.84998312 0 32508
0.17450000 0.17449800 7810.98261564 0 -29.20403177 0 2448.02458345 0 98.61865052 0 229.04321843 0 32791
0.17550000 0.17549800 7872.14613794 0 -76.89419561 0 2217.54307003 0 312.38239288 0 130.27586658 0 33633
0.17650000 0.17650100 7972.67177497 0 -93.86209051 0 2176.18793683 0 184.24902114 0 318.60836112 0 33984
0.17750000 0.17750300 7987.43118395 0 60.28515477 0 2232.74537200 0 31.24643281 0 445.87366259 0 34069
0.17850000 0.17849800 8017.22681004 0 129.03355174 0 2105.21433474 0 99.90625118 0 607.87727594 0 34536
