### header ###
fiducial parameters:
Omega_m = 0.31
Omega_nu = 0
Omega_de = 0.69
Omega_k = 0
H_0 = 100
w_de = -1
zeff = 0
beta = 0
fgrowth = 0
b_1 = 2
gamma = 0.55
Lx = 3500 Ly = 3500 Lz = 3500
nx = 700 ny = 700 nz = 700
xoffset = -685.467585 yoffset = -31.7331281 zoffset = 572.489161
bins = 400 dk = 0.001
kx_ny = 0.628318531 ky_ny = 0.628318531 kz_ny = 0.628318531
############################
A(data) = 8.05368228 (not used)
A(ran) = 8.05347904 (used)
Ngal = 478364
weighted Ngal = 0
Nran = 23820508
weighted Nran = 0
SN(data) = 3483.38773
SN(ran) = 70.1487232
SN(data+ran) = 3553.53646
############################
13 columns: k_central k_mean P_0(k) sigma^{lin}_{P_0(k)} P^img_1(k) sigma^{lin}_{P_1(k)} P_2(k) sigma^{lin}_{P_2(k)} P^img_3(k) sigma^{lin}_{P_3(k)} P_4(k) sigma^{lin}_{P_4(k)} N_modes
### header ###
0.00050000 0 0 0 0 0 0 0 0 0 0 0 0
0.00150000 0.00179520 39656.86001696 0 -52127.95162995 0 22541.03886580 0 -79998.87549370 0 -30488.64289738 0 3
0.00250000 0.00253879 60270.09640859 0 -41019.64175564 0 -30777.29840540 0 -9363.57721868 0 15265.08205772 0 6
0.00350000 0.00331552 66332.52641654 0 -9231.46223895 0 -842.41015301 0 -21754.57163393 0 8772.87976193 0 7
0.00450000 0.00420575 69462.78336602 0 4025.67585756 0 -29277.21983897 0 -5912.54394688 0 30846.05754252 0 24
0.00550000 0.00557378 85924.11939715 0 -32419.10272951 0 -42005.07866450 0 -355.24004055 0 -17500.91660835 0 45
0.00650000 0.00659388 106036.11164423 0 -24266.88213528 0 -55926.20193573 0 -47798.78334910 0 -17474.34302879 0 40
0.00750000 0.00754703 109880.97643751 0 5055.80066939 0 -40468.90431916 0 -24960.34183867 0 -34094.78836756 0 57
0.00850000 0.00846663 102646.65157075 0 26911.50691822 0 -15101.10092716 0 -51790.02427648 0 34136.42030888 0 75
0.00950000 0.00948925 84749.89935013 0 -2909.50800957 0 -36992.52649585 0 2134.51170621 0 10556.93024299 0 112
0.01050000 0.01054430 89807.62660404 0 -6669.14911872 0 -17160.88551317 0 -1223.19293969 0 7045.43100535 0 105
0.01150000 0.01145670 104121.70668309 0 668.65215964 0 -4243.47955907 0 -1303.81053669 0 -21635.32269563 0 144
0.01250000 0.01249090 94798.36629280 0 5998.50947678 0 -12524.57094186 0 -17765.10227853 0 -6563.19804253 0 169
0.01350000 0.01339930 90995.24416409 0 16697.73016601 0 16195.37878899 0 -33193.39040408 0 -1105.99791765 0 180
0.01450000 0.01448870 81419.67621443 0 1630.33339560 0 23610.29327354 0 -6974.09201655 0 3040.71505867 0 267
0.01550000 0.01550050 81706.11725748 0 -5036.85592163 0 50505.85604401 0 2445.93191406 0 -13976.04200234 0 238
0.01650000 0.01653350 78213.24167019 0 1491.70788887 0 29403.44434190 0 14878.32575181 0 -14982.95922134 0 315
0.01750000 0.01747870 76243.14291521 0 2322.49763698 0 28933.20270685 0 21463.36949120 0 -11332.52445188 0 297
0.01850000 0.01844180 73649.78299619 0 -32.42884638 0 5891.21864928 0 14638.49919624 0 -9554.61911110 0 388
0.01950000 0.01947590 75806.22897787 0 -5054.59378599 0 -3623.65081572 0 19429.27269877 0 -2154.65226506 0 399
0.02050000 0.02045430 72973.59611951 0 4311.87330948 0 -7615.17962355 0 -2096.52255976 0 -10962.07768043 0 462
0.02150000 0.02154770 71289.05262161 0 3057.45641380 0 -16513.48668103 0 156.35451323 0 3181.01248645 0 571
0.02250000 0.02255340 68838.30424625 0 733.86150942 0 -14257.72194572 0 -6194.94359138 0 -4543.60599561 0 510
0.02350000 0.02348930 65654.12507490 0 1915.24645783 0 -4070.82879817 0 -8320.64172704 0 -345.94371663 0 555
0.02450000 0.02439640 62825.69969998 0 2864.35506896 0 952.98060312 0 -6642.12157383 0 10573.82661066 0 592
0.02550000 0.02547300 59900.28075964 0 5154.70974700 0 1414.19054281 0 -995.74302880 0 18025.08046527 0 837
0.02650000 0.02652900 57441.33886392 0 4581.27404464 0 2504.05054704 0 6212.65931109 0 20184.62669790 0 723
0.02750000 0.02749970 55532.69151168 0 342.80249808 0 210.40185237 0 11999.74274546 0 15327.86213944 0 826
0.02850000 0.02848090 55314.23454301 0 -671.52764239 0 5253.81812645 0 -585.31409242 0 16714.67082298 0 831
0.02950000 0.02946900 53667.11550299 0 1692.71487363 0 3755.11252829 0 -7618.54561029 0 7509.94824847 0 996
0.03050000 0.03053250 54358.36074141 0 1063.88322297 0 8808.63229877 0 -7668.67002474 0 8594.51568143 0 1041
0.03150000 0.03150510 52314.74174964 0 730.08916836 0 8436.91220996 0 -2917.35828787 0 11719.50220430 0 1036
0.03250000 0.03246190 54160.27685041 0 -1046.21068532 0 8119.63474228 0 2070.14828204 0 4032.09780596 0 1059
0.03350000 0.03345080 53693.02474306 0 -100.69161118 0 9775.63378681 0 4120.39959639 0 4415.18917236 0 1302
0.03450000 0.03451200 55402.70241831 0 2092.83547560 0 8339.47575156 0 -602.04880415 0 -5367.71913186 0 1339
0.03550000 0.03553350 50104.37354609 0 3577.39064263 0 10175.16755557 0 -3866.46689900 0 679.57057914 0 1365
0.03650000 0.03647120 49301.07638050 0 3611.98058536 0 9099.60192268 0 -4153.06295460 0 4541.43581994 0 1308
0.03750000 0.03744890 47014.64130545 0 617.54673720 0 15358.20030945 0 -331.87079179 0 3581.16630539 0 1579
0.03850000 0.03847530 48063.96552851 0 887.16670440 0 17124.90045751 0 181.57394747 0 4193.89768853 0 1662
0.03950000 0.03950240 47114.62439856 0 166.42257819 0 18045.23209644 0 4127.44159497 0 7812.08984812 0 1683
0.04050000 0.04050350 47774.42423450 0 1456.34288340 0 19352.65221102 0 1782.79930835 0 4427.24693409 0 1822
0.04150000 0.04152450 48861.72653169 0 -607.30594398 0 21290.41977753 0 4378.61728348 0 11585.19490425 0 1887
0.04250000 0.04250150 46853.42825609 0 744.73231793 0 21635.10124914 0 4375.80491298 0 12872.02049467 0 1920
0.04350000 0.04349210 45667.91443775 0 3041.81121883 0 17593.59196708 0 2109.07857611 0 13423.31154739 0 2005
0.04450000 0.04448520 45103.89021149 0 1218.59792489 0 22478.81240032 0 -228.67229555 0 13843.94916725 0 2151
0.04550000 0.04548030 41526.53278584 0 1814.30007246 0 20737.35715284 0 2656.87077418 0 12204.80220110 0 2274
0.04650000 0.04648670 41557.42457208 0 1706.03488038 0 23874.47894371 0 825.09968039 0 13919.57314576 0 2311
0.04750000 0.04749250 39427.10927697 0 312.88618366 0 18910.75572751 0 2908.14611362 0 8482.65198379 0 2568
0.04850000 0.04851840 39489.44646570 0 961.11986909 0 20169.34688965 0 3263.25771520 0 8216.28506563 0 2493
0.04950000 0.04949480 38795.32242282 0 49.58330994 0 19370.92154697 0 -1508.86999234 0 7122.29508424 0 2644
0.05050000 0.05050630 39322.14363769 0 960.69912075 0 19835.95918936 0 1074.53147775 0 8970.28824113 0 2829
0.05150000 0.05149060 39029.72353923 0 368.57001240 0 20432.09315759 0 -777.86403548 0 7039.19728648 0 2784
0.05250000 0.05249300 39204.66627137 0 -5.07816677 0 18683.66234548 0 146.88213935 0 3697.24855879 0 3055
0.05350000 0.05348950 38687.69942558 0 1446.02347667 0 21185.78630800 0 1760.48857384 0 6902.83053401 0 3009
0.05450000 0.05448610 37809.22117447 0 1087.32333461 0 19267.39530992 0 415.39930299 0 3890.73743500 0 3336
0.05550000 0.05550870 36861.31944675 0 694.50160916 0 19862.42204567 0 3321.21026330 0 5690.98672726 0 3349
0.05650000 0.05647670 36887.89302631 0 197.94991588 0 20264.01526685 0 1572.85695746 0 6810.79737012 0 3324
0.05750000 0.05747970 36755.35729823 0 256.07629948 0 19728.00402237 0 3505.02192762 0 5916.23103105 0 3639
0.05850000 0.05849280 35739.47149612 0 766.99765591 0 19930.18467356 0 102.20818751 0 6190.62538470 0 3846
0.05950000 0.05951020 35333.33862178 0 1186.76499104 0 17504.45975229 0 1538.14521916 0 4479.27578841 0 3787
0.06050000 0.06049470 34887.45610133 0 549.44972510 0 17364.06267359 0 1081.20033898 0 6215.71527274 0 3930
0.06150000 0.06148310 33275.10416124 0 954.20298778 0 14680.68475379 0 2231.13988491 0 3898.52127935 0 4083
0.06250000 0.06249100 33672.82206872 0 137.98109743 0 13299.63367917 0 2585.44320678 0 2583.27303111 0 4303
0.06350000 0.06350600 32639.33127015 0 -841.74913522 0 12252.30247457 0 2121.67888175 0 1854.55904550 0 4470
0.06450000 0.06451750 33548.59058426 0 -604.68401746 0 10374.62441485 0 1059.90493666 0 144.45287128 0 4479
0.06550000 0.06550280 33002.39280095 0 1414.38984466 0 11165.66451687 0 732.37006727 0 1091.27615457 0 4636
0.06650000 0.06648880 31033.06910871 0 2373.90644112 0 9636.14463874 0 932.48905158 0 -29.34487174 0 4653
0.06750000 0.06749660 29419.27776639 0 833.66744534 0 8312.33748343 0 1407.94575161 0 1749.59340622 0 5220
0.06850000 0.06852730 29231.04824447 0 -611.29308815 0 7484.40439511 0 2140.73435276 0 379.30795301 0 5029
0.06950000 0.06949320 30007.88255375 0 -292.88956503 0 5951.67354279 0 1310.55358251 0 -1368.61685386 0 5040
0.07050000 0.07048030 29065.95988143 0 408.68836692 0 6131.48809785 0 -466.56230151 0 -84.71446791 0 5475
0.07150000 0.07148790 29489.69775224 0 1127.67199348 0 6489.57815481 0 -973.61941658 0 281.32895069 0 5509
0.07250000 0.07249820 28382.35454713 0 738.47423994 0 6627.71647924 0 -1203.36240594 0 517.99878646 0 5916
0.07350000 0.07351270 28486.87729341 0 455.60734334 0 8668.32379867 0 -1114.56236089 0 1680.81212444 0 5721
0.07450000 0.07449140 28205.41879652 0 769.55093401 0 11454.65219463 0 -802.51545946 0 1929.76227567 0 6028
0.07550000 0.07549160 27348.42085556 0 1309.00345703 0 11446.79084401 0 1037.01954849 0 3803.94148075 0 6183
0.07650000 0.07648840 27063.41921473 0 73.72064588 0 11537.25173778 0 1733.93713892 0 3673.58700066 0 6330
0.07750000 0.07749960 26302.86122294 0 211.04072551 0 11850.48780690 0 1539.69534463 0 4396.70946224 0 6583
0.07850000 0.07848650 26294.22480958 0 766.99211974 0 10493.67405130 0 1177.88498653 0 3775.14236389 0 6549
0.07950000 0.07947320 25166.95141979 0 847.69718812 0 10135.11895670 0 432.28459834 0 4001.16173041 0 6828
0.08050000 0.08048110 24333.31608419 0 1246.48911111 0 9750.47746482 0 -20.19580975 0 4545.74295430 0 7147
0.08150000 0.08149960 24253.48462225 0 164.03206326 0 9785.48815590 0 -988.67002771 0 3034.33739958 0 7386
0.08250000 0.08250610 22896.79266222 0 675.49928530 0 10236.65217528 0 87.82379817 0 2210.99932606 0 7227
0.08350000 0.08350160 23302.03975059 0 675.81152486 0 10360.08645236 0 -29.69597516 0 1401.65667112 0 7798
0.08450000 0.08449610 22606.91919847 0 19.12976631 0 10085.16062712 0 252.51101088 0 1342.57474588 0 7371
0.08550000 0.08548940 22805.66742897 0 -291.08809778 0 8885.05348467 0 1300.77671969 0 671.63615117 0 8256
0.08650000 0.08650700 23135.73343181 0 -448.98830756 0 8113.29030016 0 1118.37124063 0 -222.09422737 0 8037
0.08750000 0.08749060 22720.52125111 0 28.99841870 0 7182.78319473 0 780.98975278 0 -455.21095411 0 8155
0.08850000 0.08849210 22610.79451216 0 841.79342452 0 6661.18811717 0 636.37965449 0 -814.29530584 0 8718
0.08950000 0.08949900 21463.92310744 0 848.57079454 0 7130.31144741 0 541.56622983 0 367.61668523 0 8571
0.09050000 0.09049190 21091.67154704 0 784.74548536 0 6695.94414478 0 770.39021623 0 -16.85429284 0 8932
0.09150000 0.09150830 20410.94501719 0 505.96981277 0 7108.42146125 0 250.66303987 0 902.94366003 0 9285
0.09250000 0.09250820 20222.38332553 0 137.05655830 0 7124.89708058 0 536.30576831 0 1592.84250376 0 9204
0.09350000 0.09350330 20072.35332423 0 -80.82996419 0 6811.47278193 0 496.22395247 0 2101.74869708 0 9349
0.09450000 0.09448040 20026.18172974 0 393.02877793 0 6848.28826196 0 962.34889715 0 1760.77645429 0 9564
0.09550000 0.09549270 19714.71723259 0 738.42552171 0 7109.73906790 0 -0.14187081 0 1691.95088321 0 10155
0.09650000 0.09649430 18668.60398373 0 1083.93520321 0 6208.24145349 0 124.32670646 0 1114.76166274 0 9913
0.09750000 0.09749140 18016.66549840 0 640.87058943 0 6340.77718157 0 304.90968086 0 1035.86581225 0 10476
0.09850000 0.09850240 17615.51517023 0 -24.27784374 0 5591.34687622 0 206.03824916 0 83.46440244 0 10575
0.09950000 0.09950330 17010.85551188 0 184.16044255 0 5562.76920586 0 743.03935946 0 55.99927928 0 10882
0.10050000 0.10051200 17130.21517342 0 381.42941045 0 5158.83972415 0 389.65614779 0 -282.07079645 0 10875
0.10150000 0.10150300 16831.48384982 0 134.70590374 0 5004.59116710 0 555.04789253 0 853.31196403 0 11118
0.10250000 0.10250800 17142.50545397 0 203.58572921 0 5347.98824903 0 -324.59848885 0 -237.34746204 0 11575
0.10350000 0.10349800 16270.67059775 0 467.09709480 0 5100.47750003 0 692.54623659 0 908.39567277 0 11364
0.10450000 0.10450100 16500.31061449 0 88.21431906 0 5151.02266283 0 -413.25016474 0 836.86734721 0 12093
0.10550000 0.10551000 16557.66525705 0 -13.39695941 0 5678.14283047 0 -171.68303971 0 1485.86170136 0 12067
0.10650000 0.10649700 16545.37497650 0 293.39446304 0 5777.52801804 0 -232.74026769 0 347.03655509 0 12054
0.10750000 0.10749900 15922.22453571 0 508.96930557 0 5735.85178743 0 -267.48411574 0 1420.14745356 0 12807
0.10850000 0.10850100 16032.94778390 0 210.41846085 0 5397.10508193 0 624.35621697 0 1036.18358797 0 12736
0.10950000 0.10950300 15526.72109319 0 -127.95067837 0 4651.08505262 0 717.80774567 0 580.49984559 0 12933
0.11050000 0.11050200 15679.07628269 0 14.16637527 0 4565.32989690 0 1582.15771031 0 566.01060133 0 13428
0.11150000 0.11150900 15328.19430919 0 238.68278442 0 3908.82961375 0 -48.17579601 0 584.78483530 0 13453
0.11250000 0.11250000 15265.19278097 0 292.06467683 0 4057.04375377 0 848.99154289 0 1313.56525486 0 13668
0.11350000 0.11349100 14860.16713911 0 419.07974376 0 4068.71398413 0 -153.44913520 0 1147.85684162 0 13791
0.11450000 0.11448600 14577.15851674 0 517.00449169 0 3842.39566484 0 447.17798245 0 1067.45183326 0 14205
0.11550000 0.11549300 14298.91099405 0 92.54348734 0 3790.31144889 0 -127.56203977 0 1348.06661900 0 14776
0.11650000 0.11649800 14185.86255765 0 -15.25102021 0 3638.95276862 0 -51.17329578 0 1014.81621553 0 14553
0.11750000 0.11747300 14324.04517139 0 -103.02067470 0 4065.10440624 0 277.31191125 0 448.67053184 0 14568
0.11850000 0.11849100 14321.38781343 0 251.57318497 0 3839.74937921 0 -434.17021525 0 426.41515895 0 16015
0.11950000 0.11950300 14114.88895556 0 362.05062755 0 3633.88164386 0 -86.57539354 0 272.36368928 0 15270
0.12050000 0.12050700 14115.55329505 0 -144.62781401 0 3698.22292338 0 -306.40776640 0 -109.61568353 0 15999
0.12150000 0.12150000 14163.49646152 0 -53.29652479 0 3874.95937213 0 23.56478602 0 -322.11053746 0 15670
0.12250000 0.12250700 14139.35879341 0 313.17627857 0 4179.72511277 0 -64.97926688 0 -171.30215173 0 16887
0.12350000 0.12352200 13935.84946324 0 272.95273696 0 4167.41268757 0 116.73884226 0 622.86920374 0 16407
0.12450000 0.12449800 13722.70721049 0 -32.44711571 0 4357.91203607 0 622.23254507 0 1303.07976326 0 16306
0.12550000 0.12549900 13745.18402987 0 -98.12969666 0 4212.93101490 0 946.57858491 0 821.40041667 0 17523
0.12650000 0.12650100 13709.42042070 0 264.58759556 0 4346.36360129 0 569.42973524 0 913.26195953 0 17154
0.12750000 0.12750600 13406.59233691 0 479.73615358 0 3969.97099140 0 37.61036222 0 1272.08832609 0 18007
0.12850000 0.12850300 13036.55524147 0 445.12628066 0 4019.49750031 0 -582.75417093 0 1501.31866681 0 17496
0.12950000 0.12949900 12891.61850960 0 341.95325077 0 4446.10310325 0 -622.27019097 0 1538.45524425 0 18405
0.13050000 0.13049000 12571.51759909 0 166.46243856 0 4593.71933773 0 -276.51691832 0 1042.79930205 0 18100
0.13150000 0.13148800 12612.59592417 0 38.27691617 0 4616.03007224 0 129.02690834 0 956.17053990 0 19059
0.13250000 0.13249300 12690.43436764 0 11.52950111 0 4877.32586564 0 91.26751263 0 1455.29101254 0 18957
0.13350000 0.13349100 12579.04677997 0 148.37468873 0 4974.65160080 0 369.84886592 0 862.05245724 0 19468
0.13450000 0.13450700 12429.12750192 0 275.92787064 0 4596.42098499 0 137.54816952 0 1480.91237217 0 19953
0.13550000 0.13551000 12316.85412826 0 222.05325977 0 4606.23106478 0 485.93997718 0 1010.64969970 0 19956
0.13650000 0.13649900 12068.61260583 0 -53.68150953 0 4509.07141450 0 202.19504521 0 790.34143832 0 19723
0.13750000 0.13749600 11959.66092961 0 218.59869443 0 3943.30883324 0 258.55428577 0 584.66636142 0 20946
0.13850000 0.13851100 11771.43140770 0 254.03899171 0 3867.75128868 0 95.07185272 0 300.98786341 0 20955
0.13950000 0.13949800 11556.62830621 0 306.76872419 0 3661.65103450 0 -76.24657534 0 258.72258511 0 20506
0.14050000 0.14048300 11381.02123459 0 191.77488032 0 3611.57090935 0 133.31300528 0 580.25846891 0 21447
0.14150000 0.14148400 11123.03606632 0 97.97036591 0 3330.95390914 0 390.61611835 0 31.13936343 0 21771
0.14250000 0.14249400 11157.80316625 0 -23.54585234 0 3359.55372415 0 199.25866467 0 -228.36116322 0 22470
0.14350000 0.14350900 11079.30038328 0 128.40796539 0 3434.63515874 0 -44.13052214 0 -315.69523246 0 22519
0.14450000 0.14449900 11029.18704115 0 322.31094654 0 3509.81624426 0 -411.66017890 0 18.89215422 0 22218
0.14550000 0.14550500 10847.65627575 0 310.94299065 0 3983.06955166 0 -470.63248811 0 221.82074095 0 23559
0.14650000 0.14650700 10706.35126642 0 125.66645776 0 3851.81821326 0 119.86898849 0 361.81700149 0 23044
0.14750000 0.14750500 10485.13728886 0 65.68856001 0 3822.76443294 0 614.17853599 0 99.85852946 0 23649
0.14850000 0.14849900 10515.78548396 0 -98.23001192 0 3440.47027392 0 610.14710253 0 -292.72790909 0 23640
0.14950000 0.14949500 10585.88437239 0 26.52021096 0 3453.72384673 0 492.36746173 0 -180.24526849 0 24457
0.15050000 0.15050000 10348.46051130 0 122.35915434 0 2955.39172362 0 105.30655616 0 -77.31538685 0 24591
0.15150000 0.15149900 10330.60085137 0 261.74754425 0 2955.12598782 0 -27.99050497 0 87.17407415 0 25020
0.15250000 0.15250500 10082.92401750 0 133.77250676 0 3107.95728729 0 -76.66510921 0 222.54819269 0 25297
0.15350000 0.15350100 10051.75542314 0 -44.79364367 0 3129.85834579 0 144.85922560 0 23.23748810 0 25452
0.15450000 0.15450400 9966.02241207 0 130.48402629 0 3185.60750125 0 181.93047633 0 291.32726000 0 26061
0.15550000 0.15549900 10077.32142114 0 140.36829066 0 3314.69973631 0 121.80775256 0 296.17472381 0 26128
0.15650000 0.15649500 9765.10400591 0 212.21107024 0 3206.79993095 0 199.82778216 0 502.73226500 0 26331
0.15750000 0.15749700 9722.87415905 0 252.36374896 0 3098.49044957 0 -21.40380038 0 601.58708821 0 27345
0.15850000 0.15849900 9455.11212796 0 336.08491862 0 3089.21184138 0 67.85253517 0 28.29532607 0 26980
0.15950000 0.15949700 9151.70828328 0 341.01099593 0 2913.78192695 0 -142.48421193 0 657.31742072 0 27777
0.16050000 0.16050000 8990.55059554 0 148.57841951 0 2707.09483956 0 296.72834005 0 248.90254023 0 28224
0.16150000 0.16150500 8947.99965127 0 -150.52382698 0 2395.84071658 0 478.82268678 0 106.89155946 0 28075
0.16250000 0.16249700 8902.62526416 0 -18.97940414 0 2207.36760352 0 646.26391885 0 -252.91404351 0 28590
0.16350000 0.16349900 8868.84360114 0 81.64400152 0 1986.62973594 0 200.98594734 0 -412.40756082 0 29163
0.16450000 0.16449100 8796.40845217 0 104.97394352 0 1948.50772159 0 -6.98853033 0 -36.28068673 0 28996
0.16550000 0.16550500 8660.31850783 0 129.75103839 0 1838.31594499 0 27.14668310 0 194.55514109 0 30777
0.16650000 0.16650700 8671.04759058 0 6.87130763 0 1802.96201184 0 62.76491264 0 503.48407585 0 29211
0.16750000 0.16749900 8718.28212825 0 -94.11376445 0 1772.05915328 0 355.44598579 0 288.42963260 0 30922
0.16850000 0.16850800 8779.83318192 0 -33.00416437 0 1745.52986301 0 159.19013562 0 -53.81570610 0 30867
0.16950000 0.16949900 8748.49850268 0 181.13216171 0 1689.69212895 0 -293.87500194 0 -16.88474173 0 30852
0.17050000 0.17049200 8550.35925005 0 214.58497668 0 1796.39612323 0 -227.88283879 0 44.42493525 0 31257
0.17150000 0.17149500 8433.08118557 0 206.42356606 0 1697.47597330 0 -236.33212986 0 -101.49756570 0 32608
0.17250000 0.17250900 8345.76483205 0 107.71379030 0 1893.74400303 0 -121.05926340 0 -303.03956519 0 32361
0.17350000 0.17350400 8284.94455183 0 24.85006148 0 1808.12171521 0 143.89704058 0 -483.82516314 0 32508
0.17450000 0.17449800 8232.80497425 0 43.09337747 0 1762.94662995 0 71.15552038 0 -511.73849400 0 32791
0.17550000 0.17549800 8194.50580271 0 174.43783412 0 1703.87577704 0 304.50996993 0 -368.81471078 0 33633
0.17650000 0.17650100 8068.43631232 0 173.26306046 0 1674.41232070 0 193.91848241 0 -180.22201661 0 33984
0.17750000 0.17750300 7927.80671480 0 155.52962503 0 1598.72190824 0 168.03913761 0 89.57831876 0 34069
0.17850000 0.17849800 7870.79531431 0 124.82828277 0 1781.35990612 0 149.23279391 0 -88.18619536 0 34536
