### header ###
fiducial parameters:
Omega_m = 0.31
Omega_nu = 0
Omega_de = 0.69
Omega_k = 0
H_0 = 100
w_de = -1
zeff = 0
beta = 0
fgrowth = 0
b_1 = 2
gamma = 0.55
Lx = 3500 Ly = 3500 Lz = 3500
nx = 700 ny = 700 nz = 700
xoffset = -685.467585 yoffset = -31.7331281 zoffset = 572.489161
bins = 400 dk = 0.001
kx_ny = 0.628318531 ky_ny = 0.628318531 kz_ny = 0.628318531
############################
A(data) = 8.08529299 (not used)
A(ran) = 8.08426052 (used)
Ngal = 480730
weighted Ngal = 0
Nran = 23820508
weighted Nran = 0
SN(data) = 3487.24106
SN(ran) = 70.416841
SN(data+ran) = 3557.65791
############################
13 columns: k_central k_mean P_0(k) sigma^{lin}_{P_0(k)} P^img_1(k) sigma^{lin}_{P_1(k)} P_2(k) sigma^{lin}_{P_2(k)} P^img_3(k) sigma^{lin}_{P_3(k)} P_4(k) sigma^{lin}_{P_4(k)} N_modes
### header ###
0.00050000 0 0 0 0 0 0 0 0 0 0 0 0
0.00150000 0.00179520 53260.09684265 0 -53132.76510724 0 17766.32023426 0 24771.89087026 0 -50453.81611737 0 3
0.00250000 0.00253879 82384.74004562 0 -32832.32189174 0 29353.06526398 0 -47573.12936930 0 31906.34336716 0 6
0.00350000 0.00331552 80442.65427243 0 11695.36453619 0 13820.47583863 0 -23806.82703907 0 50359.70135641 0 7
0.00450000 0.00420575 64746.41588627 0 39227.25381400 0 24176.08907177 0 -39428.10578621 0 39836.12095577 0 24
0.00550000 0.00557378 36544.98312668 0 21067.31243244 0 39275.75059670 0 -3236.18588102 0 15450.98639143 0 45
0.00650000 0.00659388 34958.09753367 0 -9333.85909887 0 58621.42724309 0 15297.08107645 0 6728.16461000 0 40
0.00750000 0.00754703 44592.79169786 0 -17870.84298054 0 53440.02212096 0 7588.74998420 0 -32889.89798080 0 57
0.00850000 0.00846663 62312.27599814 0 -9292.55932730 0 52758.29908187 0 22966.54830858 0 -21797.86442397 0 75
0.00950000 0.00948925 70373.26063586 0 -7161.97829639 0 48800.60729869 0 11451.10905069 0 -14030.85001019 0 112
0.01050000 0.01054430 80383.97095089 0 -7497.03791773 0 40522.82654103 0 28712.08838022 0 9352.58240014 0 105
0.01150000 0.01145670 77533.51164958 0 -5331.08080903 0 19698.33019186 0 35352.71519021 0 -16099.60317930 0 144
0.01250000 0.01249090 93076.73050675 0 -5823.45602139 0 19867.51531509 0 25449.51714916 0 -15210.05260337 0 169
0.01350000 0.01339930 81897.22558385 0 3539.40149618 0 4443.53432389 0 1933.08397311 0 -6126.93737235 0 180
0.01450000 0.01448870 79952.03955972 0 13036.44451823 0 5168.84910579 0 -6038.74630517 0 5175.78038113 0 267
0.01550000 0.01550050 78370.02578963 0 3424.16073947 0 18799.92175608 0 -18158.50197933 0 21852.34026208 0 238
0.01650000 0.01653350 73780.87932204 0 -8041.20946559 0 19740.51574942 0 -5723.41756666 0 7496.73896496 0 315
0.01750000 0.01747870 83009.10844214 0 1570.86393900 0 28530.28080670 0 3625.28951980 0 -5281.85325289 0 297
0.01850000 0.01844180 77535.50466805 0 5204.50199171 0 18007.47546881 0 -2798.65189349 0 -5735.67463023 0 388
0.01950000 0.01947590 78799.41054609 0 2824.68292913 0 24995.55183160 0 3334.41954681 0 18117.31293101 0 399
0.02050000 0.02045430 73248.52194476 0 3275.24904298 0 25613.60900297 0 10356.98620141 0 7745.29051249 0 462
0.02150000 0.02154770 74547.19492274 0 413.91782593 0 16300.34442827 0 -2457.53571047 0 2116.69633558 0 571
0.02250000 0.02255340 73261.47656480 0 -182.32686556 0 20633.16657630 0 1650.36323119 0 -3627.14967037 0 510
0.02350000 0.02348930 72841.94617742 0 755.68616887 0 25603.64391064 0 823.53516090 0 10742.57991322 0 555
0.02450000 0.02439640 70680.07475658 0 2489.13612551 0 26512.34960850 0 7991.33971461 0 11666.13359867 0 592
0.02550000 0.02547300 68132.99715530 0 5931.63263487 0 27287.96596205 0 11058.92730562 0 11397.40827532 0 837
0.02650000 0.02652900 67286.96081591 0 4249.01572148 0 24903.98370535 0 8859.06673832 0 11845.39453748 0 723
0.02750000 0.02749970 61011.94217143 0 -1602.16540126 0 19564.13361506 0 7932.87783957 0 4411.87854724 0 826
0.02850000 0.02848090 64113.63252288 0 225.46575028 0 20516.79644246 0 -3529.99002008 0 7205.14929086 0 831
0.02950000 0.02946900 60688.51956348 0 2205.99463524 0 19005.75627445 0 1750.89994055 0 2503.30870127 0 996
0.03050000 0.03053250 61520.93694335 0 -599.07699217 0 18533.41089769 0 -1788.51262796 0 3676.52116673 0 1041
0.03150000 0.03150510 59760.65874368 0 1037.81675588 0 17335.16390582 0 103.26149777 0 1731.22441934 0 1036
0.03250000 0.03246190 59079.04642784 0 4574.56421580 0 17394.40084360 0 5932.80630130 0 3633.61590806 0 1059
0.03350000 0.03345080 55821.78991269 0 2672.29452266 0 21424.72707758 0 6167.25170701 0 7215.73443339 0 1302
0.03450000 0.03451200 52187.74218397 0 1439.96691499 0 16798.70976835 0 5404.34638236 0 8167.09072646 0 1339
0.03550000 0.03553350 55448.76328955 0 -1163.94492959 0 18415.15846863 0 2570.11910923 0 10451.07881772 0 1365
0.03650000 0.03647120 51736.43422436 0 2096.85472951 0 19683.27183011 0 -2001.77667629 0 7267.50862424 0 1308
0.03750000 0.03744890 53868.52109144 0 2029.20282486 0 22467.40790576 0 -4225.80812866 0 6930.59992466 0 1579
0.03850000 0.03847530 51096.67529634 0 -10.50242119 0 19091.78823830 0 424.13647450 0 5925.79751969 0 1662
0.03950000 0.03950240 50080.12515474 0 2040.88412755 0 19160.54737542 0 25.87259068 0 -1901.79358318 0 1683
0.04050000 0.04050350 50293.59957724 0 1114.80595204 0 19190.44265243 0 -516.10984784 0 -5049.25692542 0 1822
0.04150000 0.04152450 48138.48227454 0 2415.01798317 0 20216.73643987 0 -900.18665115 0 -13608.55154161 0 1887
0.04250000 0.04250150 44333.36712736 0 5193.52931781 0 19268.17037266 0 -4005.15883967 0 -5900.07650914 0 1920
0.04350000 0.04349210 40071.85075116 0 2997.18974981 0 15481.87817767 0 1760.10104247 0 -8991.82391290 0 2005
0.04450000 0.04448520 39243.30868498 0 1240.48791106 0 16225.82768224 0 3964.93308361 0 -10183.40536523 0 2151
0.04550000 0.04548030 37690.96874541 0 1088.89449750 0 13483.32354791 0 4298.94083409 0 -9374.64954350 0 2274
0.04650000 0.04648670 36568.12428555 0 1666.00842616 0 12855.41200744 0 4034.98768274 0 -5239.21373001 0 2311
0.04750000 0.04749250 37070.14349283 0 -178.72060936 0 11883.92622785 0 2303.44216597 0 -466.25006195 0 2568
0.04850000 0.04851840 36924.21025172 0 -1777.07491642 0 11656.27922958 0 3509.27370035 0 2650.86957413 0 2493
0.04950000 0.04949480 38712.05854018 0 -914.00269806 0 12716.67577746 0 1314.80535524 0 6523.58126433 0 2644
0.05050000 0.05050630 39497.75070932 0 603.81041103 0 15479.88515920 0 1392.37806292 0 7886.30764138 0 2829
0.05150000 0.05149060 38570.33278251 0 1831.49539290 0 15495.16496745 0 141.19650055 0 9700.00980830 0 2784
0.05250000 0.05249300 37382.93666895 0 2515.33324603 0 18437.41384151 0 -750.12564735 0 13831.21599371 0 3055
0.05350000 0.05348950 35813.21317942 0 1109.84555052 0 17451.53403966 0 877.73640535 0 14195.38475699 0 3009
0.05450000 0.05448610 34446.33468055 0 828.30511843 0 18242.87309445 0 1325.13583430 0 10106.86238376 0 3336
0.05550000 0.05550870 34469.69728592 0 -285.87635449 0 17168.74686379 0 1881.88554315 0 6374.37061507 0 3349
0.05650000 0.05647670 35283.84532984 0 -480.20340569 0 14922.28288134 0 1696.62340429 0 5629.12564850 0 3324
0.05750000 0.05747970 35287.16702728 0 -163.11748923 0 14803.80900578 0 -724.62054713 0 830.43432649 0 3639
0.05850000 0.05849280 34840.06655110 0 37.10989314 0 14184.20170893 0 -1170.67690308 0 1865.98568471 0 3846
0.05950000 0.05951020 35120.63926201 0 -95.59380211 0 13348.13046187 0 680.44197110 0 -4113.05864503 0 3787
0.06050000 0.06049470 34708.74877876 0 174.04255213 0 14922.50432783 0 -1108.91547524 0 -1143.88187701 0 3930
0.06150000 0.06148310 34856.78576158 0 1049.78040285 0 13034.89439275 0 873.18125092 0 -4977.37539270 0 4083
0.06250000 0.06249100 33576.27139630 0 565.60756871 0 13364.62822585 0 195.84617416 0 -4940.49347873 0 4303
0.06350000 0.06350600 33374.09074512 0 609.64552621 0 12160.40217857 0 878.06968233 0 -5515.24678774 0 4470
0.06450000 0.06451750 32231.53754708 0 839.04638073 0 12387.71700710 0 -354.62552652 0 -4615.53181763 0 4479
0.06550000 0.06550280 32358.64783600 0 1081.34317197 0 12707.70719436 0 758.25937716 0 -5183.08811551 0 4636
0.06650000 0.06648880 31239.67868983 0 51.70521027 0 11355.00127127 0 2003.79183940 0 -3509.11868780 0 4653
0.06750000 0.06749660 30982.46858429 0 -78.70075613 0 11426.97138259 0 2322.76337278 0 -2866.64704020 0 5220
0.06850000 0.06852730 32030.13195863 0 -26.83743307 0 11589.73455742 0 929.57038675 0 -4220.64842529 0 5029
0.06950000 0.06949320 31590.22849358 0 373.05098225 0 11511.45322095 0 -25.95607601 0 -2577.00609527 0 5040
0.07050000 0.07048030 31593.10729804 0 792.47507532 0 12923.94969807 0 -927.95936349 0 -1656.33121427 0 5475
0.07150000 0.07148790 30674.99012407 0 1546.10622070 0 12869.91675295 0 -1092.83513790 0 659.04581062 0 5509
0.07250000 0.07249820 30144.29359552 0 955.85608587 0 14767.49178037 0 -63.26228147 0 -897.60569224 0 5916
0.07350000 0.07351270 28768.00362056 0 740.03875944 0 14473.07866345 0 -874.51103713 0 632.28621600 0 5721
0.07450000 0.07449140 28785.05500078 0 937.76058542 0 14333.45664748 0 1883.97821254 0 -730.55642046 0 6028
0.07550000 0.07549160 27745.36370031 0 201.41555354 0 13601.90814671 0 879.70506470 0 -1202.80878970 0 6183
0.07650000 0.07648840 27294.83080344 0 305.21416979 0 13022.49338895 0 1994.19213379 0 478.07198316 0 6330
0.07750000 0.07749960 27330.48368935 0 -204.18806368 0 12483.60334003 0 2444.08283582 0 -1043.70058929 0 6583
0.07850000 0.07848650 26600.70676056 0 -84.61094167 0 11236.63811896 0 1384.42813370 0 -1674.32374210 0 6549
0.07950000 0.07947320 26388.67174028 0 1077.08032692 0 9633.66443799 0 727.60121697 0 -2583.11801857 0 6828
0.08050000 0.08048110 25550.27530501 0 705.74998394 0 9890.25449333 0 -406.08747782 0 -1420.70106981 0 7147
0.08150000 0.08149960 24839.54277490 0 1082.58880852 0 9187.62690499 0 -1317.24126670 0 -1590.42873695 0 7386
0.08250000 0.08250610 24270.53600247 0 708.71958146 0 9999.95908764 0 -694.57247204 0 -1625.70516382 0 7227
0.08350000 0.08350160 23731.09233731 0 651.03387638 0 9918.75465742 0 -187.25515733 0 -2595.48580539 0 7798
0.08450000 0.08449610 23112.48154969 0 863.43981954 0 9738.90688539 0 1475.87446438 0 -2541.61894515 0 7371
0.08550000 0.08548940 22518.45132317 0 617.55448783 0 9364.07547330 0 1127.01872632 0 -2051.17031730 0 8256
0.08650000 0.08650700 22069.46855177 0 449.98038786 0 8943.59286599 0 1637.87364880 0 -1677.83366907 0 8037
0.08750000 0.08749060 21842.15372325 0 -37.52632328 0 8786.46550449 0 970.28443235 0 232.47674636 0 8155
0.08850000 0.08849210 21876.92082318 0 5.01988205 0 8435.20707194 0 915.92263918 0 -335.71399573 0 8718
0.08950000 0.08949900 21530.35705635 0 191.00092482 0 8035.15290392 0 707.68985525 0 701.36091438 0 8571
0.09050000 0.09049190 21500.90467234 0 330.66612285 0 7702.34096452 0 818.47621569 0 411.81297698 0 8932
0.09150000 0.09150830 21227.52897256 0 285.90403530 0 8118.11783378 0 93.60609836 0 787.91881365 0 9285
0.09250000 0.09250820 20688.19603065 0 1026.44547829 0 7339.00262559 0 644.84998297 0 853.83789946 0 9204
0.09350000 0.09350330 20063.16329464 0 490.44087721 0 7124.86386360 0 749.26754218 0 936.43633537 0 9349
0.09450000 0.09448040 19094.77776600 0 614.03902470 0 6680.35431143 0 899.00412686 0 1126.70870122 0 9564
0.09550000 0.09549270 18808.44744619 0 770.56183727 0 6545.23873167 0 623.73838124 0 325.24843432 0 10155
0.09650000 0.09649430 17989.09540961 0 685.90727063 0 5864.61185274 0 -343.66060326 0 1206.79482663 0 9913
0.09750000 0.09749140 17613.41142851 0 449.55742505 0 6287.39750362 0 50.58070496 0 -165.90107169 0 10476
0.09850000 0.09850240 17173.28651697 0 -128.06029439 0 6308.36848683 0 263.91218375 0 1769.23571045 0 10575
0.09950000 0.09950330 17140.51243551 0 150.61019111 0 6422.07019039 0 282.22248730 0 547.93392384 0 10882
0.10050000 0.10051200 17320.54843706 0 253.39347517 0 6146.17000056 0 403.56630945 0 189.65120842 0 10875
0.10150000 0.10150300 16942.09637476 0 256.60666383 0 5826.89951441 0 927.01157249 0 -572.76139778 0 11118
0.10250000 0.10250800 16340.42624411 0 535.78869074 0 5057.00755280 0 -283.81025868 0 -1152.78402617 0 11575
0.10350000 0.10349800 15950.01607100 0 624.34403741 0 5453.85074662 0 -95.99240580 0 554.80762308 0 11364
0.10450000 0.10450100 15780.05588504 0 -49.20397209 0 4564.43303859 0 151.81928898 0 -863.26598404 0 12093
0.10550000 0.10551000 15814.38009198 0 -261.99999325 0 4964.71972543 0 396.08141788 0 -651.07705845 0 12067
0.10650000 0.10649700 16064.94680262 0 172.25880060 0 4513.04637911 0 179.67947269 0 -476.08671532 0 12054
0.10750000 0.10749900 15843.61102950 0 214.33142044 0 4829.23875895 0 366.88591180 0 -22.09892094 0 12807
0.10850000 0.10850100 15672.43288780 0 290.33185800 0 5218.23167448 0 196.22927660 0 861.06923480 0 12736
0.10950000 0.10950300 15793.34267482 0 -6.00617153 0 4890.35799195 0 390.73569946 0 1230.52281872 0 12933
0.11050000 0.11050200 15462.39088599 0 137.79286790 0 4801.96762292 0 662.62438600 0 1278.24453869 0 13428
0.11150000 0.11150900 15509.22681997 0 65.36845909 0 4616.14079549 0 550.61342644 0 1353.14881609 0 13453
0.11250000 0.11250000 15515.20587538 0 104.48786846 0 4587.31953399 0 19.23650352 0 1645.49140827 0 13668
0.11350000 0.11349100 15079.39917051 0 491.76402003 0 4642.06110789 0 -220.19532367 0 708.43834441 0 13791
0.11450000 0.11448600 14886.85144192 0 407.79150861 0 4749.40729701 0 -331.01490108 0 697.40366549 0 14205
0.11550000 0.11549300 14639.49570547 0 223.05751963 0 5159.01688135 0 -547.20315040 0 276.71068401 0 14776
0.11650000 0.11649800 14470.64275199 0 200.84200712 0 5196.78458131 0 -411.72439838 0 691.21977208 0 14553
0.11750000 0.11747300 14558.99990404 0 34.75259519 0 5638.00565301 0 289.48593238 0 206.03935639 0 14568
0.11850000 0.11849100 14322.27359942 0 290.76146420 0 5393.94946935 0 205.79687247 0 124.88364440 0 16015
0.11950000 0.11950300 14266.57980558 0 250.02748843 0 4811.30159275 0 488.04371889 0 -190.90570283 0 15270
0.12050000 0.12050700 13857.90029652 0 375.54557704 0 5183.29848968 0 585.19561855 0 454.31741749 0 15999
0.12150000 0.12150000 13612.75902504 0 88.34098646 0 4750.55881879 0 306.08888345 0 489.73557012 0 15670
0.12250000 0.12250700 13625.04930559 0 -55.19022451 0 5241.66071380 0 534.45336837 0 419.55031756 0 16887
0.12350000 0.12352200 13496.61033769 0 39.54004699 0 4875.25534090 0 242.40640725 0 1267.64832384 0 16407
0.12450000 0.12449800 13848.93171342 0 2.79104521 0 5308.95830404 0 -567.72016829 0 117.16291230 0 16306
0.12550000 0.12549900 13708.75608121 0 230.57009202 0 5810.47925671 0 -424.48303827 0 844.28580484 0 17523
0.12650000 0.12650100 13799.77059122 0 178.47369652 0 5879.62592520 0 -496.71556369 0 660.99675426 0 17154
0.12750000 0.12750600 13301.07308139 0 339.71664116 0 5600.55905047 0 43.78185463 0 980.73559974 0 18007
0.12850000 0.12850300 13402.27413023 0 -89.03754641 0 5352.80471033 0 675.51146486 0 871.89907570 0 17496
0.12950000 0.12949900 13322.88556128 0 -250.41834149 0 4966.28092323 0 1200.78255426 0 -188.04572132 0 18405
0.13050000 0.13049000 13422.31503816 0 126.25439821 0 4450.89741990 0 456.54074032 0 -693.57485557 0 18100
0.13150000 0.13148800 12928.48935124 0 325.64814524 0 3990.96411926 0 -81.20166214 0 -616.52697609 0 19059
0.13250000 0.13249300 12914.53822197 0 323.78578021 0 3753.62883677 0 -209.74083457 0 -141.49545332 0 18957
0.13350000 0.13349100 12660.31764414 0 142.56393267 0 4095.81903529 0 -278.38149782 0 -341.93442782 0 19468
0.13450000 0.13450700 12365.46163422 0 417.29045607 0 4415.85351185 0 219.52655525 0 100.98857093 0 19953
0.13550000 0.13551000 12168.04208270 0 478.73632265 0 4455.61423027 0 364.58286823 0 -357.90072021 0 19956
0.13650000 0.13649900 11674.54856553 0 289.80370811 0 4168.26525658 0 568.75100173 0 453.26001047 0 19723
0.13750000 0.13749600 11492.51954551 0 -2.32847669 0 4216.23056769 0 724.50428772 0 636.20914068 0 20946
0.13850000 0.13851100 11576.77993738 0 -76.25266511 0 3805.61340179 0 431.85277767 0 431.97235878 0 20955
0.13950000 0.13949800 11603.79640994 0 57.11415167 0 3738.30473922 0 521.07357106 0 638.22762550 0 20506
0.14050000 0.14048300 11496.50558245 0 115.05363442 0 3686.37553582 0 -177.15498263 0 430.66360998 0 21447
0.14150000 0.14148400 11473.25370033 0 108.67287508 0 3493.78351793 0 -146.62304695 0 1017.43039142 0 21771
0.14250000 0.14249400 11520.31108081 0 -39.08497444 0 3973.09338700 0 -144.89354981 0 731.16650556 0 22470
0.14350000 0.14350900 11508.90658625 0 293.52622371 0 4103.39250547 0 -60.94871920 0 724.68033768 0 22519
0.14450000 0.14449900 11348.35787638 0 414.22674379 0 4147.11711617 0 -248.33010103 0 1242.99025647 0 22218
0.14550000 0.14550500 10976.96995731 0 347.02991170 0 4299.76018612 0 76.53301638 0 1211.88809605 0 23559
0.14650000 0.14650700 10828.16898407 0 171.63542871 0 3912.09594957 0 200.70471029 0 1336.86142628 0 23044
0.14750000 0.14750500 10619.75461401 0 31.01767858 0 3997.57429717 0 624.22556353 0 582.92689919 0 23649
0.14850000 0.14849900 10419.78842778 0 157.35655863 0 3541.44987627 0 410.08015815 0 638.20658808 0 23640
0.14950000 0.14949500 10355.08176154 0 207.53633470 0 3409.31275188 0 313.77196964 0 -181.72785278 0 24457
0.15050000 0.15050000 10029.82114767 0 171.60885513 0 2863.50249995 0 -50.70692946 0 186.68382537 0 24591
0.15150000 0.15149900 10031.76987684 0 101.46102703 0 2856.49371834 0 160.04824079 0 -30.25147370 0 25020
0.15250000 0.15250500 9953.65462524 0 -55.01572467 0 2856.98090063 0 -63.33879123 0 340.30236714 0 25297
0.15350000 0.15350100 9969.33303719 0 46.17879150 0 2947.45286672 0 484.67994661 0 -72.46039386 0 25452
0.15450000 0.15450400 9900.71784029 0 183.64225774 0 3010.21080380 0 -187.09460862 0 98.10423031 0 26061
0.15550000 0.15549900 9750.28923530 0 281.11525482 0 3066.80145594 0 -34.88978129 0 94.00126963 0 26128
0.15650000 0.15649500 9600.34781261 0 137.68214465 0 3376.94834644 0 -96.30785634 0 196.76739158 0 26331
0.15750000 0.15749700 9530.97969762 0 -6.24027369 0 3227.84842043 0 232.14568385 0 597.59330065 0 27345
0.15850000 0.15849900 9408.60836372 0 122.69907471 0 3258.12015649 0 411.63139085 0 262.09410801 0 26980
0.15950000 0.15949700 9451.02644010 0 109.76925668 0 3038.01341142 0 400.98645777 0 426.92891482 0 27777
0.16050000 0.16050000 9359.75726662 0 7.00592495 0 2598.36460984 0 513.67504361 0 655.02544948 0 28224
0.16150000 0.16150500 9366.26779361 0 46.24810426 0 2657.09222068 0 31.80337075 0 861.06812757 0 28075
0.16250000 0.16249700 9280.35762535 0 141.02487952 0 2493.83079123 0 -55.56347257 0 618.52220902 0 28590
0.16350000 0.16349900 9190.04067180 0 200.44893959 0 2772.59871319 0 -131.03764253 0 876.07334216 0 29163
0.16450000 0.16449100 9055.87731197 0 280.99899541 0 2739.08278596 0 -103.80060926 0 819.62109407 0 28996
0.16550000 0.16550500 8788.28136576 0 201.49748875 0 2811.58436887 0 55.45773187 0 661.13294385 0 30777
0.16650000 0.16650700 8648.08358890 0 144.81936523 0 2545.39460791 0 272.84533541 0 657.95075770 0 29211
0.16750000 0.16749900 8519.38995754 0 35.98560928 0 2466.33820870 0 215.70660319 0 408.85445179 0 30922
0.16850000 0.16850800 8465.47880799 0 75.12561317 0 2430.54138257 0 351.89176953 0 535.89055613 0 30867
0.16950000 0.16949900 8465.97706261 0 68.03954673 0 2209.73708103 0 491.93564107 0 812.62227756 0 30852
0.17050000 0.17049200 8286.48360498 0 161.03146323 0 1895.48235803 0 289.03418153 0 674.42526980 0 31257
0.17150000 0.17149500 8270.56160189 0 65.05655170 0 2148.87251150 0 -44.15432764 0 647.51398432 0 32608
0.17250000 0.17250900 8123.34397110 0 315.26894796 0 2329.68357579 0 -333.78630398 0 815.79782031 0 32361
0.17350000 0.17350400 7979.48125473 0 185.93422898 0 2430.82926301 0 -489.00036776 0 1175.22762858 0 32508
0.17450000 0.17449800 7971.53132551 0 92.44427931 0 2682.07138547 0 0.16065279 0 1258.62437911 0 32791
0.17550000 0.17549800 8016.93892959 0 -87.16377688 0 2786.25088969 0 -162.69120472 0 1053.68561181 0 33633
0.17650000 0.17650100 8001.75877226 0 22.97374532 0 2897.68276666 0 123.75094557 0 692.25503445 0 33984
0.17750000 0.17750300 8058.44907534 0 102.10654357 0 2827.62816754 0 -93.72412934 0 503.59369187 0 34069
0.17850000 0.17849800 7846.50263366 0 174.16766940 0 2599.98116926 0 112.15268532 0 711.19978222 0 34536
