### header ###
fiducial parameters:
Omega_m = 0.31
Omega_nu = 0
Omega_de = 0.69
Omega_k = 0
H_0 = 100
w_de = -1
zeff = 0
beta = 0
fgrowth = 0
b_1 = 2
gamma = 0.55
Lx = 3500 Ly = 3500 Lz = 3500
nx = 700 ny = 700 nz = 700
xoffset = -685.467585 yoffset = -31.7331281 zoffset = 572.489161
bins = 400 dk = 0.001
kx_ny = 0.628318531 ky_ny = 0.628318531 kz_ny = 0.628318531
############################
A(data) = 7.98509403 (not used)
A(ran) = 7.97423923 (used)
Ngal = 473583
weighted Ngal = 0
Nran = 23820508
weighted Nran = 0
SN(data) = 3499.23101
SN(ran) = 69.4585157
SN(data+ran) = 3568.68952
############################
13 columns: k_central k_mean P_0(k) sigma^{lin}_{P_0(k)} P^img_1(k) sigma^{lin}_{P_1(k)} P_2(k) sigma^{lin}_{P_2(k)} P^img_3(k) sigma^{lin}_{P_3(k)} P_4(k) sigma^{lin}_{P_4(k)} N_modes
### header ###
0.00050000 0 0 0 0 0 0 0 0 0 0 0 0
0.00150000 0.00179520 37290.92564971 0 -13845.05639973 0 33556.89482787 0 3631.96613166 0 -82984.41715780 0 3
0.00250000 0.00253879 59153.00955763 0 -1113.72086421 0 33238.01187309 0 -12162.28447379 0 43644.44707715 0 6
0.00350000 0.00331552 52012.91017508 0 17070.86751240 0 35077.45719522 0 -24402.07522132 0 30468.26981971 0 7
0.00450000 0.00420575 36601.34126001 0 25876.02310118 0 31843.89545518 0 4605.38956809 0 35356.59050389 0 24
0.00550000 0.00557378 33270.56450806 0 4581.28511696 0 50140.13715525 0 32414.78452283 0 1552.94891744 0 45
0.00650000 0.00659388 33088.09259505 0 -17133.53687087 0 53398.39017964 0 43504.38216819 0 -16658.53413615 0 40
0.00750000 0.00754703 43735.79375690 0 -3716.96836929 0 34056.69957019 0 55966.72664457 0 5387.10677261 0 57
0.00850000 0.00846663 49859.34299785 0 -11388.88258521 0 12447.06466813 0 25379.31860981 0 -8558.44204717 0 75
0.00950000 0.00948925 59172.82901906 0 -15511.77345468 0 5850.95967624 0 25033.19773598 0 9031.65106527 0 112
0.01050000 0.01054430 70271.06307778 0 -8259.94324239 0 -22446.70265835 0 24330.65872624 0 28602.25091802 0 105
0.01150000 0.01145670 71107.57721783 0 -4698.39709657 0 -18741.90277403 0 8167.79935524 0 25346.32308185 0 144
0.01250000 0.01249090 79529.85181438 0 -5281.98612079 0 -33544.60454732 0 11973.16916589 0 28627.60654186 0 169
0.01350000 0.01339930 92180.20436618 0 -3171.89996312 0 -30901.52988986 0 646.02032771 0 27492.47180145 0 180
0.01450000 0.01448870 78237.60078480 0 -3748.74594152 0 -24711.98959299 0 13327.86810745 0 34123.24424235 0 267
0.01550000 0.01550050 85259.44773828 0 -2076.99097878 0 -36568.12428555 0 3825.84253924 0 50749.22574353 0 238
0.01650000 0.01653350 84772.48689276 0 -606.41240737 0 -17690.91770224 0 -710.01282900 0 9784.10411530 0 315
0.01750000 0.01747870 83743.09285437 0 8271.51382182 0 -6100.48558836 0 -12082.23156536 0 19862.97566191 0 297
0.01850000 0.01844180 77050.64756424 0 12812.78355689 0 692.76989756 0 -23696.98957687 0 16213.75884818 0 388
0.01950000 0.01947590 70226.10943902 0 10340.72095625 0 14011.25199526 0 -25219.76640918 0 30435.38501500 0 399
0.02050000 0.02045430 68460.07363044 0 -991.78245821 0 26012.10197320 0 -9045.58004989 0 17991.64204431 0 462
0.02150000 0.02154770 73819.07884267 0 -4252.42599752 0 36249.46277727 0 -2225.31584205 0 -655.56577893 0 571
0.02250000 0.02255340 77466.85625417 0 4133.59780757 0 40584.49939027 0 2430.54138257 0 -4021.83376085 0 510
0.02350000 0.02348930 72597.24779893 0 5657.75868048 0 41474.49285919 0 -9043.13306611 0 -9043.57595910 0 555
0.02450000 0.02439640 71997.79213325 0 7820.20586221 0 36852.46158689 0 3992.33708753 0 -6515.05557421 0 592
0.02550000 0.02547300 67613.48367481 0 3315.35300347 0 47997.08868661 0 2368.02703664 0 -4566.47034636 0 837
0.02650000 0.02652900 62832.34309487 0 -2195.90774733 0 41389.56812783 0 13189.68549372 0 -11844.73019800 0 723
0.02750000 0.02749970 71003.71881103 0 -5638.22709950 0 38551.84200006 0 18154.95883539 0 -15978.13977604 0 826
0.02850000 0.02848090 68867.86735351 0 -146.78691735 0 30562.05241092 0 9322.80891870 0 -9916.57340943 0 831
0.02950000 0.02946900 68703.44332996 0 5541.10066619 0 28197.44672265 0 8188.42709638 0 -2125.96387145 0 996
0.03050000 0.03053250 68143.07297088 0 894.98044402 0 25862.62558815 0 4907.03291313 0 5014.74448896 0 1041
0.03150000 0.03150510 64578.55944202 0 980.44550483 0 21930.95376829 0 5482.42841698 0 7319.88072063 0 1036
0.03250000 0.03246190 63714.69665967 0 2727.74472535 0 30992.87656962 0 9645.12429417 0 7984.79597064 0 1059
0.03350000 0.03345080 61553.82174806 0 4945.58674815 0 23410.54853381 0 4411.94498119 0 3587.02356522 0 1302
0.03450000 0.03451200 56494.87653842 0 2782.16520183 0 26362.09816072 0 3174.44659783 0 14419.26716483 0 1339
0.03550000 0.03553350 53011.08025748 0 5599.08643127 0 23764.64148151 0 4275.83289219 0 9836.85267073 0 1365
0.03650000 0.03647120 50072.04235762 0 3344.60608564 0 24340.51309533 0 5351.50924832 0 11557.84626194 0 1308
0.03750000 0.03744890 45795.24617317 0 2432.26866524 0 19956.64752988 0 2681.11916554 0 8783.70849561 0 1579
0.03850000 0.03847530 46088.77350411 0 903.28468764 0 20596.29573465 0 3198.59533826 0 6452.24227552 0 1662
0.03950000 0.03950240 45146.07576905 0 -278.79449554 0 17202.40673124 0 3858.15158306 0 6441.96715809 0 1683
0.04050000 0.04050350 43911.17938203 0 259.59619154 0 19818.46491614 0 2665.13072850 0 10476.24621203 0 1822
0.04150000 0.04152450 45356.11777086 0 50.01203036 0 15765.99403252 0 -537.63223282 0 1305.77033819 0 1887
0.04250000 0.04250150 43980.82430514 0 571.46039961 0 19431.70861023 0 1861.75605663 0 2062.94019859 0 1920
0.04350000 0.04349210 42799.96086323 0 2877.58649712 0 19420.30411566 0 -439.04535987 0 1873.37092537 0 2005
0.04450000 0.04448520 40504.22503533 0 3665.95816886 0 18671.81495792 0 -2320.23888272 0 5832.38031520 0 2151
0.04550000 0.04548030 39046.44274971 0 1829.17020469 0 19135.63464458 0 1677.95546464 0 4505.28467941 0 2274
0.04650000 0.04648670 36780.71292207 0 311.16222268 0 17841.61204302 0 3746.29895774 0 3543.67541356 0 2311
0.04750000 0.04749250 37872.55487244 0 -682.63096972 0 18038.92087129 0 5294.38712458 0 4469.68715512 0 2568
0.04850000 0.04851840 37197.69667474 0 521.59729202 0 15446.00384526 0 4135.48010279 0 3580.67912310 0 2493
0.04950000 0.04949480 37733.37574946 0 365.12762661 0 13028.80461410 0 3860.55427754 0 6578.44463380 0 2644
0.05050000 0.05050630 37578.91681824 0 -683.88435689 0 13562.93356335 0 3368.31193308 0 5680.95520098 0 2829
0.05150000 0.05149060 37239.77150905 0 448.25199796 0 12233.47952238 0 1325.03618337 0 8960.16813624 0 2784
0.05250000 0.05249300 38105.29514012 0 285.86638940 0 11688.05680181 0 985.07816554 0 8743.36094397 0 3055
0.05350000 0.05348950 37675.35676742 0 237.02415016 0 10845.14285802 0 1420.08101962 0 10506.86119016 0 3009
0.05450000 0.05448610 36618.28191698 0 372.22498682 0 10364.69253949 0 533.71816600 0 6727.93209118 0 3336
0.05550000 0.05550870 35965.23619918 0 1801.14615057 0 11843.73368876 0 997.54117435 0 7510.96690235 0 3349
0.05650000 0.05647670 34709.41311824 0 1210.26046430 0 10023.34383765 0 1688.16414812 0 7469.01386361 0 3324
0.05750000 0.05747970 34320.88524036 0 298.30503910 0 9287.92002320 0 2180.97118115 0 6783.69231896 0 3639
0.05850000 0.05849280 33558.55567659 0 -360.42853196 0 8383.08963902 0 2835.44522886 0 7276.10074830 0 3846
0.05950000 0.05951020 34438.69477643 0 446.89674540 0 7172.25341383 0 237.13708787 0 3495.53294525 0 3787
0.06050000 0.06049470 34082.05519402 0 956.47945776 0 9142.86149575 0 -757.84970114 0 4806.87266282 0 3930
0.06150000 0.06148310 31614.58760818 0 1728.45633814 0 8426.94711762 0 -2173.71880840 0 3505.19908481 0 4083
0.06250000 0.06249100 31406.87079459 0 1328.47967639 0 11012.08029931 0 -1337.65863367 0 4806.24154030 0 4303
0.06350000 0.06350600 30381.46279313 0 499.26441286 0 11074.20711387 0 -373.01887251 0 4211.45839570 0 4470
0.06450000 0.06451750 30833.54581548 0 63.43523118 0 12498.77242503 0 1108.42829295 0 2498.79119275 0 4479
0.06550000 0.06550280 30170.20283559 0 -133.64185333 0 11372.27409798 0 1115.53672548 0 1322.92136933 0 4636
0.06650000 0.06648880 30218.47817180 0 599.12349594 0 10249.47392742 0 874.30952082 0 2437.86018927 0 4653
0.06750000 0.06749660 30210.94899092 0 819.42954285 0 10828.50115381 0 -234.27157021 0 3781.27643184 0 5220
0.06850000 0.06852730 29442.97254150 0 69.77225484 0 11131.45103318 0 275.51930186 0 2725.03200577 0 5029
0.06950000 0.06949320 29603.85342112 0 289.30102456 0 11517.76444610 0 838.17720324 0 4170.84510826 0 5040
0.07050000 0.07048030 29865.27101009 0 145.98638827 0 11309.05112327 0 47.30451477 0 1787.80399917 0 5475
0.07150000 0.07148790 29016.68803599 0 680.76749745 0 12059.97619247 0 -736.26752561 0 1957.98563163 0 5509
0.07250000 0.07249820 29180.77988980 0 329.77922963 0 11310.37980225 0 306.60596102 0 1855.86557983 0 5916
0.07350000 0.07351270 28370.95005256 0 -710.83439550 0 10016.88867228 0 2106.96376207 0 680.80182166 0 5721
0.07450000 0.07449140 29170.81479746 0 -281.99439741 0 10438.03561909 0 1403.59432796 0 179.39048501 0 6028
0.07550000 0.07549160 29310.65825992 0 95.08292504 0 8396.38750113 0 1769.51251857 0 -649.93107283 0 6183
0.07650000 0.07648840 28507.36109433 0 992.30064301 0 8070.27431824 0 1901.18460531 0 1325.61194426 0 6330
0.07750000 0.07749960 27511.84836988 0 1171.05336212 0 6912.45238428 0 790.62156814 0 1804.36819710 0 6583
0.07850000 0.07848650 26986.79872698 0 1118.47089156 0 7971.15486647 0 430.62928578 0 3123.18173392 0 6549
0.07950000 0.07947320 25893.96026738 0 1048.17048682 0 8117.81888101 0 -673.32025178 0 1709.17942063 0 6828
0.08050000 0.08048110 24956.90941798 0 979.72248202 0 9515.14627313 0 -682.61214677 0 3071.06430100 0 7147
0.08150000 0.08149960 24606.24889097 0 734.72072183 0 9547.42209997 0 -646.72895649 0 2880.01133625 0 7386
0.08250000 0.08250610 24145.64017852 0 223.14609823 0 10155.94599968 0 192.58648173 0 2702.96486240 0 7227
0.08350000 0.08350160 24073.00572771 0 -120.51118333 0 8433.61265717 0 984.36289335 0 1090.83215434 0 7798
0.08450000 0.08449610 23653.25389383 0 132.73835162 0 8974.04175924 0 2113.23069791 0 -487.59861143 0 7371
0.08550000 0.08548940 23557.25683766 0 522.64694841 0 6986.32693547 0 799.26130320 0 733.57584344 0 8256
0.08650000 0.08650700 22495.19944105 0 307.92688937 0 7102.58634607 0 827.76036005 0 -188.71670421 0 8037
0.08750000 0.08749060 22480.25180255 0 327.97554792 0 7018.94600439 0 176.56704219 0 1686.65831195 0 8155
0.08850000 0.08849210 22143.09951182 0 285.61172593 0 6454.53424676 0 1444.81659326 0 629.18707228 0 8718
0.08950000 0.08949900 21841.04649077 0 685.15213808 0 6969.79595452 0 -320.00347405 0 2230.90736608 0 8571
0.09050000 0.09049190 21706.62846747 0 732.72327443 0 7302.22036255 0 -102.85082524 0 2320.60426944 0 8932
0.09150000 0.09150830 20852.28788446 0 583.70196193 0 8418.16676404 0 -300.05335919 0 3061.32065516 0 9285
0.09250000 0.09250820 20099.48052004 0 962.57145088 0 8095.27562768 0 519.21231326 0 4060.28794495 0 9204
0.09350000 0.09350330 20195.92046921 0 162.63473587 0 7769.58319314 0 662.84472527 0 2466.05032826 0 9349
0.09450000 0.09448040 19242.81474882 0 -130.35005116 0 7280.93935425 0 1685.09711415 0 2576.17567090 0 9564
0.09550000 0.09549270 19679.17506992 0 137.72864842 0 7121.36500896 0 244.23223362 0 1967.25316750 0 10155
0.09650000 0.09649430 19106.40370706 0 636.43501611 0 6382.19874872 0 -437.71225196 0 1630.21160002 0 9913
0.09750000 0.09749140 18724.40850081 0 882.65030310 0 7297.27103335 0 221.36456117 0 1945.25245809 0 10476
0.09850000 0.09850240 17877.81854518 0 764.07788385 0 6563.84023737 0 -614.97352891 0 2365.36967868 0 10575
0.09950000 0.09950330 17486.63330934 0 477.70106028 0 6784.85491307 0 150.13297391 0 962.76853826 0 10882
0.10050000 0.10051200 17034.43956374 0 316.86446996 0 6592.50648632 0 403.28839410 0 1954.92966998 0 10875
0.10150000 0.10150300 16756.19204105 0 329.52124446 0 6579.12004562 0 962.19942076 0 1511.26161450 0 11118
0.10250000 0.10250800 16461.55747763 0 -14.44783376 0 6326.85926927 0 274.73759573 0 1741.02342681 0 11575
0.10350000 0.10349800 16612.36254166 0 17.44334052 0 5748.26386355 0 1005.90188682 0 789.19434547 0 11364
0.10450000 0.10450100 16300.56587476 0 242.12959913 0 5647.10710401 0 411.03569978 0 1152.76188152 0 12093
0.10550000 0.10551000 16361.35293802 0 372.37667767 0 4810.70368721 0 91.37967528 0 888.33040574 0 12067
0.10650000 0.10649700 15736.65237175 0 355.68404078 0 4531.51501690 0 -40.84137733 0 770.21305903 0 12054
0.10750000 0.10749900 15588.50466568 0 96.80677529 0 4574.01059956 0 263.34195902 0 110.54675533 0 12807
0.10850000 0.10850100 15358.75392569 0 206.84874333 0 3830.84723005 0 764.54513596 0 -507.55758415 0 12736
0.10950000 0.10950300 14899.58461546 0 327.25916850 0 3820.42817240 0 464.72651006 0 -806.05860340 0 12933
0.11050000 0.11050200 14717.00197920 0 255.56254360 0 3320.68986404 0 314.96335179 0 -939.51665614 0 13428
0.11150000 0.11150900 14634.62388255 0 -31.88630246 0 3247.05890399 0 -97.03065770 0 -529.90485733 0 13453
0.11250000 0.11250000 14470.64275199 0 139.35406570 0 3245.28733202 0 -17.71948430 0 -575.56048149 0 13668
0.11350000 0.11349100 14759.18753676 0 -92.66107543 0 3536.74413822 0 -263.58112124 0 -698.98147178 0 13791
0.11450000 0.11448600 14755.31222307 0 -93.31855008 0 4234.68813317 0 -179.81234059 0 -100.37604992 0 14205
0.11550000 0.11549300 14624.65879021 0 447.73049146 0 4000.85170532 0 -268.00894393 0 -174.55962970 0 14776
0.11650000 0.11649800 14573.39392630 0 334.56801012 0 4385.51534184 0 180.25523358 0 -78.05391092 0 14553
0.11750000 0.11747300 14294.26061762 0 153.87431247 0 4613.29520801 0 156.76086755 0 267.67345249 0 14568
0.11850000 0.11849100 14247.75685339 0 271.51665644 0 4720.89606060 0 256.58009025 0 146.03289203 0 16015
0.11950000 0.11950300 14044.46896972 0 120.10482901 0 4672.64286904 0 181.18530887 0 357.96826139 0 15270
0.12050000 0.12050700 13970.28439343 0 134.63946979 0 4531.02783461 0 593.62608666 0 446.26673012 0 15999
0.12150000 0.12150000 13685.50419910 0 40.18467774 0 4176.35912602 0 477.92472124 0 991.88100190 0 15670
0.12250000 0.12250700 13725.03239870 0 30.11550555 0 3858.35088490 0 509.72000919 0 860.47686542 0 16887
0.12350000 0.12352200 13747.61994133 0 -11.60944330 0 3923.73296296 0 387.09290459 0 751.10001193 0 16407
0.12450000 0.12449800 13451.21380593 0 450.38895665 0 3751.75761387 0 -56.61213246 0 947.32043067 0 16306
0.12550000 0.12549900 13328.53244694 0 437.71889536 0 3561.76759231 0 -178.65196095 0 917.87247558 0 17523
0.12650000 0.12650100 12904.13023664 0 12.39657487 0 3860.62071149 0 38.91523570 0 755.27870732 0 17154
0.12750000 0.12750600 13044.08442235 0 90.61502053 0 4095.69723972 0 -344.49102762 0 484.85599658 0 18007
0.12850000 0.12850300 13075.86199458 0 190.92784748 0 3974.99782687 0 -133.65181842 0 120.84888923 0 17496
0.12950000 0.12949900 12900.80853920 0 83.50813812 0 4058.47208368 0 -196.50387025 0 348.56675038 0 18405
0.13050000 0.13049000 12933.80406716 0 151.45500950 0 4078.05902628 0 -12.37000129 0 217.36745191 0 18100
0.13150000 0.13148800 12770.04438309 0 143.55712020 0 3836.12872899 0 314.95449393 0 -248.46850509 0 19059
0.13250000 0.13249300 12407.97936152 0 257.50020045 0 3781.73039716 0 237.13708787 0 112.35198717 0 18957
0.13350000 0.13349100 12409.97237999 0 240.67691012 0 3601.03005612 0 -101.72166956 0 -432.24141627 0 19468
0.13450000 0.13450700 12322.16884418 0 135.65480198 0 4011.78008992 0 -49.10764287 0 -469.73341534 0 19953
0.13550000 0.13551000 11994.87092254 0 257.59099351 0 3956.45168280 0 -253.29714595 0 -9.78100386 0 19956
0.13650000 0.13649900 11864.54965942 0 346.74978188 0 4052.63696850 0 -2.84059386 0 153.06271106 0 19723
0.13750000 0.13749600 11818.26734168 0 25.73617964 0 4197.20831365 0 355.46370151 0 371.78541553 0 20946
0.13850000 0.13851100 11690.60343652 0 -113.33631684 0 3852.32754020 0 639.40682809 0 229.14508382 0 20955
0.13950000 0.13949800 11788.81495766 0 7.09402744 0 3541.79311834 0 818.33116823 0 433.15709753 0 20506
0.14050000 0.14048300 11747.51518609 0 39.12837795 0 3414.01848993 0 523.67446016 0 298.42572744 0 21447
0.14150000 0.14148400 11488.20133883 0 378.30258592 0 3179.99383256 0 247.53400088 0 283.92208916 0 21771
0.14250000 0.14249400 11090.04053836 0 451.54933629 0 3200.84302020 0 -122.39126408 0 589.96446885 0 22470
0.14350000 0.14350900 10702.99635200 0 314.62786035 0 3438.43296616 0 -270.06728912 0 445.27464981 0 22519
0.14450000 0.14449900 10672.75783292 0 132.98969340 0 3316.31629573 0 -177.55801526 0 485.74621149 0 22218
0.14550000 0.14550500 10703.33959406 0 -17.92565099 0 3900.96826313 0 -184.09400860 0 224.97081736 0 23559
0.14650000 0.14650700 10769.60745810 0 19.12234785 0 3712.22941427 0 -145.60439306 0 575.36117964 0 23044
0.14750000 0.14750500 10812.59022305 0 86.64570281 0 3860.25532477 0 63.80681840 0 647.31468248 0 23649
0.14850000 0.14849900 10760.24027131 0 -101.69354585 0 3796.98806076 0 487.36277091 0 550.01219920 0 23640
0.14950000 0.14949500 10691.76901463 0 152.97523969 0 3623.89440687 0 652.38137831 0 511.67538175 0 24457
0.15050000 0.15050000 10563.26361278 0 213.25629770 0 3529.20388502 0 275.70974584 0 237.23341710 0 24591
0.15150000 0.15149900 10257.60101384 0 262.91899621 0 3270.57652191 0 473.39835485 0 584.50138378 0 25020
0.15250000 0.15250500 10021.12937269 0 230.10283992 0 3104.66880682 0 161.36141851 0 959.78233225 0 25297
0.15350000 0.15350100 9982.30980187 0 45.12083087 0 2848.65451237 0 186.95288287 0 933.05595461 0 25452
0.15450000 0.15450400 9975.35638189 0 -25.93725306 0 2625.30357613 0 344.80326718 0 899.48134406 0 26061
0.15550000 0.15549900 9900.75105726 0 101.40954072 0 2520.08327337 0 -14.02797121 0 833.31202371 0 26128
0.15650000 0.15649500 9846.59631657 0 155.62816872 0 2508.24695814 0 46.09608124 0 840.90431684 0 26331
0.15750000 0.15749700 9584.51438812 0 253.25285665 0 2498.03827466 0 16.87975919 0 842.27174895 0 27345
0.15850000 0.15849900 9459.13138187 0 314.22814942 0 2544.33166473 0 161.27726884 0 410.20970435 0 26980
0.15950000 0.15949700 9235.14932311 0 142.74551879 0 2537.05714732 0 -293.68898688 0 482.43890807 0 27777
0.16050000 0.16050000 9232.09336146 0 40.37999355 0 2567.52818522 0 52.21132624 0 191.59993759 0 28224
0.16150000 0.16150500 9148.87376813 0 114.31068143 0 2632.78846770 0 -280.94806272 0 101.06319840 0 28075
0.16250000 0.16249700 9088.40780229 0 114.58859678 0 2635.55654891 0 -28.99952593 0 -16.67735709 0 28590
0.16350000 0.16349900 8998.17942734 0 38.43624693 0 2632.32343006 0 335.20688326 0 248.96675971 0 29163
0.16450000 0.16449100 9037.23151698 0 11.04525298 0 2544.40917100 0 388.70392785 0 391.21070219 0 28996
0.16550000 0.16550500 8837.53106655 0 66.28967652 0 2337.71101129 0 457.64243664 0 324.75903756 0 30777
0.16650000 0.16650700 8816.44936010 0 138.64765138 0 2286.53472597 0 456.82087014 0 625.25971867 0 29211
0.16750000 0.16749900 8704.02097389 0 173.66720032 0 2225.02796161 0 -119.02749180 0 485.45611658 0 30922
0.16850000 0.16850800 8557.58947816 0 156.59588991 0 2453.95934956 0 -69.39059181 0 938.15143849 0 30867
0.16950000 0.16949900 8504.45339136 0 198.41827522 0 2363.83062553 0 -244.76038351 0 1135.99838174 0 30852
0.17050000 0.17049200 8288.02265813 0 166.79239384 0 2481.27477488 0 -146.69058813 0 1120.66321187 0 31257
0.17150000 0.17149500 8311.93887973 0 -35.98339481 0 2390.43742207 0 328.67199715 0 888.09124352 0 32608
0.17250000 0.17250900 8271.46953252 0 21.40402183 0 2436.25470217 0 170.18052523 0 683.51121954 0 32361
0.17350000 0.17350400 8203.60725371 0 90.25483780 0 2123.58332162 0 115.62607362 0 409.56861674 0 32508
0.17450000 0.17449800 8227.21345022 0 21.22896837 0 2282.28295324 0 -98.70313236 0 338.91721930 0 32791
0.17550000 0.17549800 8145.67685026 0 204.27221335 0 2171.60399436 0 -292.75116097 0 496.99790797 0 33633
0.17650000 0.17650100 8136.95185830 0 28.09535989 0 2259.23037297 0 76.52858745 0 475.80104934 0 33984
0.17750000 0.17750300 8056.54463547 0 35.69363207 0 2297.13094083 0 229.26798662 0 584.69736393 0 34069
0.17850000 0.17849800 8071.21546585 0 64.57246966 0 1931.43419672 0 443.68466397 0 556.55594317 0 34536
