### header ###
fiducial parameters:
Omega_m = 0.31
Omega_nu = 0
Omega_de = 0.69
Omega_k = 0
H_0 = 100
w_de = -1
zeff = 0
beta = 0
fgrowth = 0
b_1 = 2
gamma = 0.55
Lx = 3500 Ly = 3500 Lz = 3500
nx = 700 ny = 700 nz = 700
xoffset = -685.467585 yoffset = -31.7331281 zoffset = 572.489161
bins = 400 dk = 0.001
kx_ny = 0.628318531 ky_ny = 0.628318531 kz_ny = 0.628318531
############################
A(data) = 8.0008001 (not used)
A(ran) = 7.9984684 (used)
Ngal = 475245
weighted Ngal = 0
Nran = 23820508
weighted Nran = 0
SN(data) = 3487.56342
SN(ran) = 69.6695605
SN(data+ran) = 3557.23298
############################
13 columns: k_central k_mean P_0(k) sigma^{lin}_{P_0(k)} P^img_1(k) sigma^{lin}_{P_1(k)} P_2(k) sigma^{lin}_{P_2(k)} P^img_3(k) sigma^{lin}_{P_3(k)} P_4(k) sigma^{lin}_{P_4(k)} N_modes
### header ###
0.00050000 0 0 0 0 0 0 0 0 0 0 0 0
0.00150000 0.00179520 70934.18461117 0 -59617.05069078 0 53778.50309066 0 10705.69799925 0 -81615.87781021 0 3
0.00250000 0.00253879 124640.05325102 0 -48645.92692098 0 33628.97566244 0 -62401.18676643 0 19402.03477971 0 6
0.00350000 0.00331552 120835.60244333 0 -6478.06293700 0 -9385.94331482 0 -16109.45754839 0 106884.80534158 0 7
0.00450000 0.00420575 94430.43293907 0 47238.85588302 0 -4103.63609661 0 -51283.68686252 0 63382.52691511 0 24
0.00550000 0.00557378 46669.51694085 0 35513.26390008 0 12806.80450149 0 -12097.28992711 0 27798.51085944 0 45
0.00650000 0.00659388 28436.60893874 0 -1669.09760479 0 8053.24508267 0 25218.65917669 0 10630.53905838 0 40
0.00750000 0.00754703 30514.21996771 0 -18681.78005026 0 -11414.12748580 0 28526.07332327 0 -19032.21913077 0 57
0.00850000 0.00846663 48338.22701427 0 -24126.70650308 0 -13647.19395522 0 11130.78669369 0 -37283.61791533 0 75
0.00950000 0.00948925 61199.17518412 0 -8516.47793611 0 -2163.95301791 0 -19367.71057278 0 -31058.42473254 0 112
0.01050000 0.01054430 68566.58939520 0 13658.26628004 0 -5665.36536763 0 -53573.99725126 0 -2305.84486046 0 105
0.01150000 0.01145670 57614.06713109 0 9062.74215336 0 -5504.26304152 0 -17972.81909212 0 23931.50141653 0 144
0.01250000 0.01249090 54396.00664580 0 187.90510280 0 25178.90953059 0 -5783.67315832 0 17496.48767842 0 169
0.01350000 0.01339930 66795.23887071 0 -3461.04265344 0 14580.14804444 0 22364.43528494 0 -18968.88543281 0 180
0.01450000 0.01448870 62753.06524917 0 -6668.03081391 0 24149.29404571 0 23339.57493172 0 -4601.65819463 0 267
0.01550000 0.01550050 66774.31217680 0 -4323.39959961 0 10421.98074810 0 15679.74062218 0 -7940.51774369 0 238
0.01650000 0.01653350 70260.43364595 0 -5950.23414057 0 6939.34706127 0 5458.30182120 0 -3200.17868071 0 315
0.01750000 0.01747870 72174.83860710 0 6503.44070548 0 2547.09974593 0 2386.36280654 0 3512.92756754 0 297
0.01850000 0.01844180 69939.55767271 0 921.74336034 0 -1146.15170360 0 -2779.09816786 0 11127.57571949 0 388
0.01950000 0.01947590 68833.65386982 0 2679.11507474 0 5678.47500022 0 -8963.64484623 0 9652.29916065 0 399
0.02050000 0.02045430 68338.94239693 0 142.30373303 0 8784.62749857 0 -3951.15911153 0 -8512.12651245 0 462
0.02150000 0.02154770 69887.29629957 0 1429.59214663 0 14881.09383301 0 -5272.22033030 0 -352.94364038 0 571
0.02250000 0.02255340 68267.52590185 0 -2099.64495536 0 18908.76270904 0 -14851.19855600 0 -6689.30074989 0 510
0.02350000 0.02348930 76127.10495111 0 1816.60311602 0 26495.18750504 0 -3372.57477814 0 -5379.78796591 0 555
0.02450000 0.02439640 71385.49257078 0 5063.17483772 0 33808.34732450 0 -3024.58268141 0 -7348.90128398 0 592
0.02550000 0.02547300 71780.66384355 0 1687.48873631 0 27685.35169979 0 2652.56363983 0 -6836.86162274 0 837
0.02650000 0.02652900 69385.71998528 0 1174.66294001 0 35172.67918866 0 7750.83774722 0 -7645.17455148 0 723
0.02750000 0.02749970 67364.79925938 0 2967.64878719 0 30456.97604839 0 4862.04605739 0 -13351.23071282 0 826
0.02850000 0.02848090 64104.44249328 0 4218.81041938 0 27745.25297706 0 8670.81507176 0 -1997.23702311 0 831
0.02950000 0.02946900 58665.60581912 0 3218.35943806 0 23090.33690005 0 7698.17777039 0 -4404.48223426 0 996
0.03050000 0.03053250 58317.93481981 0 656.67190418 0 19029.67249606 0 10538.43946054 0 320.85050690 0 1041
0.03150000 0.03150510 56568.95039146 0 -40.18423485 0 14864.59606903 0 9663.62614894 0 1812.48421119 0 1036
0.03250000 0.03246190 55858.43930784 0 1365.09585457 0 14625.10168321 0 1325.98840331 0 8501.07633229 0 1059
0.03350000 0.03345080 52737.26166472 0 5499.72338834 0 13124.13733079 0 2457.05960051 0 7228.45653461 0 1302
0.03450000 0.03451200 48235.80800970 0 3524.01096468 0 18188.39725634 0 -488.22419779 0 12527.00685332 0 1339
0.03550000 0.03553350 44850.55541964 0 2568.11501844 0 15133.76428537 0 3255.58459410 0 10693.73988845 0 1365
0.03650000 0.03647120 44517.94278209 0 1439.02576738 0 16431.77292386 0 1954.58642791 0 9054.32718650 0 1308
0.03750000 0.03744890 45227.45735647 0 -2635.85550168 0 15892.88287494 0 -418.45747910 0 1855.22338499 0 1579
0.03850000 0.03847530 46859.96092773 0 -2939.41435891 0 14226.27654324 0 -1486.14958181 0 2032.15913559 0 1662
0.03950000 0.03950240 48615.47802773 0 1473.49391454 0 13871.40853280 0 -780.59557802 0 932.88765527 0 1683
0.04050000 0.04050350 48786.87761592 0 -540.00946096 0 12507.18739189 0 -178.56781128 0 127.23651342 0 1822
0.04150000 0.04152450 48644.70896525 0 986.06249521 0 17912.36419861 0 -975.43527785 0 -4704.34293500 0 1887
0.04250000 0.04250150 47879.72204353 0 3855.31706790 0 16614.02339038 0 -4794.31664647 0 348.18918411 0 1920
0.04350000 0.04349210 43573.91636805 0 1590.60589415 0 19133.08800987 0 132.10390741 0 551.04856881 0 2005
0.04450000 0.04448520 46187.09574850 0 -2334.15679502 0 20757.28733752 0 222.26141948 0 -2209.57099616 0 2151
0.04550000 0.04548030 46127.19447123 0 -955.07880867 0 23147.80226586 0 1320.07578185 0 -7978.90549384 0 2274
0.04650000 0.04648670 47399.40459289 0 3813.07614872 0 23002.20119450 0 -1277.85700732 0 -5395.36672693 0 2311
0.04750000 0.04749250 41684.86703074 0 4509.07141450 0 20730.27086496 0 345.77873899 0 820.17913924 0 2568
0.04850000 0.04851840 40470.89733763 0 2653.17261769 0 19955.87246714 0 4859.35548246 0 2842.14398537 0 2493
0.04950000 0.04949480 37776.88998600 0 396.92623626 0 19909.25797966 0 8037.34522423 0 7054.16706963 0 2644
0.05050000 0.05050630 37417.70376889 0 -811.23712972 0 13961.98014982 0 9684.37568565 0 2847.72443708 0 2829
0.05150000 0.05149060 36943.36537365 0 -1888.87218011 0 11802.43391719 0 6171.14916535 0 4655.69113974 0 2784
0.05250000 0.05249300 38621.92981616 0 -91.57698411 0 9349.24963037 0 -564.57452081 0 3865.39288349 0 3055
0.05350000 0.05348950 37838.56283524 0 1331.38062549 0 7867.99401613 0 -1065.43445567 0 4953.93528106 0 3009
0.05450000 0.05448610 36056.13998594 0 1565.59351238 0 8555.58538737 0 -3397.68681082 0 4123.59949826 0 3336
0.05550000 0.05550870 35723.30590189 0 1318.91318775 0 9353.33531823 0 -2710.72656210 0 275.64774083 0 3349
0.05650000 0.05647670 34907.93990224 0 762.00403741 0 11063.78805621 0 -1078.87625800 0 -4673.15219598 0 3324
0.05750000 0.05747970 34143.94948976 0 1710.09842359 0 11280.70597173 0 -1880.10289886 0 -5772.36831468 0 3639
0.05850000 0.05849280 33468.75912231 0 842.34039737 0 12091.42159495 0 -2575.86564581 0 -5836.58779863 0 3846
0.05950000 0.05951020 32106.19883013 0 257.51348724 0 12549.04077971 0 1102.33297813 0 -3927.71899989 0 3787
0.06050000 0.06049470 33207.78442634 0 418.45526464 0 12132.16775029 0 353.87482290 0 -4740.17297811 0 3930
0.06150000 0.06148310 32468.48529820 0 -191.57004231 0 12029.74874571 0 2498.13792558 0 -6017.86390056 0 4083
0.06250000 0.06249100 32503.25239813 0 509.19960992 0 13193.45008415 0 1700.12225893 0 -3852.82579482 0 4303
0.06350000 0.06350600 31513.49728259 0 667.68997461 0 11204.52837698 0 1775.03760865 0 -3708.60876406 0 4470
0.06450000 0.06451750 31294.81886742 0 818.29352233 0 10729.14918322 0 1264.54807289 0 -1076.89541909 0 4479
0.06550000 0.06550280 30209.17741895 0 586.57855192 0 9888.28361951 0 2066.35047463 0 426.95881010 0 4636
0.06650000 0.06648880 30018.06909258 0 142.25058588 0 9274.91004154 0 871.62337482 0 -671.01167205 0 4653
0.06750000 0.06749660 30008.54689324 0 252.74352971 0 8710.62007948 0 608.07768502 0 554.93274035 0 5220
0.06850000 0.06852730 30073.87360967 0 7.24781096 0 8389.04654977 0 -120.89317853 0 -1442.31424785 0 5029
0.06950000 0.06949320 29592.89181955 0 478.46726516 0 8262.83311916 0 -1178.92578507 0 2226.23484501 0 5040
0.07050000 0.07048030 29684.79211554 0 513.69386657 0 9526.07465772 0 286.82857443 0 -1554.52118756 0 5475
0.07150000 0.07148790 28804.87446220 0 739.39102844 0 10047.75831388 0 -162.06118944 0 966.01826559 0 5509
0.07250000 0.07249820 28473.14761064 0 1450.47455124 0 9879.49219361 0 331.98040780 0 -890.19609247 0 5916
0.07350000 0.07351270 27304.24227953 0 952.95845847 0 11065.23853076 0 -97.97723075 0 2033.33280202 0 5721
0.07450000 0.07449140 27277.55797672 0 18.77201950 0 10889.65360379 0 -101.64383111 0 1093.49947739 0 6028
0.07550000 0.07549160 26999.64262377 0 -216.09856349 0 10760.95997242 0 1871.61042572 0 2285.68215696 0 6183
0.07650000 0.07648840 27282.31907639 0 -12.34065963 0 9648.64529346 0 1257.46178500 0 763.57520031 0 6330
0.07750000 0.07749960 27059.87607079 0 528.22629289 0 9848.12429740 0 1288.34249892 0 1280.23755716 0 6583
0.07850000 0.07848650 26101.78780423 0 1300.98709387 0 9028.68368222 0 352.82738097 0 458.26470129 0 6549
0.07950000 0.07947320 25294.83677145 0 811.57926456 0 8303.61249147 0 867.67609102 0 2414.16541416 0 6828
0.08050000 0.08048110 24573.36408626 0 -48.82529858 0 7351.11574895 0 2193.37218495 0 2352.02752728 0 7147
0.08150000 0.08149960 24646.99504631 0 -52.39734129 0 7820.10621129 0 1052.71899785 0 1532.96337114 0 7386
0.08250000 0.08250610 24573.47480951 0 414.94533767 0 7433.64885814 0 1240.28860921 0 1158.04338046 0 7227
0.08350000 0.08350160 23694.66438865 0 841.18887559 0 7951.43505596 0 -898.70738856 0 2225.24940810 0 7798
0.08450000 0.08449610 23575.85834335 0 913.77017924 0 8250.60927256 0 -619.59843899 0 3065.66100649 0 7371
0.08550000 0.08548940 22828.14424835 0 318.75340858 0 8640.17794898 0 191.40506467 0 2498.72475880 0 8256
0.08650000 0.08650700 22500.51415696 0 514.77563270 0 9215.17484914 0 140.97616129 0 1116.11248637 0 8037
0.08750000 0.08749060 22416.14304185 0 273.26940545 0 8415.85264816 0 -779.28904369 0 156.97234895 0 8155
0.08850000 0.08849210 21770.84795142 0 675.75394877 0 8316.61140081 0 46.59333935 0 -252.01386350 0 8718
0.08950000 0.08949900 21358.29312867 0 267.13976643 0 7510.51293704 0 938.27101960 0 -143.66230729 0 8571
0.09050000 0.09049190 21108.16931102 0 -51.34823852 0 6359.81050793 0 1367.12209001 0 -1739.63938621 0 8932
0.09150000 0.09150830 20751.19755887 0 395.51894378 0 5786.02049118 0 1364.27650253 0 -2159.26942451 0 9285
0.09250000 0.09250820 20229.46961341 0 586.50990350 0 5184.91504910 0 135.16429799 0 -1528.15798217 0 9204
0.09350000 0.09350330 19460.49665476 0 912.58654772 0 5264.99010219 0 789.05594141 0 -867.12911817 0 9349
0.09450000 0.09448040 19135.08102834 0 204.43940545 0 5829.39078750 0 79.39034052 0 918.97527914 0 9564
0.09550000 0.09549270 18821.06989648 0 184.40735539 0 5797.94538501 0 787.48588575 0 233.66812851 0 10155
0.09650000 0.09649430 19150.69300633 0 183.61236247 0 5487.14522735 0 891.86579905 0 1731.84446953 0 9913
0.09750000 0.09749140 18820.95917323 0 116.65358536 0 5675.98372713 0 443.33367127 0 1358.50782130 0 10476
0.09850000 0.09850240 18682.22294325 0 198.21011551 0 5870.40267862 0 233.48432792 0 1060.79072265 0 10575
0.09950000 0.09950330 18117.20220776 0 481.02054326 0 5362.50406687 0 72.06256523 0 1459.54278527 0 10882
0.10050000 0.10051200 17901.73476679 0 333.56042856 0 5045.35946709 0 347.66435591 0 844.63015414 0 10875
0.10150000 0.10150300 17544.87373788 0 146.52782495 0 4496.06143283 0 -144.36982885 0 -116.81413407 0 11118
0.10250000 0.10250800 17592.70618110 0 180.87528377 0 4324.58433837 0 -216.78947655 0 -1023.86673384 0 11575
0.10350000 0.10349800 17300.72897563 0 287.16074417 0 4987.47335294 0 -190.87137862 0 -400.42176921 0 11364
0.10450000 0.10450100 17042.96525385 0 436.72902952 0 4534.60419553 0 168.95481887 0 -954.24616985 0 12093
0.10550000 0.10551000 16438.41631876 0 504.95558782 0 4247.27736648 0 501.88412491 0 -165.72502172 0 12067
0.10650000 0.10649700 16556.11513158 0 263.06515090 0 4070.24196496 0 -68.72902040 0 -718.86404546 0 12054
0.10750000 0.10749900 15907.83051345 0 23.75921604 0 4319.29176710 0 121.88968777 0 -430.22514592 0 12807
0.10850000 0.10850100 16114.44009456 0 356.42699377 0 4109.03939112 0 -79.76668884 0 -208.55055966 0 12736
0.10950000 0.10950300 15896.86891188 0 357.48772249 0 4952.29657699 0 -639.30385547 0 130.87598659 0 12933
0.11050000 0.11050200 15692.03090273 0 334.69534185 0 5494.82942078 0 -730.06480924 0 -53.35941560 0 13428
0.11150000 0.11150900 15522.18144001 0 203.93450744 0 5921.75612113 0 -198.33855448 0 81.34992057 0 13453
0.11250000 0.11250000 15531.15002312 0 25.86594729 0 5896.89875191 0 -20.05707352 0 332.01362478 0 13668
0.11350000 0.11349100 15630.91166973 0 32.84638374 0 6181.19176396 0 503.84171194 0 -413.98647434 0 13791
0.11450000 0.11448600 15444.56444303 0 174.27285648 0 6062.39679098 0 492.43611015 0 -443.77545703 0 14205
0.11550000 0.11549300 15040.53531040 0 382.88763562 0 5426.52424897 0 787.38844929 0 -340.67107556 0 14776
0.11650000 0.11649800 14583.58046514 0 404.64807559 0 5149.10715064 0 457.82955893 0 -289.40288995 0 14553
0.11750000 0.11747300 14322.71649241 0 301.25470643 0 4199.82138231 0 943.26685256 0 -198.18907809 0 14568
0.11850000 0.11849100 13996.52580325 0 -1.91784845 0 3868.79208721 0 806.01763580 0 261.88151938 0 16015
0.11950000 0.11950300 14182.76230670 0 -85.51400049 0 3798.00671464 0 429.10130495 0 -46.90690758 0 15270
0.12050000 0.12050700 14326.48108285 0 -28.50226782 0 3548.70224903 0 392.16070766 0 186.10806448 0 15999
0.12150000 0.12150000 14162.27850579 0 64.14906396 0 3720.01325862 0 -78.21457035 0 954.13433936 0 15670
0.12250000 0.12250700 14228.15883846 0 26.95192090 0 3384.26715314 0 92.67845898 0 854.36272766 0 16887
0.12350000 0.12352200 14242.22069098 0 137.98884805 0 4191.80501914 0 -326.93585662 0 753.22036214 0 16407
0.12450000 0.12449800 14068.71736107 0 494.47341791 0 4020.51615420 0 -13.10287847 0 635.76956939 0 16306
0.12550000 0.12549900 13724.25733596 0 344.49767101 0 4274.70351506 0 31.32582138 0 981.00133554 0 17523
0.12650000 0.12650100 13440.58437411 0 201.38455103 0 3846.89102872 0 69.20811990 0 472.44724215 0 17154
0.12750000 0.12750600 13189.24260072 0 358.39897482 0 4190.67564201 0 715.53570462 0 228.41873931 0 18007
0.12850000 0.12850300 13116.82959641 0 341.03978397 0 3890.28346968 0 12.94543001 0 823.50194392 0 17496
0.12950000 0.12949900 12687.88773294 0 61.60564023 0 3699.78412118 0 85.41169220 0 557.96987905 0 18405
0.13050000 0.13049000 12636.62286902 0 10.41896908 0 3841.80883162 0 445.22482435 0 1154.11270515 0 18100
0.13150000 0.13148800 12876.44942460 0 -27.77957718 0 3801.10696559 0 -216.65107249 0 -14.37387063 0 19059
0.13250000 0.13249300 12746.57105447 0 44.71004762 0 3648.37531704 0 126.63860788 0 509.89605915 0 18957
0.13350000 0.13349100 12717.34011695 0 196.81168088 0 3739.81057540 0 -383.54976065 0 336.39826541 0 19468
0.13450000 0.13450700 12490.68962791 0 136.56826878 0 3462.27168149 0 33.31629321 0 118.32329194 0 19953
0.13550000 0.13551000 12475.07764992 0 57.88168522 0 3457.31127997 0 187.65043933 0 -1167.04518053 0 19956
0.13650000 0.13649900 12331.24815053 0 182.22167847 0 3406.47823673 0 58.86247175 0 -755.99287227 0 19723
0.13750000 0.13749600 12094.30039941 0 411.84176502 0 3247.88932835 0 -104.00633306 0 -1131.61374112 0 20946
0.13850000 0.13851100 11802.21247069 0 284.76580031 0 3312.95030899 0 98.36553718 0 -713.44414246 0 20955
0.13950000 0.13949800 11587.18792271 0 128.09018966 0 2852.38588583 0 15.91989935 0 -915.24390567 0 20506
0.14050000 0.14048300 11540.46271198 0 58.56108307 0 3110.73644082 0 591.17688841 0 -734.66203851 0 21447
0.14150000 0.14148400 11563.49314760 0 11.99774973 0 3075.31607373 0 263.05740027 0 -686.87277736 0 21771
0.14250000 0.14249400 11392.53645240 0 236.92892817 0 2979.00899246 0 397.71569302 0 -118.92673364 0 22470
0.14350000 0.14350900 11194.12039165 0 322.65197415 0 2889.68854814 0 308.89350333 0 337.95835597 0 22519
0.14450000 0.14449900 10869.74556376 0 83.04487205 0 2909.13155053 0 301.20598820 0 1178.84827879 0 22218
0.14550000 0.14550500 11059.46984953 0 37.22659544 0 2955.08169852 0 483.95138764 0 1008.92241703 0 23559
0.14650000 0.14650700 11064.36381710 0 -35.20157796 0 3154.15102644 0 175.98906683 0 1366.70134166 0 23044
0.14750000 0.14750500 10989.71420317 0 70.25954786 0 2974.96759390 0 -353.86707227 0 1440.84162865 0 23649
0.14850000 0.14849900 10883.59704211 0 257.46809071 0 3292.17862763 0 -544.89014174 0 1238.57239886 0 23640
0.14950000 0.14949500 10849.92610234 0 293.34242312 0 3521.94043994 0 -451.78074788 0 1127.64984883 0 24457
0.15050000 0.15050000 10567.85862758 0 181.56508961 0 3433.05181630 0 -316.92204605 0 1164.74213697 0 24591
0.15150000 0.15149900 10280.06676090 0 320.43086579 0 3593.93269591 0 249.48494451 0 857.64456473 0 25020
0.15250000 0.15250500 10285.84651445 0 148.93494837 0 3385.69548305 0 484.88699909 0 828.86537806 0 25297
0.15350000 0.15350100 10078.92690824 0 109.65011847 0 3321.59779467 0 301.94561950 0 375.28980633 0 25452
0.15450000 0.15450400 9870.39074261 0 250.92988290 0 3097.83718241 0 256.87239963 0 708.99085341 0 26061
0.15550000 0.15549900 9675.50675347 0 226.32828439 0 3020.15375148 0 318.27840584 0 724.80988388 0 26128
0.15650000 0.15649500 9638.22623581 0 -79.37594650 0 3007.84132628 0 212.68718021 0 601.94250984 0 26331
0.15750000 0.15749700 9598.58731296 0 18.88074973 0 2679.08185777 0 158.99304823 0 526.05058106 0 27345
0.15850000 0.15849900 9627.12069402 0 205.34179992 0 2804.26556217 0 -24.31515747 0 -174.58509604 0 26980
0.15950000 0.15949700 9247.57247156 0 194.58503636 0 2200.15952006 0 24.74808537 0 309.89887042 0 27777
0.16050000 0.16050000 9392.92995178 0 2.19936231 0 2462.26359317 0 -51.36805798 0 -112.31877019 0 28224
0.16150000 0.16150500 9204.87758706 0 71.52378591 0 2242.59974109 0 48.45171834 0 -111.54481469 0 28075
0.16250000 0.16249700 9098.47254555 0 340.18167880 0 2657.42439042 0 125.96208883 0 19.40956396 0 28590
0.16350000 0.16349900 8901.75055050 0 163.69435735 0 2072.29631306 0 74.15302016 0 442.62393525 0 29163
0.16450000 0.16449100 8945.60802910 0 -82.83549439 0 2517.90202538 0 327.87478976 0 724.71909082 0 28996
0.16550000 0.16550500 8847.39650796 0 35.31573363 0 2302.64495858 0 493.79136270 0 751.56726404 0 30777
0.16650000 0.16650700 9010.02681490 0 68.20230991 0 2585.99682302 0 32.89045160 0 877.76297893 0 29211
0.16750000 0.16749900 8761.99566664 0 225.08154061 0 2292.56914300 0 -194.44995400 0 1039.82970453 0 30922
0.16850000 0.16850800 8661.86863330 0 252.18437730 0 2492.38031668 0 183.68986874 0 1231.92900397 0 30867
0.16950000 0.16949900 8385.06051284 0 107.91586023 0 2582.89657207 0 -106.13664835 0 1193.86235125 0 30852
0.17050000 0.17049200 8544.49091790 0 71.63738796 0 2624.30706689 0 76.03044356 0 815.41250341 0 31257
0.17150000 0.17149500 8322.63474551 0 173.74027766 0 2528.86362695 0 -37.07324374 0 533.26087899 0 32608
0.17250000 0.17250900 8262.47880477 0 135.46546523 0 2362.26942773 0 -57.50644413 0 711.86412171 0 32361
0.17350000 0.17350400 8116.05838137 0 26.86456026 0 2432.32402686 0 -99.71326056 0 635.20709529 0 32508
0.17450000 0.17449800 8164.14548805 0 73.46487517 0 2374.42684038 0 49.50680018 0 254.29919134 0 32791
0.17550000 0.17549800 8096.61537899 0 76.03952286 0 2366.03401817 0 245.24535134 0 161.12336353 0 33633
0.17650000 0.17650100 7992.13692200 0 -8.24322403 0 2082.37212864 0 118.65767615 0 -184.81924587 0 33984
0.17750000 0.17750300 7920.29967857 0 20.76537013 0 1910.81752790 0 230.51140870 0 -338.59280019 0 34069
0.17850000 0.17849800 8025.14352228 0 158.65534233 0 1864.34698064 0 11.78970074 0 -570.46389038 0 34536
