### header ###
fiducial parameters:
Omega_m = 0.31
Omega_nu = 0
Omega_de = 0.69
Omega_k = 0
H_0 = 100
w_de = -1
zeff = 0
beta = 0
fgrowth = 0
b_1 = 2
gamma = 0.55
Lx = 3500 Ly = 3500 Lz = 3500
nx = 700 ny = 700 nz = 700
xoffset = -685.467585 yoffset = -31.7331281 zoffset = 572.489161
bins = 400 dk = 0.001
kx_ny = 0.628318531 ky_ny = 0.628318531 kz_ny = 0.628318531
############################
A(data) = 8.07420282 (not used)
A(ran) = 8.07718618 (used)
Ngal = 479935
weighted Ngal = 0
Nran = 23820508
weighted Nran = 0
SN(data) = 3481.67761
SN(ran) = 70.355221
SN(data+ran) = 3552.03283
############################
13 columns: k_central k_mean P_0(k) sigma^{lin}_{P_0(k)} P^img_1(k) sigma^{lin}_{P_1(k)} P_2(k) sigma^{lin}_{P_2(k)} P^img_3(k) sigma^{lin}_{P_3(k)} P_4(k) sigma^{lin}_{P_4(k)} N_modes
### header ###
0.00050000 0 0 0 0 0 0 0 0 0 0 0 0
0.00150000 0.00179520 21082.59224069 0 -23624.79801905 0 -6361.07275296 0 43451.89934855 0 -75030.28045458 0 3
0.00250000 0.00253879 41219.05432562 0 -26225.90856545 0 4391.06257658 0 -24176.42124151 0 57171.50630809 0 6
0.00350000 0.00331552 45462.63353562 0 -14051.33381110 0 -2376.74095627 0 -31870.69048124 0 8220.91329740 0 7
0.00450000 0.00420575 55925.53759625 0 -10854.60969574 0 -6270.52328060 0 -34283.90367546 0 8921.02746801 0 24
0.00550000 0.00557378 65216.21462832 0 -20327.79185780 0 -4499.74851700 0 -31095.40629744 0 -4472.53274259 0 45
0.00650000 0.00659388 92871.11743486 0 -11126.57921026 0 -12162.83809003 0 -20135.35485245 0 704.33383360 0 40
0.00750000 0.00754703 98099.13704448 0 -14394.68660373 0 -13493.84225648 0 -29955.17828761 0 -23433.46824618 0 57
0.00850000 0.00846663 97312.11619637 0 -3780.00311449 0 -12751.22143090 0 -24428.31663114 0 -26771.10983952 0 75
0.00950000 0.00948925 103139.70219492 0 10551.93662449 0 1088.84135034 0 -33286.95154879 0 -30407.03986346 0 112
0.01050000 0.01054430 88510.39302829 0 19281.34643919 0 -8267.92638858 0 -27725.10134589 0 -25367.58194550 0 105
0.01150000 0.01145670 78151.12592796 0 13320.56037307 0 15589.61189816 0 -16197.37180745 0 2512.11119950 0 144
0.01250000 0.01249090 71233.91244401 0 3978.24201804 0 6968.68872203 0 12315.30400279 0 8359.80453992 0 169
0.01350000 0.01339930 65441.42571513 0 1070.27195439 0 11621.51212965 0 20232.34841786 0 3063.29152898 0 180
0.01450000 0.01448870 68752.49372890 0 -451.37771525 0 13303.39826960 0 24801.23253103 0 5086.37135822 0 267
0.01550000 0.01550050 71693.19247749 0 1419.54954802 0 11355.66561076 0 4733.33028137 0 47107.09521768 0 238
0.01650000 0.01653350 67775.91467990 0 3348.14922959 0 7043.69265036 0 176.13189982 0 22748.20206316 0 315
0.01750000 0.01747870 72067.65850285 0 -3380.92331105 0 12831.71723233 0 -9369.76664826 0 23564.67529528 0 297
0.01850000 0.01844180 70020.27492064 0 -987.77316940 0 3456.08225192 0 -2184.14893838 0 9626.95460915 0 388
0.01950000 0.01947590 75108.56179105 0 -6668.30762203 0 12601.85576909 0 3427.28313506 0 5539.59483002 0 399
0.02050000 0.02045430 74734.42793542 0 526.95851170 0 17037.65053794 0 -2317.26042735 0 -11131.00814019 0 462
0.02150000 0.02154770 71690.75656603 0 10618.38164573 0 15213.37430082 0 -12813.44789638 0 -13730.67928436 0 571
0.02250000 0.02255340 69271.23214666 0 7861.36169356 0 24073.00572771 0 -5999.51705833 0 5900.47511283 0 510
0.02350000 0.02348930 61090.99857064 0 4175.72800351 0 24698.81352646 0 -5089.53804311 0 4558.29897064 0 555
0.02450000 0.02439640 64713.42035831 0 -3253.92374538 0 33009.25764234 0 -566.00617240 0 -6410.54390025 0 592
0.02550000 0.02547300 66316.80371530 0 -2784.91113839 0 32018.83818731 0 6545.55982909 0 -10806.99869902 0 837
0.02650000 0.02652900 65657.88966534 0 3154.49426851 0 30920.02067231 0 -7261.58493046 0 -15586.73309370 0 723
0.02750000 0.02749970 69155.08345931 0 193.94505599 0 30026.04116645 0 1974.98165023 0 -12318.73642348 0 826
0.02850000 0.02848090 64261.11588947 0 -248.66669971 0 29114.23521764 0 -3292.75438852 0 -12238.12989880 0 831
0.02950000 0.02946900 63664.20685849 0 4099.39539621 0 25479.19097968 0 4168.58635400 0 -12858.29081189 0 996
0.03050000 0.03053250 63427.36983062 0 2236.96392776 0 18239.55139700 0 11414.34893229 0 -9931.64284350 0 1041
0.03150000 0.03150510 61280.11387854 0 -858.66543308 0 18536.17897890 0 8591.93582975 0 -8502.57109614 0 1036
0.03250000 0.03246190 60137.78212700 0 -1394.41537069 0 14488.57991819 0 8838.92617948 0 -6849.70551953 0 1059
0.03350000 0.03345080 59929.62242041 0 1956.97805007 0 15256.11347462 0 6441.90072414 0 -6497.82703680 0 1302
0.03450000 0.03451200 58006.35959941 0 3512.89435056 0 14365.45566621 0 -950.01543453 0 -6344.18745761 0 1339
0.03550000 0.03553350 52040.36954063 0 4785.66916079 0 15817.92323592 0 -2436.67545051 0 2053.57301179 0 1365
0.03650000 0.03647120 49766.22474613 0 4259.21333264 0 15446.55746150 0 406.17384195 0 3771.44420740 0 1308
0.03750000 0.03744890 48110.91218574 0 1571.49506151 0 19987.09642313 0 -1583.38673837 0 7752.96363359 0 1579
0.03850000 0.03847530 46365.02800834 0 866.75708806 0 19126.00172199 0 4375.61668346 0 950.99865698 0 1662
0.03950000 0.03950240 46720.44963502 0 1933.43828751 0 18765.26537939 0 -1992.73058691 0 5683.10323199 0 1683
0.04050000 0.04050350 43107.77149319 0 2056.97221551 0 17762.66636707 0 2600.16939879 0 6174.68123696 0 1822
0.04150000 0.04152450 43492.42405739 0 1633.05718750 0 21145.92593865 0 778.33239482 0 6125.47582547 0 1887
0.04250000 0.04250150 42685.14085486 0 -892.01970436 0 16093.95629365 0 5047.93931877 0 9950.68724219 0 1920
0.04350000 0.04349210 43236.87480057 0 -2900.81623459 0 15485.97493786 0 6732.73748015 0 3083.66460664 0 2005
0.04450000 0.04448520 42505.32629980 0 -535.59713952 0 12172.69245912 0 4893.24786873 0 3734.44049786 0 2151
0.04550000 0.04548030 44151.00593760 0 2620.69748900 0 11289.78527808 0 -130.24043514 0 1233.72272059 0 2274
0.04650000 0.04648670 40028.77940762 0 2377.22813856 0 8094.33448007 0 -1906.13393450 0 3616.81919131 0 2311
0.04750000 0.04749250 39224.26428630 0 1338.09045433 0 9334.78917416 0 -1714.12874982 0 3974.77638037 0 2568
0.04850000 0.04851840 39183.62885421 0 298.51209158 0 11483.21879267 0 -823.77432311 0 2262.85102319 0 2493
0.04950000 0.04949480 39520.55969844 0 144.63556464 0 13632.46776321 0 1417.42366166 0 5751.88451376 0 2644
0.05050000 0.05050630 38966.27911802 0 1001.50174494 0 12218.08899088 0 -1156.55968893 0 3369.57417811 0 2829
0.05150000 0.05149060 39955.70206382 0 -403.02376554 0 13056.59614940 0 225.85549612 0 6168.63574761 0 2784
0.05250000 0.05249300 39421.01949832 0 411.90709174 0 14155.19221790 0 1450.89529959 0 1153.00547266 0 3055
0.05350000 0.05348950 38125.22532480 0 1478.78648580 0 14610.04332145 0 6.97863167 0 -1923.09673613 0 3009
0.05450000 0.05448610 37302.10869778 0 2626.42188093 0 13130.67000243 0 -103.83869806 0 -2882.43617539 0 3336
0.05550000 0.05550870 33882.42117754 0 1783.92868548 0 11647.42136973 0 1723.88346799 0 -3268.11846580 0 3349
0.05650000 0.05647670 33033.39531045 0 756.63949604 0 10214.99470794 0 2281.64075840 0 -2481.41871511 0 3324
0.05750000 0.05747970 33359.25382986 0 -1152.71759222 0 10155.91278271 0 258.42141787 0 -3725.64907195 0 3639
0.05850000 0.05849280 34335.50070912 0 -78.29573049 0 9806.00517379 0 944.11277817 0 -4880.89115423 0 3846
0.05950000 0.05951020 33784.87399589 0 587.87733562 0 10941.70460276 0 -3705.25384964 0 -2753.29965103 0 3787
0.06050000 0.06049470 33092.52152498 0 908.81309942 0 12347.52446801 0 -965.49233016 0 -456.69686010 0 3930
0.06150000 0.06148310 33417.82642815 0 493.18902823 0 14932.69086667 0 -1690.74399981 0 1967.37496308 0 4083
0.06250000 0.06249100 33621.66792806 0 -113.51125958 0 15599.57699049 0 3738.93586173 0 630.10275355 0 4303
0.06350000 0.06350600 33441.41048001 0 48.22960751 0 13437.81629290 0 2757.41855586 0 2933.62353303 0 4470
0.06450000 0.06451750 33727.40863008 0 789.48886931 0 13180.38474087 0 2227.16492030 0 1178.74862787 0 4479
0.06550000 0.06550280 32643.87092333 0 651.01062450 0 13044.74876184 0 856.56058413 0 4287.44776093 0 4636
0.06650000 0.06648880 32135.98338389 0 805.51384502 0 12647.80591709 0 -661.10415581 0 2559.08000138 0 4653
0.06750000 0.06749660 31532.20951153 0 -159.67953237 0 11429.85018704 0 7.87702903 0 2269.89302177 0 5220
0.06850000 0.06852730 31421.26481685 0 -773.43510556 0 12084.44603032 0 173.29627743 0 1591.50275246 0 5029
0.06950000 0.06949320 32752.60115304 0 414.37843464 0 12438.98187101 0 1529.16556373 0 -2991.09997116 0 5040
0.07050000 0.07048030 31383.50818922 0 1272.30977259 0 10764.60276729 0 -1557.28926877 0 -833.89774969 0 5475
0.07150000 0.07148790 30682.51930495 0 851.01667110 0 10499.45380485 0 882.98468731 0 -1626.00411659 0 5509
0.07250000 0.07249820 29956.28552010 0 601.39332252 0 10944.22909282 0 419.10631734 0 -1432.31593854 0 5916
0.07350000 0.07351270 29827.18221271 0 86.47042790 0 11440.25817237 0 862.37798359 0 -1661.07016929 0 5721
0.07450000 0.07449140 28826.68694210 0 1343.84806324 0 10870.34346930 0 352.18407890 0 -3907.17983735 0 6028
0.07550000 0.07549160 27637.85142632 0 1769.42393997 0 11516.32504387 0 -626.45110082 0 -569.26807930 0 6183
0.07650000 0.07648840 27010.27205560 0 1103.15565187 0 11670.45180535 0 -434.85337770 0 -1792.97477486 0 6330
0.07750000 0.07749960 25918.31938198 0 404.30040459 0 11291.00323381 0 207.25620489 0 -834.13801914 0 6583
0.07850000 0.07848650 25634.09280389 0 82.23393498 0 10568.62261800 0 892.17360968 0 -3035.13460696 0 6549
0.07950000 0.07947320 25908.02211990 0 -198.71279906 0 10750.92844614 0 1338.81015545 0 -1940.60208166 0 6828
0.08050000 0.08048110 25723.88935817 0 -43.53139864 0 10085.38207361 0 2081.80744008 0 -1941.93076064 0 7147
0.08150000 0.08149960 25006.73487966 0 773.79938504 0 8596.53084455 0 1314.47318550 0 -1164.02243586 0 7386
0.08250000 0.08250610 24921.58870181 0 773.41738984 0 8492.89388424 0 1244.72861146 0 -390.90399879 0 7227
0.08350000 0.08350160 23594.23840255 0 1152.96118337 0 9456.70654273 0 713.13190290 0 85.81062807 0 7798
0.08450000 0.08449610 23197.18483455 0 1165.77186318 0 9430.40977129 0 340.07649171 0 968.96018230 0 7371
0.08550000 0.08548940 22188.49604357 0 384.50308781 0 9784.49164666 0 674.95231246 0 3561.21397607 0 8256
0.08650000 0.08650700 21757.67188488 0 293.26934577 0 9121.44761955 0 1012.31165566 0 2798.47473629 0 8037
0.08750000 0.08749060 21751.36065973 0 342.43711136 0 9633.66443799 0 665.87079164 0 3364.54734264 0 8155
0.08850000 0.08849210 21399.26073050 0 535.84183790 0 8994.73593433 0 939.23652632 0 2843.80483410 0 8718
0.08950000 0.08949900 20452.24478876 0 478.90794368 0 8237.16747023 0 639.64266861 0 2408.77319197 0 8571
0.09050000 0.09049190 20451.35900278 0 210.28005679 0 7424.24845437 0 761.15368287 0 2557.49665894 0 8932
0.09150000 0.09150830 20318.71255145 0 239.38698428 0 7945.50028986 0 511.44839909 0 2493.02251152 0 9285
0.09250000 0.09250820 19925.20212739 0 -73.26291597 0 7538.22696606 0 -714.53476645 0 2732.56118664 0 9204
0.09350000 0.09350330 20380.38540069 0 401.10825335 0 8099.12879672 0 -279.81093496 0 1567.65296480 0 9349
0.09450000 0.09448040 20056.63062299 0 507.42582349 0 8685.79592724 0 -1348.45415036 0 2127.30362276 0 9564
0.09550000 0.09549270 19431.70861023 0 609.19266813 0 9271.40011457 0 118.78722235 0 2043.02108624 0 10155
0.09650000 0.09649430 19325.41429197 0 278.34717362 0 8580.17702079 0 763.17438215 0 1657.73739952 0 9913
0.09750000 0.09749140 18814.53722484 0 129.09887846 0 8351.01311402 0 1225.92780392 0 1161.27649930 0 10476
0.09850000 0.09850240 18796.82150513 0 -83.91759269 0 6953.50856471 0 1253.47574807 0 -364.26066358 0 10575
0.09950000 0.09950330 18167.58128568 0 269.74397723 0 6441.02601048 0 1204.08210705 0 -387.54133374 0 10882
0.10050000 0.10051200 18032.27747640 0 158.04747169 0 5184.39464983 0 585.39824209 0 -863.00578441 0 10875
0.10150000 0.10150300 17773.07435239 0 338.31820653 0 5107.87381301 0 267.00025514 0 -1088.78820318 0 11118
0.10250000 0.10250800 17657.92217428 0 245.99162603 0 5053.19867306 0 -322.69847791 0 -1322.71099516 0 11575
0.10350000 0.10349800 17274.04467282 0 445.33111867 0 5867.50172952 0 -826.39403516 0 608.93468296 0 11364
0.10450000 0.10450100 17670.76607107 0 485.80600205 0 5804.45591200 0 -202.97342965 0 -562.98453496 0 12093
0.10550000 0.10551000 16928.69886172 0 339.71553392 0 7196.49073285 0 -928.71560328 0 615.05878582 0 12067
0.10650000 0.10649700 16777.56162795 0 573.75569254 0 7089.88638950 0 281.01892559 0 -84.95196928 0 12054
0.10750000 0.10749900 16505.29316066 0 128.23412989 0 7762.57441153 0 242.63117545 0 1529.28735930 0 12807
0.10850000 0.10850100 16383.27614116 0 271.64288094 0 7668.38214430 0 901.68916563 0 805.83494244 0 12736
0.10950000 0.10950300 16062.51089116 0 -84.40577149 0 6856.11639560 0 1314.92715081 0 1603.06225957 0 12933
0.11050000 0.11050200 16116.10094328 0 136.70556561 0 6913.88071418 0 371.12661220 0 213.59400361 0 13428
0.11150000 0.11150900 15898.52976060 0 523.00569174 0 6232.86630389 0 385.08659933 0 829.98700457 0 13453
0.11250000 0.11250000 15428.17740230 0 84.78200909 0 6138.27543296 0 190.72411670 0 480.45031853 0 13668
0.11350000 0.11349100 15279.36535674 0 264.87658324 0 5572.75644285 0 72.74229525 0 439.22030260 0 13791
0.11450000 0.11448600 15411.01529883 0 138.96099817 0 5925.63143482 0 128.00382553 0 416.21311886 0 14205
0.11550000 0.11549300 14888.06939765 0 259.34374253 0 5581.02746949 0 598.27092693 0 -134.14785857 0 14776
0.11650000 0.11649800 14765.60948515 0 377.13113395 0 5403.42737940 0 378.88609743 0 590.44611498 0 14553
0.11750000 0.11747300 14586.68071608 0 79.08817678 0 5423.32434710 0 356.29634034 0 -159.53005599 0 14568
0.11850000 0.11849100 14323.38083190 0 175.40555531 0 5124.01726260 0 446.12168266 0 226.84646919 0 16015
0.11950000 0.11950300 14465.66020582 0 -3.78759873 0 5244.56166290 0 45.31692174 0 479.97642303 0 15270
0.12050000 0.12050700 14400.00131964 0 29.81444904 0 4830.30170213 0 127.97503749 0 249.37089957 0 15999
0.12150000 0.12150000 14547.59540947 0 224.99517648 0 4905.13954558 0 475.46555790 0 684.69595830 0 15670
0.12250000 0.12250700 14010.91982552 0 222.64452192 0 4577.76411767 0 198.28097839 0 450.53289687 0 16887
0.12350000 0.12352200 13999.29388446 0 205.20561033 0 4291.82132923 0 822.02600302 0 691.53422611 0 16407
0.12450000 0.12449800 13484.76295013 0 371.19415338 0 3998.96941010 0 416.44453045 0 243.41841774 0 16306
0.12550000 0.12549900 13129.11987696 0 563.82381718 0 3454.21102902 0 229.21151777 0 263.66416367 0 17523
0.12650000 0.12650100 12759.63639776 0 148.95266409 0 3643.75815759 0 293.12983448 0 514.10464982 0 17154
0.12750000 0.12750600 12484.48912602 0 117.90697253 0 3278.70360832 0 50.99126676 0 209.49613620 0 18007
0.12850000 0.12850300 12683.56952626 0 -28.79701311 0 3549.13406969 0 63.07759509 0 64.68695750 0 17496
0.12950000 0.12949900 12738.26681086 0 52.33157168 0 3868.07238609 0 -762.87432214 0 263.40064234 0 18405
0.13050000 0.13049000 12908.33772007 0 106.82235743 0 4072.83288897 0 -622.32001643 0 636.81368962 0 18100
0.13150000 0.13148800 12828.28481164 0 170.34771733 0 4685.12137911 0 -311.85424298 0 679.16754652 0 19059
0.13250000 0.13249300 12886.41451693 0 149.33465929 0 4956.89159179 0 -110.65825364 0 647.47855288 0 18957
0.13350000 0.13349100 12615.47472862 0 46.31896714 0 5150.03722592 0 321.63996366 0 140.91304904 0 19468
0.13450000 0.13450700 12648.69170308 0 138.59007529 0 5113.28817985 0 254.70443843 0 152.51020205 0 19953
0.13550000 0.13551000 12575.94652902 0 259.48657552 0 5009.58478560 0 353.59469308 0 -323.24434352 0 19956
0.13650000 0.13649900 12004.39312188 0 290.94305033 0 4659.34500693 0 -145.01091645 0 -176.94017953 0 19723
0.13750000 0.13749600 12059.42257623 0 183.97774919 0 4495.47459962 0 242.87255213 0 -303.77255310 0 20946
0.13850000 0.13851100 11848.38406519 0 -38.33869975 0 4368.17608118 0 228.01349222 0 -334.58351137 0 20955
0.13950000 0.13949800 11914.26439786 0 111.84044576 0 3908.78532445 0 220.20528876 0 -1032.92500277 0 20506
0.14050000 0.14048300 11532.04774512 0 332.33250773 0 4033.31576169 0 95.12776796 0 -778.93140760 0 21447
0.14150000 0.14148400 11323.33442229 0 326.38888377 0 3399.94556509 0 626.93828311 0 -628.73532143 0 21771
0.14250000 0.14249400 11183.49095983 0 106.88303377 0 3352.76638904 0 408.53999776 0 -250.45377293 0 22470
0.14350000 0.14350900 11204.08548399 0 -92.68986348 0 2935.62762382 0 936.08202098 0 -666.46980441 0 22519
0.14450000 0.14449900 10945.77921829 0 42.53632881 0 2861.40983056 0 332.89719630 0 -470.21063254 0 22218
0.14550000 0.14550500 10972.26421926 0 218.31413568 0 2351.04209037 0 161.26841098 0 -232.81113057 0 23559
0.14650000 0.14650700 10888.83425175 0 189.86047536 0 3043.75994800 0 -235.51609952 0 336.48020061 0 23044
0.14750000 0.14750500 10708.59894835 0 307.06878420 0 2696.52076936 0 -189.17509846 0 510.61133134 0 23649
0.14850000 0.14849900 10585.88437239 0 126.46477238 0 3413.11055930 0 -73.45324923 0 586.57301576 0 23640
0.14950000 0.14949500 10545.40395285 0 88.76527795 0 3396.73459089 0 328.79047102 0 794.97077733 0 24457
0.15050000 0.15050000 10355.01532760 0 203.21702079 0 3519.34951593 0 1.97803761 0 933.54535136 0 24591
0.15150000 0.15149900 10322.14159521 0 250.11938872 0 3512.77255499 0 219.41251030 0 613.04362270 0 25020
0.15250000 0.15250500 9977.12795386 0 139.38949714 0 3170.84809226 0 88.44030521 0 981.79854292 0 25297
0.15350000 0.15350100 9876.54695521 0 171.72732901 0 2936.86772420 0 128.41571601 0 748.80029007 0 25452
0.15450000 0.15450400 9692.82386949 0 101.29162046 0 2892.61164190 0 118.22364102 0 382.02953045 0 26061
0.15550000 0.15549900 9518.83335729 0 276.25561146 0 2675.38370128 0 170.06094412 0 126.27875732 0 26128
0.15650000 0.15649500 9423.38991735 0 165.60211892 0 2639.28792237 0 -10.63784679 0 89.71251533 0 26331
0.15750000 0.15749700 9155.34000582 0 223.44615824 0 2583.74914108 0 43.17121591 0 399.98662684 0 27345
0.15850000 0.15849900 9161.47407377 0 102.23166084 0 2570.39591735 0 30.44856108 0 25.21633399 0 26980
0.15950000 0.15949700 9100.89738469 0 -73.11233235 0 2755.82414109 0 158.42503797 0 34.16044725 0 27777
0.16050000 0.16050000 9157.49910916 0 148.85965656 0 2911.70032988 0 -147.76349640 0 67.65422983 0 28224
0.16150000 0.16150500 9038.62662991 0 241.42318481 0 3024.79305558 0 -101.67782315 0 181.09451580 0 28075
0.16250000 0.16249700 8986.57563093 0 40.43291926 0 3087.25203988 0 -42.22597154 0 188.85621550 0 28590
0.16350000 0.16349900 8867.18275241 0 -11.49251955 0 2856.74838181 0 139.33413552 0 -88.18309511 0 29163
0.16450000 0.16449100 9046.72049935 0 -16.15917229 0 2878.04046244 0 -114.44908549 0 -159.72935783 0 28996
0.16550000 0.16550500 8951.83067565 0 99.29074064 0 2954.49486531 0 89.55849930 0 -152.54120456 0 30777
0.16650000 0.16650700 8876.63851781 0 159.91205119 0 2882.54689864 0 7.79441842 0 -15.67021842 0 29211
0.16750000 0.16749900 8667.65945918 0 204.76714627 0 2861.98559145 0 103.21909076 0 -9.81092129 0 30922
0.16850000 0.16850800 8623.25943666 0 146.77473780 0 2839.74129089 0 295.37198026 0 -40.26185185 0 30867
0.16950000 0.16949900 8459.38902934 0 58.85162088 0 2717.92357323 0 371.18861722 0 240.88174813 0 30852
0.17050000 0.17049200 8529.00073548 0 36.77672689 0 2452.42029641 0 445.09084922 0 411.36122613 0 31257
0.17150000 0.17149500 8282.02145807 0 65.39403616 0 2468.07656370 0 213.41573918 0 580.03591518 0 32608
0.17250000 0.17250900 8301.32052023 0 253.64038802 0 2420.56521790 0 167.03266328 0 713.84828231 0 32361
0.17350000 0.17350400 8078.95502090 0 118.79829468 0 2272.48394578 0 76.15511793 0 811.21166337 0 32508
0.17450000 0.17449800 7989.36884079 0 149.75983657 0 2222.65848410 0 -26.30740088 0 675.34316552 0 32791
0.17550000 0.17549800 7817.94710795 0 235.66779037 0 2275.60634138 0 -42.35219605 0 862.53963953 0 33633
0.17650000 0.17650100 7746.80742099 0 61.00363793 0 2251.56832420 0 2.59685877 0 413.36088799 0 33984
0.17750000 0.17750300 7728.77060386 0 -68.57644376 0 2182.15591991 0 100.53825948 0 632.75568257 0 34069
0.17850000 0.17849800 7864.42872754 0 -89.55130228 0 2021.60721004 0 170.81386221 0 256.24570605 0 34536
