### header ###
fiducial parameters:
Omega_m = 0.31
Omega_nu = 0
Omega_de = 0.69
Omega_k = 0
H_0 = 100
w_de = -1
zeff = 0
beta = 0
fgrowth = 0
b_1 = 2
gamma = 0.55
Lx = 3500 Ly = 3500 Lz = 3500
nx = 700 ny = 700 nz = 700
xoffset = -685.467585 yoffset = -31.7331281 zoffset = 572.489161
bins = 400 dk = 0.001
kx_ny = 0.628318531 ky_ny = 0.628318531 kz_ny = 0.628318531
############################
A(data) = 8.03758877 (not used)
A(ran) = 8.03513616 (used)
Ngal = 477462
weighted Ngal = 0
Nran = 23820508
weighted Nran = 0
SN(data) = 3482.89265
SN(ran) = 69.98895
SN(data+ran) = 3552.8816
############################
13 columns: k_central k_mean P_0(k) sigma^{lin}_{P_0(k)} P^img_1(k) sigma^{lin}_{P_1(k)} P_2(k) sigma^{lin}_{P_2(k)} P^img_3(k) sigma^{lin}_{P_3(k)} P_4(k) sigma^{lin}_{P_4(k)} N_modes
### header ###
0.00050000 0 0 0 0 0 0 0 0 0 0 0 0
0.00150000 0.00179520 22047.65607188 0 -35490.78708070 0 -15607.10617137 0 37294.57951690 0 -38465.03497348 0 3
0.00250000 0.00253879 33037.15990088 0 -24775.76618395 0 7506.58226172 0 -25123.43718325 0 27936.91491967 0 6
0.00350000 0.00331552 47117.94609600 0 -3733.79830302 0 16751.76311112 0 -43519.66197644 0 -11557.07119921 0 7
0.00450000 0.00420575 49270.07387101 0 11145.51288570 0 15824.01301457 0 -29023.77432387 0 37968.21975887 0 24
0.00550000 0.00557378 41236.32715234 0 6669.29305894 0 15695.90621642 0 -1284.87686125 0 31008.15637787 0 45
0.00650000 0.00659388 43847.95640731 0 -11662.25828498 0 16103.47849299 0 12722.32266312 0 19042.29494636 0 40
0.00750000 0.00754703 70041.20161454 0 -21173.38530420 0 31094.96340445 0 21891.75773843 0 -42417.96565699 0 57
0.00850000 0.00846663 80763.64096892 0 -7768.09950162 0 8282.13218132 0 4103.12676967 0 -3168.77756752 0 75
0.00950000 0.00948925 82961.27599893 0 8270.97127790 0 23163.30352061 0 -1169.32607945 0 -7163.34019235 0 112
0.01050000 0.01054430 84981.42166209 0 -319.37013707 0 29936.13388893 0 -5216.80334458 0 -30323.22236459 0 105
0.01150000 0.01145670 79211.63319909 0 1801.95443029 0 25164.18333859 0 -8237.37784440 0 -14689.43189040 0 144
0.01250000 0.01249090 80695.54617129 0 8790.01972075 0 48111.24435549 0 -5956.09140040 0 -39312.51071510 0 169
0.01350000 0.01339930 67663.41985974 0 2028.87065512 0 29229.71956550 0 8652.37965093 0 -13086.15925666 0 180
0.01450000 0.01448870 70278.48153541 0 1067.70649673 0 44223.08677217 0 14315.07658828 0 -20962.23606991 0 267
0.01550000 0.01550050 65701.07173213 0 1783.40828621 0 20138.34438015 0 9919.25291203 0 -25646.82597743 0 238
0.01650000 0.01653350 71130.49693020 0 -2848.51057214 0 24085.62817800 0 20511.81389629 0 -31917.96930822 0 315
0.01750000 0.01747870 62685.08117478 0 2340.74482829 0 4647.26510056 0 1967.05386566 0 -10550.64116249 0 297
0.01850000 0.01844180 68065.45597391 0 -2341.38702313 0 -4364.68829886 0 15804.30427639 0 -1656.90697516 0 388
0.01950000 0.01947590 73079.11537504 0 -8857.50554052 0 3451.56474339 0 -463.42551189 0 674.01780824 0 399
0.02050000 0.02045430 81295.55545321 0 -11782.61445576 0 -4679.39698718 0 12042.81408900 0 -8843.57655590 0 462
0.02150000 0.02154770 84317.19289622 0 -2178.86743944 0 6478.04079235 0 -11804.31621241 0 -10684.04053191 0 571
0.02250000 0.02255340 89451.42991462 0 10624.08389301 0 6278.36248657 0 -18120.08101221 0 -15327.08707671 0 510
0.02350000 0.02348930 74851.57313201 0 14517.03579298 0 19149.25360410 0 -20017.76676288 0 11541.56994446 0 555
0.02450000 0.02439640 69866.25888241 0 10365.14650480 0 20457.78095117 0 -9095.40551158 0 9317.42776884 0 592
0.02550000 0.02547300 69269.34985144 0 -2965.73327500 0 23126.87557195 0 10293.69679275 0 3402.79115257 0 837
0.02650000 0.02652900 69551.25124132 0 -4220.46019577 0 19644.18652350 0 11920.46489975 0 -2006.22775086 0 723
0.02750000 0.02749970 70508.56444514 0 -566.30844687 0 19770.41102643 0 8835.02872114 0 -12014.02604447 0 826
0.02850000 0.02848090 69853.96860186 0 3514.06801699 0 11104.43456062 0 6944.03065466 0 -6270.99939056 0 831
0.02950000 0.02946900 65891.95861201 0 5010.66987343 0 12319.17931647 0 729.91976179 0 -5660.48247239 0 996
0.03050000 0.03053250 59325.18420856 0 3973.11553165 0 12941.11180154 0 4084.63598722 0 -1948.68487878 0 1041
0.03150000 0.03150510 60684.64424980 0 967.78762310 0 15241.05511287 0 532.84345234 0 820.85455106 0 1036
0.03250000 0.03246190 58312.17721090 0 1148.46581949 0 13810.17857655 0 1492.97013390 0 2354.16448597 0 1059
0.03350000 0.03345080 58312.73082715 0 1032.54632927 0 19136.52043056 0 3107.81334707 0 10760.29563293 0 1302
0.03450000 0.03451200 55892.43134504 0 2431.11714346 0 14866.03547126 0 4929.36579229 0 10678.30506765 0 1339
0.03550000 0.03553350 53296.52479131 0 4807.97989530 0 17689.69974651 0 5296.96697627 0 13560.82982164 0 1365
0.03650000 0.03647120 50327.92378418 0 3777.92151742 0 14584.13408138 0 7463.10124216 0 15397.83923230 0 1308
0.03750000 0.03744890 46411.64249582 0 1779.32259836 0 15174.39971746 0 7366.56164207 0 18267.56437880 0 1579
0.03850000 0.03847530 44618.47949144 0 1152.61794130 0 14340.10004237 0 4501.91869266 0 20015.66302116 0 1662
0.03950000 0.03950240 43996.65772963 0 2742.98024430 0 10353.34340655 0 4801.24792181 0 23016.59521676 0 1683
0.04050000 0.04050350 42422.94820315 0 237.20462905 0 10103.28602284 0 2943.03500912 0 17795.66189502 0 1822
0.04150000 0.04152450 41551.99913292 0 874.78784525 0 9681.09827751 0 -1362.26133941 0 24886.26798564 0 1887
0.04250000 0.04250150 42480.52429221 0 282.93222332 0 9631.35032210 0 2046.32063903 0 15277.70450802 0 1920
0.04350000 0.04349210 41718.52689819 0 -1228.59623420 0 7084.23950384 0 -3179.04161263 0 14591.99543200 0 2005
0.04450000 0.04448520 41917.82874493 0 1642.50188057 0 9594.60127602 0 65.62965524 0 10483.52072944 0 2151
0.04550000 0.04548030 42077.15949907 0 333.37773520 0 5571.13988343 0 -2845.57640607 0 5931.96480462 0 2274
0.04650000 0.04648670 40621.03806217 0 644.49899028 0 6049.09892887 0 -2304.83727890 0 3267.48734328 0 2311
0.04750000 0.04749250 39862.25164235 0 2410.11294327 0 10623.53027677 0 -3248.70868039 0 2177.20659071 0 2568
0.04850000 0.04851840 38371.03093577 0 1185.62454158 0 9944.84105469 0 397.51860564 0 1669.93910147 0 2493
0.04950000 0.04949480 37471.84743725 0 1058.14886594 0 12281.20124235 0 662.54023634 0 4419.45201741 0 2644
0.05050000 0.05050630 38219.11863926 0 -575.27149381 0 11489.30857132 0 2027.86307356 0 6231.10580424 0 2829
0.05150000 0.05149060 36910.14839920 0 -337.85649059 0 13336.72596731 0 3394.59763220 0 8260.86224535 0 2784
0.05250000 0.05249300 39385.47733566 0 13.08139816 0 13737.87629549 0 2256.27406224 0 8298.25348626 0 3055
0.05350000 0.05348950 37836.34837028 0 1299.17123260 0 16504.73954442 0 635.12626732 0 12503.64424795 0 3009
0.05450000 0.05448610 37402.64540713 0 3134.17655247 0 15124.90642552 0 -543.59467974 0 10024.24069596 0 3336
0.05550000 0.05550870 34633.01407700 0 2103.77493252 0 17125.12190401 0 640.38894330 0 14755.86583931 0 3349
0.05650000 0.05647670 34069.65419022 0 844.45742587 0 15839.40354607 0 1155.98392804 0 11707.21192375 0 3324
0.05750000 0.05747970 32658.81856183 0 -1382.73406800 0 15316.12547514 0 1835.52571914 0 10971.75489232 0 3639
0.05850000 0.05849280 34274.93509236 0 716.79352071 0 17641.53513355 0 1081.88793035 0 9913.45101383 0 3846
0.05950000 0.05951020 32614.63998580 0 1744.75480027 0 15226.10747436 0 -977.82136385 0 6265.44108350 0 3787
0.06050000 0.06049470 32363.63038217 0 660.13422015 0 14735.82493139 0 -596.47610307 0 7111.16739780 0 3930
0.06150000 0.06148310 31544.27834559 0 -114.29628741 0 15244.59825681 0 -147.32503234 0 4827.23466816 0 4083
0.06250000 0.06249100 32325.54158479 0 -363.21765058 0 14584.57697437 0 311.88081656 0 1919.62002613 0 4303
0.06350000 0.06350600 31794.18071674 0 -917.75843064 0 13266.74887445 0 2292.08196071 0 -683.70387799 0 4470
0.06450000 0.06451750 32769.20964027 0 -421.73488725 0 11058.35154473 0 2443.83924467 0 -3976.17149330 0 4479
0.06550000 0.06550280 32612.09335110 0 57.99041545 0 9860.71353072 0 610.33533205 0 -7381.59785917 0 4636
0.06650000 0.06648880 32278.15203457 0 1636.91035654 0 8598.54600766 0 -856.96029506 0 -6053.97075179 0 4653
0.06750000 0.06749660 31092.08459999 0 998.96175363 0 9047.13017537 0 -1466.81730267 0 -5371.50586695 0 5220
0.06850000 0.06852730 29507.85636494 0 741.19581738 0 9580.61692978 0 342.49247299 0 -4598.73510088 0 5029
0.06950000 0.06949320 30232.54002432 0 445.51049033 0 11320.12344809 0 -175.41330594 0 -3062.28394742 0 5040
0.07050000 0.07048030 29191.18787513 0 512.54455925 0 10497.20612292 0 2769.43202829 0 -3050.97910378 0 5475
0.07150000 0.07148790 29442.64037176 0 572.96512855 0 11191.24158720 0 1914.12815302 0 503.39660448 0 5509
0.07250000 0.07249820 28472.81544089 0 525.39177774 0 10248.45527354 0 1059.17527045 0 -142.45099495 0 5916
0.07350000 0.07351270 27791.20312506 0 1537.75768779 0 11361.53394291 0 850.73321958 0 2160.99670718 0 5721
0.07450000 0.07449140 26828.13231233 0 454.64626554 0 10094.59424786 0 174.85858247 0 4507.03410673 0 6028
0.07550000 0.07549160 26256.57890519 0 361.74835308 0 9716.74009110 0 1556.53635068 0 1718.79019857 0 6183
0.07650000 0.07648840 26859.68843806 0 -887.20656477 0 9135.60912299 0 976.41517860 0 1977.55042958 0 6330
0.07750000 0.07749960 27245.33751150 0 -425.67995658 0 9105.89100318 0 398.73545414 0 1536.41793649 0 6583
0.07850000 0.07848650 27403.33958666 0 271.01508012 0 6854.47769153 0 -621.14635000 0 1981.27073072 0 6549
0.07950000 0.07947320 27638.07287282 0 -466.41503959 0 8696.71323951 0 499.61651279 0 1471.85521047 0 6828
0.08050000 0.08048110 27852.43308130 0 52.15906486 0 8208.26870246 0 695.58448252 0 932.06165984 0 7147
0.08150000 0.08149960 27028.65211480 0 1081.68752128 0 7675.94454215 0 305.94272876 0 -220.94381283 0 7386
0.08250000 0.08250610 25708.72027317 0 1595.32270452 0 6947.30806281 0 654.11641161 0 759.70985171 0 7227
0.08350000 0.08350160 24765.46892187 0 1124.38351301 0 7610.49603015 0 284.96399493 0 103.77115688 0 7798
0.08450000 0.08449610 24050.86107807 0 407.82361835 0 6699.80838614 0 33.09706118 0 -730.56195663 0 7371
0.08550000 0.08548940 23663.55115591 0 454.19672915 0 7485.07980693 0 -661.47507869 0 -465.25023102 0 8256
0.08650000 0.08650700 23096.75884845 0 668.90128694 0 6669.24876964 0 -312.13326557 0 -907.87748797 0 8037
0.08750000 0.08749060 22669.14566395 0 478.94448236 0 7305.09916700 0 1107.20590829 0 49.83664473 0 8155
0.08850000 0.08849210 22087.40571798 0 415.51224070 0 5735.74106418 0 1429.59214663 0 -1178.48289207 0 8718
0.08950000 0.08949900 21513.08422964 0 689.07949169 0 6188.55485996 0 1179.88907732 0 -827.76811067 0 8571
0.09050000 0.09049190 21185.23269176 0 605.70156411 0 4995.00253381 0 934.73784075 0 -1091.10674800 0 8932
0.09150000 0.09150830 20132.91894099 0 485.08519370 0 5153.60251451 0 245.09366049 0 672.79542358 0 9285
0.09250000 0.09250820 20212.19678669 0 455.16887927 0 5000.08473090 0 -154.47664694 0 -725.57276706 0 9204
0.09350000 0.09350330 19436.13754016 0 402.87982532 0 5662.98481780 0 -364.73455908 0 -20.73591775 0 9349
0.09450000 0.09448040 19262.96637999 0 500.59309184 0 6137.47822557 0 -1103.26416065 0 -917.37754266 0 9564
0.09550000 0.09549270 18994.24105664 0 543.16064461 0 6021.83886517 0 -580.32711732 0 131.84702948 0 10155
0.09650000 0.09649430 18516.35951747 0 458.25805790 0 6639.43099890 0 781.71277559 0 -329.10492505 0 9913
0.09750000 0.09749140 18054.20067954 0 502.49531724 0 5623.71128166 0 811.97786825 0 -142.69569333 0 10476
0.09850000 0.09850240 17619.50120716 0 611.63743745 0 5465.06701166 0 1908.16016995 0 567.80985412 0 10575
0.09950000 0.09950330 17126.56130623 0 202.38548920 0 4367.19064427 0 1162.54981666 0 924.12944634 0 10882
0.10050000 0.10051200 17050.60515798 0 -249.77061049 0 4105.88377855 0 1032.04586018 0 1445.72452390 0 10875
0.10150000 0.10150300 16987.60362976 0 -13.45763575 0 4090.31608985 0 358.81418700 0 1216.52740015 0 11118
0.10250000 0.10250800 16584.34955986 0 829.01817615 0 4485.87489400 0 -764.44548504 0 686.03460237 0 11575
0.10350000 0.10349800 15990.20861010 0 855.83534686 0 4526.39960284 0 -912.30973959 0 2210.03603380 0 11364
0.10450000 0.10450100 15276.37582904 0 582.69327314 0 4858.55827507 0 -280.09770817 0 1969.83301919 0 12093
0.10550000 0.10551000 15137.41815256 0 246.16213983 0 5530.95841666 0 -37.15728269 0 2183.34065866 0 12067
0.10650000 0.10649700 15158.01267673 0 156.08102681 0 5381.38238068 0 625.64614281 0 974.93259430 0 12054
0.10750000 0.10749900 15081.61363548 0 -49.72104966 0 5138.78774391 0 542.07887847 0 818.62347761 0 12807
0.10850000 0.10850100 14946.86344244 0 1.15265116 0 5243.03368207 0 -167.46559118 0 938.03628631 0 12736
0.10950000 0.10950300 15197.54087633 0 -108.50756527 0 4921.48229702 0 -476.89278057 0 -23.84989838 0 12933
0.11050000 0.11050200 15223.78228615 0 181.77435655 0 5542.31862192 0 -959.94288096 0 763.11126990 0 13428
0.11150000 0.11150900 15395.07115109 0 11.97460857 0 5434.27487634 0 -212.83554936 0 -390.13557945 0 13453
0.11250000 0.11250000 15008.09339868 0 239.64386221 0 5599.71755378 0 -116.10993421 0 561.35025982 0 13668
0.11350000 0.11349100 15194.44062538 0 277.74816084 0 5579.16731892 0 652.68918894 0 -492.87900314 0 13791
0.11450000 0.11448600 14829.71824585 0 45.03978145 0 5868.89684245 0 464.72540282 0 603.13389199 0 14205
0.11550000 0.11549300 14881.09383301 0 59.44930497 0 5452.30062115 0 575.26706488 0 -452.60231438 0 14776
0.11650000 0.11649800 14551.69216966 0 196.42193505 0 5316.98573954 0 534.88961797 0 2.47129861 0 14553
0.11750000 0.11747300 14615.91165361 0 228.93692411 0 4365.67373577 0 175.43877229 0 -492.89561163 0 14568
0.11850000 0.11849100 14256.06109700 0 54.52776731 0 4688.65345073 0 -125.78936057 0 -492.30656395 0 16015
0.11950000 0.11950300 14103.70590750 0 371.19526062 0 4523.80867883 0 99.81280076 0 -900.41695551 0 15270
0.12050000 0.12050700 13767.43940275 0 201.12324417 0 3753.14165448 0 365.05344204 0 -893.68830371 0 15999
0.12150000 0.12150000 13893.33173594 0 -117.42532640 0 3872.88884739 0 278.33167236 0 -843.30922579 0 15670
0.12250000 0.12250700 14005.93727935 0 -138.45610016 0 3760.18365306 0 300.74537949 0 -1534.62421986 0 16887
0.12350000 0.12352200 13873.62299776 0 155.73557027 0 3941.82514171 0 37.16569766 0 -1020.51071219 0 16407
0.12450000 0.12449800 14045.90837194 0 329.52013723 0 3821.17001816 0 -41.61046101 0 -807.63530246 0 16306
0.12550000 0.12549900 13613.20191803 0 319.88832187 0 4381.36322004 0 -246.22193039 0 -253.34807864 0 17523
0.12650000 0.12650100 13526.39489145 0 249.99205699 0 4145.89916044 0 41.26511520 0 -488.54861690 0 17154
0.12750000 0.12750600 13096.89941174 0 92.71986948 0 4198.57020961 0 392.14409917 0 -741.58113429 0 18007
0.12850000 0.12850300 13099.99966269 0 212.58752929 0 4021.35765088 0 10.96300776 0 -1145.13304972 0 17496
0.12950000 0.12949900 12894.38659080 0 219.97387717 0 4059.85612428 0 317.54763240 0 -1071.57627425 0 18405
0.13050000 0.13049000 12496.66868332 0 435.75134324 0 3592.21648556 0 240.02917912 0 -650.39168154 0 18100
0.13150000 0.13148800 12269.79674778 0 226.18766586 0 3479.55558053 0 110.71084718 0 -798.74865456 0 19059
0.13250000 0.13249300 12142.13284262 0 -93.59690833 0 3524.05525398 0 406.99097952 0 -184.13054727 0 18957
0.13350000 0.13349100 12279.20822388 0 89.08083920 0 3408.99165446 0 652.49210156 0 -568.86504667 0 19468
0.13450000 0.13450700 12117.88445127 0 50.80724473 0 3366.56250576 0 492.08401022 0 203.79942508 0 19953
0.13550000 0.13551000 12016.68340243 0 135.59390419 0 3229.36532893 0 538.56009364 0 304.20326653 0 19956
0.13650000 0.13649900 11896.99157114 0 293.31917124 0 3076.00255787 0 418.64570863 0 966.70364250 0 19723
0.13750000 0.13749600 11760.35908288 0 160.96281482 0 3262.07297645 0 210.63658565 0 1269.18737699 0 20946
0.13850000 0.13851100 11566.37195205 0 330.09700535 0 2810.59893197 0 224.33415869 0 1721.11538678 0 20955
0.13950000 0.13949800 11540.68415848 0 93.41366135 0 3302.48696203 0 -131.01660511 0 2348.32937079 0 20506
0.14050000 0.14048300 11342.37882097 0 34.21304080 0 3471.46171109 0 -281.44631733 0 1641.31714182 0 21447
0.14150000 0.14148400 11406.04468868 0 89.69989288 0 3623.44044155 0 -133.92198315 0 1672.27536201 0 21771
0.14250000 0.14249400 11254.24311542 0 161.30384242 0 3408.72591867 0 -35.98627362 0 1336.54032886 0 22470
0.14350000 0.14350900 11176.62611844 0 103.57838770 0 3307.04875986 0 183.67215302 0 1346.97045884 0 22519
0.14450000 0.14449900 11204.19620724 0 -29.31431213 0 2921.01215506 0 452.65435431 0 928.87393752 0 22218
0.14550000 0.14550500 11052.58286349 0 85.88979519 0 2894.31677992 0 237.59326766 0 535.87505488 0 23559
0.14650000 0.14650700 10883.41988492 0 301.17830739 0 2650.26059627 0 140.24870955 0 226.00165080 0 23044
0.14750000 0.14750500 10597.51031345 0 474.12027043 0 2544.19879683 0 -251.40820733 0 268.41086932 0 23649
0.14850000 0.14849900 10279.25848119 0 284.13135610 0 2480.63258004 0 -129.44212052 0 535.09334874 0 23640
0.14950000 0.14949500 10216.05765112 0 45.77708756 0 2660.54678602 0 224.27326090 0 170.84154302 0 24457
0.15050000 0.15050000 10100.58437559 0 60.30574929 0 2645.12303755 0 137.95341661 0 465.21590681 0 24591
0.15150000 0.15149900 10148.92614575 0 121.61398688 0 2718.27788763 0 -41.47715022 0 341.19811822 0 25020
0.15250000 0.15250500 9956.58879132 0 95.06244124 0 2717.58033116 0 153.63625749 0 711.86965787 0 25297
0.15350000 0.15350100 9855.08878971 0 203.22809312 0 2725.09843972 0 42.31953269 0 563.35988677 0 25452
0.15450000 0.15450400 9793.02840910 0 166.70381524 0 2643.66149067 0 202.01235185 0 519.68288706 0 26061
0.15550000 0.15549900 9656.47342711 0 54.60250550 0 2690.85173905 0 42.65170243 0 423.67254409 0 26128
0.15650000 0.15649500 9486.91184484 0 134.74797858 0 2429.02447406 0 -5.15139912 0 138.83920260 0 26331
0.15750000 0.15749700 9463.02884020 0 153.97285616 0 2403.77957348 0 34.22688120 0 303.59318143 0 27345
0.15850000 0.15849900 9299.95564028 0 31.32205679 0 2356.70004835 0 161.81427660 0 417.15648094 0 26980
0.15950000 0.15949700 9402.65145297 0 -6.43366291 0 2236.41031152 0 331.84200374 0 245.73364086 0 27777
0.16050000 0.16050000 9248.55790847 0 138.10067853 0 2384.75731944 0 25.60342246 0 98.69737475 0 28224
0.16150000 0.16150500 9189.42062161 0 250.27772297 0 2422.41429615 0 -125.76278699 0 389.39151922 0 28075
0.16250000 0.16249700 8954.07835759 0 151.53694470 0 2368.52529126 0 160.56974729 0 833.28987906 0 28590
0.16350000 0.16349900 9070.13846634 0 66.19976924 0 2456.86029866 0 -198.41606075 0 585.84113508 0 29163
0.16450000 0.16449100 8834.47510490 0 -0.99238922 0 2619.59025652 0 199.97615132 0 689.49138218 0 28996
0.16550000 0.16550500 8931.47974264 0 205.70054325 0 2396.94794907 0 59.85864882 0 643.04297956 0 30777
0.16650000 0.16650700 8712.64631492 0 106.09025531 0 2417.86357065 0 116.25165997 0 1203.61706941 0 29211
0.16750000 0.16749900 8740.94717716 0 51.07685583 0 2357.70762991 0 403.82540186 0 1155.85106014 0 30922
0.16850000 0.16850800 8619.88237759 0 34.25445129 0 2329.49534627 0 338.58504956 0 953.93614475 0 30867
0.16950000 0.16949900 8675.70903933 0 93.15290810 0 2125.88636518 0 223.43730038 0 1031.95949605 0 30852
0.17050000 0.17049200 8507.07753234 0 146.90317676 0 2041.92492608 0 134.67600847 0 1561.55211382 0 31257
0.17150000 0.17149500 8427.12427482 0 153.97728509 0 2267.05850662 0 218.27981147 0 1549.54971372 0 32608
0.17250000 0.17250900 8436.70183579 0 17.69457157 0 2170.82893162 0 40.39626987 0 1045.30275469 0 32361
0.17350000 0.17350400 8275.17876134 0 133.24324964 0 2371.33766176 0 -207.64041456 0 1079.51734561 0 32508
0.17450000 0.17449800 8272.53247570 0 237.55783622 0 2417.35424371 0 -523.99334311 0 826.03861354 0 32791
0.17550000 0.17549800 8049.04867156 0 212.27418249 0 2593.27134042 0 -450.60043805 0 970.24125028 0 33633
0.17650000 0.17650100 7941.32602340 0 245.75910721 0 2523.31639222 0 47.58110144 0 715.97195421 0 33984
0.17750000 0.17750300 7641.14422525 0 87.13288510 0 2253.57241499 0 198.16582621 0 545.61427179 0 34069
0.17850000 0.17849800 7637.14711599 0 54.62708606 0 2002.38565415 0 433.26007015 0 -40.83528755 0 34536
