### header ###
fiducial parameters:
Omega_m = 0.31
Omega_nu = 0
Omega_de = 0.69
Omega_k = 0
H_0 = 100
w_de = -1
zeff = 0
beta = 0
fgrowth = 0
b_1 = 2
gamma = 0.55
Lx = 3500 Ly = 3500 Lz = 3500
nx = 700 ny = 700 nz = 700
xoffset = -685.467585 yoffset = -31.7331281 zoffset = 572.489161
bins = 400 dk = 0.001
kx_ny = 0.628318531 ky_ny = 0.628318531 kz_ny = 0.628318531
############################
A(data) = 7.98884379 (not used)
A(ran) = 7.98851392 (used)
Ngal = 475022
weighted Ngal = 0
Nran = 23820508
weighted Nran = 0
SN(data) = 3483.67862
SN(ran) = 69.5828534
SN(data+ran) = 3553.26148
############################
13 columns: k_central k_mean P_0(k) sigma^{lin}_{P_0(k)} P^img_1(k) sigma^{lin}_{P_1(k)} P_2(k) sigma^{lin}_{P_2(k)} P^img_3(k) sigma^{lin}_{P_3(k)} P_4(k) sigma^{lin}_{P_4(k)} N_modes
### header ###
0.00050000 0 0 0 0 0 0 0 0 0 0 0 0
0.00150000 0.00179520 10971.76596464 0 -19023.80416391 0 24767.68338683 0 -66926.33519656 0 7390.71038250 0 3
0.00250000 0.00253879 32291.99244059 0 -28346.25876822 0 388.35625685 0 3765.49836897 0 7546.16582295 0 6
0.00350000 0.00331552 42318.42545687 0 -17135.41916609 0 4.87527749 0 12546.60486825 0 -906.51227032 0 7
0.00450000 0.00420575 61670.85622139 0 -5948.82795531 0 7594.09791709 0 -7659.66822467 0 8296.37119104 0 24
0.00550000 0.00557378 75365.32900359 0 -11811.40250029 0 5180.23145570 0 -2125.34382126 0 -302.92109132 0 45
0.00650000 0.00659388 79361.22030739 0 -7469.98822820 0 1051.50547105 0 38531.69036889 0 28150.94295842 0 40
0.00750000 0.00754703 83638.45938484 0 607.05681667 0 26590.52022172 0 -19818.79708589 0 -13605.34056741 0 57
0.00850000 0.00846663 88820.63956971 0 8062.40189530 0 4692.42911349 0 5983.36253642 0 -11869.20003584 0 75
0.00950000 0.00948925 78557.81241855 0 1532.40975490 0 15976.03603433 0 -12303.67806173 0 -7994.10779581 0 112
0.01050000 0.01054430 80823.76369269 0 2060.73680595 0 2726.79250541 0 -15559.60589790 0 -4758.69697753 0 105
0.01150000 0.01145670 88331.46425922 0 1725.21214697 0 30963.53490885 0 -15746.83891058 0 -26298.76446275 0 144
0.01250000 0.01249090 70234.74585237 0 12068.05898959 0 24004.46803708 0 -15378.46266387 0 -8156.68274113 0 169
0.01350000 0.01339930 74164.42465376 0 8467.97008108 0 40583.83505078 0 -1249.30148161 0 -24547.12267644 0 180
0.01450000 0.01448870 64941.39952632 0 1181.97067439 0 39747.09946423 0 4074.88126906 0 -11627.26973856 0 267
0.01550000 0.01550050 61225.19514744 0 3082.26949372 0 34341.92265751 0 30294.32359681 0 9246.59810697 0 238
0.01650000 0.01653350 67415.17833731 0 -2820.91833870 0 39190.60441885 0 12478.28862412 0 20479.81487756 0 315
0.01750000 0.01747870 67510.95394699 0 -4132.77845553 0 25163.18682935 0 32593.93473839 0 14443.84772592 0 297
0.01850000 0.01844180 75381.05170483 0 -8342.09989254 0 33845.21816615 0 20319.93050718 0 31778.01512251 0 388
0.01950000 0.01947590 79431.08667700 0 2087.46539806 0 17656.26132556 0 10257.29098875 0 30243.16945615 0 399
0.02050000 0.02045430 79076.77228280 0 4589.82187940 0 23546.62740583 0 -701.44727852 0 32200.20286784 0 462
0.02150000 0.02154770 73769.47482748 0 486.85122951 0 18850.07938750 0 2100.75218784 0 28351.01986789 0 571
0.02250000 0.02255340 74272.37982074 0 826.82031967 0 31045.35938926 0 -14182.98375320 0 12596.09816019 0 510
0.02350000 0.02348930 67790.86231840 0 5713.71821011 0 21617.49625268 0 4055.21682018 0 3492.46591127 0 555
0.02450000 0.02439640 70158.34681113 0 3145.82463817 0 22861.13977631 0 2986.05099104 0 -1268.54518215 0 592
0.02550000 0.02547300 65474.64268959 0 -1248.24961075 0 14751.54763263 0 4992.98737069 0 -14309.65114912 0 837
0.02650000 0.02652900 65911.11373394 0 -1141.34631463 0 15689.70571452 0 -5399.08702807 0 -22724.72873454 0 723
0.02750000 0.02749970 67853.53167688 0 3808.39255532 0 11197.33136585 0 -998.54100528 0 -22747.09483068 0 826
0.02850000 0.02848090 60476.04165021 0 1598.84370381 0 11408.03770715 0 -8253.73166816 0 -8713.81998135 0 831
0.02950000 0.02946900 63387.95235427 0 963.37862336 0 12231.26505741 0 109.18696312 0 -14539.95550535 0 996
0.03050000 0.03053250 61534.44517963 0 3122.04128446 0 21625.35760330 0 -1226.51463714 0 -12110.02310065 0 1041
0.03150000 0.03150510 59526.36835052 0 1696.19158362 0 17527.04729492 0 -278.43353775 0 -9475.99453257 0 1036
0.03250000 0.03246190 55154.90378887 0 3896.63898413 0 24599.49477283 0 1034.34890375 0 -3285.24735229 0 1059
0.03350000 0.03345080 56185.29433649 0 1022.10069803 0 28163.89757845 0 -508.44669183 0 -1682.16294807 0 1302
0.03450000 0.03451200 55225.32377471 0 1019.54520546 0 30767.00114332 0 5066.79548794 0 5270.16087788 0 1339
0.03550000 0.03553350 53589.94139900 0 1969.63371734 0 31197.16096252 0 4777.37598950 0 8017.35967793 0 1365
0.03650000 0.03647120 53017.61292912 0 1986.08719202 0 30215.15647436 0 3995.33768756 0 13619.95603617 0 1308
0.03750000 0.03744890 51832.43128054 0 2613.35653765 0 29380.52462953 0 7032.73104879 0 11791.14014587 0 1579
0.03850000 0.03847530 50144.67680843 0 -801.90315990 0 23651.37159861 0 6552.50217675 0 15030.45949482 0 1662
0.03950000 0.03950240 50539.29446497 0 891.60338495 0 23767.63100921 0 4810.67047023 0 12520.80635142 0 1683
0.04050000 0.04050350 49920.01933786 0 -236.20147643 0 21159.21272843 0 -220.65039622 0 10439.59681688 0 1822
0.04150000 0.04152450 49703.11249466 0 358.40340375 0 23182.12647280 0 3075.07248258 0 9270.79113670 0 1887
0.04250000 0.04250150 49753.15940284 0 402.55429897 0 19335.82227730 0 -295.26125701 0 6103.63012860 0 1920
0.04350000 0.04349210 47592.72738423 0 1950.91041607 0 18772.01949753 0 -745.53727594 0 4539.52030775 0 2005
0.04450000 0.04448520 46921.85522347 0 2645.17839917 0 17787.80054440 0 1740.33694267 0 1415.79602991 0 2151
0.04550000 0.04548030 43125.26576640 0 2941.72847479 0 17764.65938553 0 1842.86667049 0 863.63579969 0 2274
0.04650000 0.04648670 42111.59442925 0 581.69122774 0 18095.38972787 0 693.57485557 0 2817.74058147 0 2311
0.04750000 0.04749250 41700.92190173 0 196.10637379 0 17349.66865133 0 2107.40665506 0 -3.69351719 0 2568
0.04850000 0.04851840 42573.97471368 0 2662.20763475 0 18981.61860635 0 -1191.76968185 0 206.82881315 0 2493
0.04950000 0.04949480 40421.40404569 0 1545.30901331 0 19909.59014940 0 -3686.47518674 0 4960.67832687 0 2644
0.05050000 0.05050630 39679.00466660 0 1347.72337693 0 20216.84716312 0 -294.12191479 0 5697.40867566 0 2829
0.05150000 0.05149060 39630.72933039 0 -86.25529263 0 21295.07015396 0 2049.45410696 0 6740.65419239 0 2784
0.05250000 0.05249300 39460.76914442 0 -734.78383408 0 22886.71684664 0 4252.49243147 0 3839.55007736 0 3055
0.05350000 0.05348950 39730.26953051 0 900.57418252 0 20296.67862506 0 3401.60641381 0 2027.82985659 0 3009
0.05450000 0.05448610 38684.37772814 0 2431.39395158 0 19588.27128316 0 3800.96302537 0 4035.75167315 0 3336
0.05550000 0.05550870 36233.62935278 0 1601.31283225 0 16757.96361302 0 835.32386513 0 8715.68013192 0 3349
0.05650000 0.05647670 35252.73209710 0 542.90708837 0 15146.38673567 0 5751.89558609 0 9134.74548166 0 3324
0.05750000 0.05747970 34982.45664827 0 -1039.29269678 0 12465.11255758 0 3099.25443999 0 6784.03556103 0 3639
0.05850000 0.05849280 35525.22201088 0 -203.21037740 0 11399.29057054 0 4825.87277221 0 5400.95825096 0 3846
0.05950000 0.05951020 35263.47225217 0 214.74331093 0 11916.36813957 0 1299.86878906 0 6007.85451892 0 3787
0.06050000 0.06049470 35236.89867260 0 473.92429028 0 11424.53547113 0 -1549.79330487 0 6212.77003434 0 3930
0.06150000 0.06148310 34049.39183580 0 1001.85938103 0 12140.13982416 0 -1538.55489517 0 5105.44897388 0 4083
0.06250000 0.06249100 34282.35354999 0 1896.85532631 0 14276.65562116 0 -2020.47783291 0 4122.54762740 0 4303
0.06350000 0.06350600 32955.22469723 0 1376.37855356 0 14273.77681671 0 -2098.50450590 0 4422.36403884 0 4470
0.06450000 0.06451750 31325.93210016 0 1207.12699638 0 16371.09658386 0 788.47464436 0 5667.96736396 0 4479
0.06550000 0.06550280 31393.80545130 0 176.24151584 0 16210.88004373 0 1672.81790593 0 5552.98127072 0 4636
0.06650000 0.06648880 30382.34857912 0 292.33151986 0 14923.83300681 0 3189.18386216 0 2224.09788632 0 4653
0.06750000 0.06749660 30063.90851733 0 -331.45336514 0 12170.58871741 0 3303.33953104 0 2777.60340401 0 5220
0.06850000 0.06852730 29530.44390757 0 424.59043982 0 10137.27806004 0 2832.25639931 0 1726.58511525 0 5029
0.06950000 0.06949320 29876.34333491 0 -26.55331721 0 8786.28834729 0 1402.94106080 0 1672.69611035 0 5040
0.07050000 0.07048030 28606.12623171 0 702.95754362 0 8182.27088378 0 413.57679832 0 1587.41706460 0 5475
0.07150000 0.07148790 28524.74464429 0 1306.45682233 0 6772.06637791 0 -1278.93102283 0 2915.65314984 0 5509
0.07250000 0.07249820 27884.32137678 0 121.02383197 0 9130.39405800 0 -742.13696499 0 1612.42944637 0 5916
0.07350000 0.07351270 27651.91327884 0 552.17462424 0 9333.44942285 0 -1524.91379100 0 2139.31709519 0 5721
0.07450000 0.07449140 27948.65158398 0 992.85093756 0 11397.40827532 0 -1082.59434468 0 2778.24559885 0 6028
0.07550000 0.07549160 26383.79991736 0 916.90807609 0 11719.17003455 0 312.51415354 0 2493.75328495 0 6183
0.07650000 0.07648840 26580.66585264 0 130.66782688 0 12334.34840148 0 424.50186122 0 2815.79185231 0 6330
0.07750000 0.07749960 25856.64653274 0 641.18282899 0 11904.41002877 0 1973.22115058 0 -138.93774629 0 6583
0.07850000 0.07848650 25664.43097389 0 537.85478655 0 10410.01156497 0 1087.62782354 0 1669.89481217 0 6549
0.07950000 0.07947320 25112.25413519 0 -79.78252227 0 9868.32021787 0 470.24938568 0 -229.89357298 0 6828
0.08050000 0.08048110 24913.17373495 0 -57.19121505 0 9002.39798310 0 1132.73204592 0 802.17443186 0 7147
0.08150000 0.08149960 25007.17777266 0 255.30566567 0 8372.46020719 0 523.11530775 0 -422.43465818 0 7386
0.08250000 0.08250610 24830.57419180 0 423.69247428 0 8676.29587254 0 1621.25408925 0 436.41457549 0 7227
0.08350000 0.08350160 24517.55956918 0 264.58095217 0 8419.91619137 0 -884.22589492 0 1052.14212973 0 7798
0.08450000 0.08449610 24153.39080589 0 1239.30317230 0 9338.66448784 0 1278.37740659 0 1151.21175604 0 7371
0.08550000 0.08548940 22945.51089143 0 1109.10370476 0 9099.18117434 0 -251.32959383 0 2737.84268558 0 8256
0.08650000 0.08650700 22240.20380048 0 372.59369524 0 8588.81343415 0 1563.51191532 0 3113.41594343 0 8037
0.08750000 0.08749060 21883.23204832 0 196.81168088 0 8289.65028987 0 994.15636465 0 3241.45630763 0 8155
0.08850000 0.08849210 21716.81500630 0 766.24695228 0 7818.85503858 0 959.18110502 0 2310.72775570 0 8718
0.08950000 0.08949900 21326.95844944 0 -219.66717377 0 6895.21277454 0 1382.23581339 0 3085.73513138 0 8571
0.09050000 0.09049190 21037.74932517 0 -90.39379548 0 6057.65783596 0 884.80940644 0 2884.72814663 0 8932
0.09150000 0.09150830 21243.25167381 0 402.52108199 0 5911.00489373 0 589.57472301 0 2643.17430838 0 9285
0.09250000 0.09250820 20797.47987661 0 474.15016571 0 6542.53708441 0 860.17016202 0 2110.36296578 0 9204
0.09350000 0.09350330 20054.08398828 0 954.12105257 0 5210.12673271 0 -286.65363169 0 2330.58043410 0 9349
0.09450000 0.09448040 19539.11016097 0 797.61374126 0 5777.09619738 0 -649.21026449 0 2467.47865816 0 9564
0.09550000 0.09549270 18761.94368195 0 296.64529761 0 5472.90621763 0 -9.92436833 0 1587.93746387 0 10155
0.09650000 0.09649430 18610.91717142 0 293.11544046 0 5775.29140843 0 -347.70753798 0 473.92871921 0 9913
0.09750000 0.09749140 18287.60528672 0 262.63886640 0 5499.61266510 0 -304.92739658 0 -1522.16785444 0 10476
0.09850000 0.09850240 18047.44656140 0 374.92331238 0 5978.76752162 0 -690.66504861 0 -1003.64756149 0 10575
0.09950000 0.09950330 17542.76999617 0 696.76811405 0 5481.96337934 0 -71.52079638 0 -1902.08146362 0 10882
0.10050000 0.10051200 17243.15288657 0 271.45797311 0 5606.89242026 0 -470.54058782 0 -1419.13987201 0 10875
0.10150000 0.10150300 17271.60876136 0 -52.01534609 0 5908.82364574 0 495.12114892 0 -1393.70674190 0 11118
0.10250000 0.10250800 17300.83969888 0 132.95647642 0 5928.63203484 0 491.83156121 0 -1047.39763854 0 11575
0.10350000 0.10349800 17241.15986811 0 390.56075672 0 6485.92428762 0 500.56541103 0 -36.72158671 0 11364
0.10450000 0.10450100 16685.88277845 0 376.92851041 0 6580.30478437 0 662.72514416 0 902.68567486 0 12093
0.10550000 0.10551000 16896.92128950 0 148.57731228 0 6570.33969203 0 593.79327877 0 1442.60212830 0 12067
0.10650000 0.10649700 16627.64234991 0 -68.28800970 0 6641.76725944 0 422.37597486 0 2227.18706495 0 12054
0.10750000 0.10749900 16801.69929605 0 -70.57433405 0 6186.91615589 0 447.63637670 0 2131.15679179 0 12807
0.10850000 0.10850100 16902.67889840 0 -263.12051253 0 6142.67114591 0 821.56096538 0 1998.85358254 0 12736
0.10950000 0.10950300 16674.47828389 0 107.52378921 0 5715.51192674 0 34.83962366 0 1655.33470504 0 12933
0.11050000 0.11050200 16584.79245286 0 643.34303957 0 5369.42426988 0 133.54552410 0 1260.57310828 0 13428
0.11150000 0.11150900 15851.69382662 0 746.02999440 0 4554.26864441 0 247.87945741 0 913.20106174 0 13453
0.11250000 0.11250000 15135.20368760 0 398.60147901 0 4462.73373513 0 828.53320832 0 993.14213970 0 13668
0.11350000 0.11349100 15063.67646927 0 -126.78586980 0 3581.57598141 0 650.88218553 0 -174.12891626 0 13791
0.11450000 0.11448600 14576.38345400 0 495.12225615 0 3905.64078420 0 150.83053038 0 -95.19719143 0 14205
0.11550000 0.11549300 14417.49559286 0 403.96380592 0 3602.60232624 0 40.51352579 0 -152.86340921 0 14776
0.11650000 0.11649800 13909.49733018 0 328.57123899 0 3769.03044059 0 138.71076363 0 726.04998426 0 14553
0.11750000 0.11747300 13731.89724009 0 216.39087286 0 4126.50044736 0 261.40651664 0 661.02886400 0 14568
0.11850000 0.11849100 13783.05138075 0 -72.57820340 0 3710.42462533 0 1043.02628471 0 1013.96918268 0 16015
0.11950000 0.11950300 13539.68168123 0 -140.69713870 0 3630.91426080 0 483.74876409 0 1004.65735751 0 15270
0.12050000 0.12050700 13850.48183889 0 238.39158228 0 3213.62048304 0 -111.58578229 0 673.82736426 0 15999
0.12150000 0.12150000 13504.25024181 0 353.78292261 0 3645.38578934 0 -260.55284040 0 802.22757902 0 15670
0.12250000 0.12250700 13154.69694729 0 567.46661205 0 3353.64110270 0 -684.35160900 0 772.25811743 0 16887
0.12350000 0.12352200 12714.23986600 0 289.52136382 0 3474.86091481 0 -208.81075929 0 836.93599562 0 16407
0.12450000 0.12449800 12917.19557993 0 -235.44191494 0 3639.80533763 0 53.73598536 0 161.14550818 0 16306
0.12550000 0.12549900 13084.27696144 0 -55.86463981 0 3716.35939143 0 -5.44807099 0 -279.76110950 0 17523
0.12650000 0.12650100 13138.19918331 0 30.40072864 0 3835.09900278 0 -258.47456503 0 -623.68301962 0 17154
0.12750000 0.12750600 13016.73578005 0 234.69121132 0 3944.20569155 0 -143.07768854 0 -271.29631717 0 18007
0.12850000 0.12850300 13085.71636367 0 13.56271212 0 3727.96318784 0 -222.34889085 0 68.18448347 0 17496
0.12950000 0.12949900 13040.65200166 0 -141.50984734 0 4079.27698201 0 101.11103084 0 -441.86658824 0 18405
0.13050000 0.13049000 13065.45400925 0 210.36642093 0 4144.53726449 0 107.33788487 0 -381.50248779 0 18100
0.13150000 0.13148800 12807.46884098 0 362.98734623 0 4032.75107312 0 137.06984509 0 -461.66833394 0 19059
0.13250000 0.13249300 12751.55360064 0 289.96314958 0 4225.16593382 0 71.27078329 0 -8.00904436 0 18957
0.13350000 0.13349100 12393.58533926 0 18.43453504 0 4167.24660269 0 113.91650666 0 -124.21266151 0 19468
0.13450000 0.13450700 12520.25273518 0 26.07388555 0 4270.76176742 0 182.75647176 0 -486.74050626 0 19953
0.13550000 0.13551000 12406.42923605 0 307.78184191 0 4304.63200904 0 162.08222686 0 -229.28348788 0 19956
0.13650000 0.13649900 12142.02211938 0 349.14583297 0 4110.52308265 0 -106.88380883 0 -120.46800126 0 19723
0.13750000 0.13749600 11771.20996120 0 347.00444535 0 3925.15022053 0 164.10846230 0 196.66331173 0 20946
0.13850000 0.13851100 11570.91160523 0 252.68927531 0 3800.27654123 0 296.69733754 0 -663.98406749 0 20955
0.13950000 0.13949800 11325.21671750 0 -62.81219146 0 3648.50818494 0 563.73191689 0 -420.14157971 0 20506
0.14050000 0.14048300 11500.49161938 0 -48.66065311 0 3394.56441523 0 363.52546121 0 -585.83116999 0 21447
0.14150000 0.14148400 11420.88160394 0 23.99372788 0 3325.12986629 0 -13.13642761 0 -223.72850252 0 21771
0.14250000 0.14249400 11691.71066900 0 90.42668028 0 3371.10215893 0 10.84582934 0 -214.54290185 0 22470
0.14350000 0.14350900 11301.74338889 0 213.79884162 0 3467.74140995 0 13.93573874 0 189.54048518 0 22519
0.14450000 0.14449900 11244.94236257 0 244.29977480 0 3696.03060306 0 287.86162233 0 870.75419732 0 22218
0.14550000 0.14550500 11120.15726186 0 -39.80799725 0 3570.78046471 0 692.96809217 0 409.43131991 0 23559
0.14650000 0.14650700 11306.72593506 0 -142.67022699 0 3477.86151484 0 684.33389328 0 918.62760814 0 23044
0.14750000 0.14750500 11226.56230337 0 10.86559344 0 3137.24358644 0 365.70117304 0 924.94104775 0 23649
0.14850000 0.14849900 11145.84505544 0 304.60076299 0 3146.74364113 0 16.31208109 0 920.18326977 0 23640
0.14950000 0.14949500 10844.30136133 0 367.89349335 0 3023.35365336 0 -475.81655059 0 921.67914086 0 24457
0.15050000 0.15050000 10513.82568247 0 611.19343722 0 3470.49841883 0 -234.92926630 0 1109.64624868 0 24591
0.15150000 0.15149900 9968.13722611 0 392.18285231 0 3202.09419290 0 -24.63404043 0 1106.04885034 0 25020
0.15250000 0.15250500 9886.85528961 0 183.77069671 0 3452.91556702 0 98.06691658 0 967.31594206 0 25297
0.15350000 0.15350100 9709.68702019 0 -55.63256388 0 3310.72477170 0 349.57101024 0 672.22298439 0 25452
0.15450000 0.15450400 9739.53800790 0 71.80391573 0 3448.86309614 0 100.04753404 0 481.81553618 0 26061
0.15550000 0.15549900 9548.51826013 0 152.91766361 0 3049.18538716 0 6.38449072 0 691.78335341 0 26128
0.15650000 0.15649500 9556.55676795 0 81.57546382 0 2843.00762671 0 291.58635240 0 771.88498008 0 26331
0.15750000 0.15749700 9454.22634197 0 8.75967048 0 2795.08660489 0 241.71106526 0 608.98783012 0 27345
0.15850000 0.15849900 9487.18865296 0 92.05918386 0 2809.89030318 0 3.43546558 0 163.42419263 0 26980
0.15950000 0.15949700 9327.80253719 0 228.34566197 0 2966.61906098 0 -96.67213582 0 165.99629368 0 27777
0.16050000 0.16050000 9200.13863204 0 157.29676807 0 2852.51875373 0 -399.69874640 0 181.63041633 0 28224
0.16150000 0.16150500 9178.14899495 0 94.83922317 0 2853.48204599 0 0.43463082 0 434.65518308 0 28075
0.16250000 0.16249700 9079.45029151 0 44.34643247 0 2815.27145304 0 211.64084551 0 -18.27287909 0 28590
0.16350000 0.16349900 9022.92607331 0 23.59999601 0 2535.35200930 0 426.38858537 0 -115.96820845 0 29163
0.16450000 0.16449100 9028.80547779 0 50.47009243 0 2196.83782262 0 499.70952032 0 -229.00335806 0 28996
0.16550000 0.16550500 8846.89825335 0 115.72129561 0 1961.26303978 0 236.02653369 0 -251.56211265 0 30777
0.16650000 0.16650700 8860.42863427 0 151.28228123 0 2014.66486238 0 20.16281422 0 107.87500335 0 29211
0.16750000 0.16749900 8562.97062802 0 225.46907198 0 2084.56444896 0 4.49717974 0 -161.88735394 0 30922
0.16850000 0.16850800 8529.96402774 0 223.06305580 0 2033.27744040 0 47.74043220 0 447.57769338 0 30867
0.16950000 0.16949900 8401.43648124 0 68.53536544 0 2098.33842103 0 136.71774516 0 147.53319205 0 30852
0.17050000 0.17049200 8292.63981757 0 77.24197734 0 2197.10355841 0 79.43053306 0 504.90908406 0 31257
0.17150000 0.17149500 8248.47231387 0 121.49440577 0 1954.49784931 0 159.85890403 0 272.84090648 0 32608
0.17250000 0.17250900 8179.94569557 0 43.75539177 0 2034.14108173 0 -82.19972150 0 90.93932892 0 32361
0.17350000 0.17350400 8206.18710539 0 11.25368950 0 2058.50019633 0 -94.35403390 0 323.89761069 0 32508
0.17450000 0.17449800 8168.49691171 0 124.74856203 0 2128.79838661 0 -221.98128966 0 194.88288190 0 32791
0.17550000 0.17549800 8095.38635093 0 216.23253862 0 2163.59870351 0 -78.69521997 0 195.01796426 0 33633
0.17650000 0.17650100 7952.97410911 0 181.45879529 0 2093.18978999 0 -38.01870956 0 238.86215608 0 33984
0.17750000 0.17750300 7731.58297436 0 179.99614118 0 2278.92803882 0 130.22382666 0 282.91340037 0 34069
0.17850000 0.17849800 7721.72860528 0 43.22768477 0 2291.82729724 0 288.68983223 0 209.23482933 0 34536
