### header ###
fiducial parameters:
Omega_m = 0.31
Omega_nu = 0
Omega_de = 0.69
Omega_k = 0
H_0 = 100
w_de = -1
zeff = 0
beta = 0
fgrowth = 0
b_1 = 2
gamma = 0.55
Lx = 3500 Ly = 3500 Lz = 3500
nx = 700 ny = 700 nz = 700
xoffset = -685.467585 yoffset = -31.7331281 zoffset = 572.489161
bins = 400 dk = 0.001
kx_ny = 0.628318531 ky_ny = 0.628318531 kz_ny = 0.628318531
############################
A(data) = 7.99893059 (not used)
A(ran) = 7.99661431 (used)
Ngal = 475416
weighted Ngal = 0
Nran = 23820508
weighted Nran = 0
SN(data) = 3486.39672
SN(ran) = 69.6534107
SN(data+ran) = 3556.05013
############################
13 columns: k_central k_mean P_0(k) sigma^{lin}_{P_0(k)} P^img_1(k) sigma^{lin}_{P_1(k)} P_2(k) sigma^{lin}_{P_2(k)} P^img_3(k) sigma^{lin}_{P_3(k)} P_4(k) sigma^{lin}_{P_4(k)} N_modes
### header ###
0.00050000 0 0 0 0 0 0 0 0 0 0 0 0
0.00150000 0.00179520 52767.71055797 0 -23422.72809111 0 75573.48871018 0 -20035.15031284 0 -111650.00177378 0 3
0.00250000 0.00253879 90636.27939347 0 -9108.39334859 0 23121.89302579 0 52141.34914298 0 102707.88152700 0 6
0.00350000 0.00331552 85857.57472499 0 -5317.70544065 0 -9947.74200379 0 -11506.47067479 0 56866.24231284 0 7
0.00450000 0.00420575 66607.00934879 0 6627.66111762 0 -27591.34766208 0 -17928.97268584 0 2023.47843293 0 24
0.00550000 0.00557378 74618.16852483 0 2691.30570437 0 -937.88127376 0 -13349.79131059 0 -29031.74639774 0 45
0.00650000 0.00659388 62245.84204922 0 -2163.78693303 0 -9275.40829615 0 -4072.52286387 0 3505.59768851 0 40
0.00750000 0.00754703 48093.63935902 0 9526.18538097 0 -19529.14506863 0 -3389.10575909 0 -3337.38692986 0 57
0.00850000 0.00846663 50177.11872015 0 6503.24140363 0 -11666.24432192 0 -13300.63018840 0 -9791.17933086 0 75
0.00950000 0.00948925 58309.85202269 0 -16909.10084680 0 -14007.26595832 0 -3347.40738382 0 -33710.02508011 0 112
0.01050000 0.01054430 57451.19323301 0 -7612.41154234 0 -20252.50004903 0 -11993.21007381 0 -16215.19825041 0 105
0.01150000 0.01145670 66793.13512899 0 200.96490992 0 -21319.76143830 0 -25041.72342609 0 -12385.50254214 0 144
0.01250000 0.01249090 70930.42002073 0 -2000.24869546 0 -2679.59118471 0 -18400.54299987 0 -17323.87013450 0 169
0.01350000 0.01339930 68015.85195872 0 5057.59438601 0 3794.86217439 0 -21386.19538722 0 -14435.21131257 0 180
0.01450000 0.01448870 71932.68686331 0 5738.28769889 0 25794.53079051 0 -8517.64053021 0 -4252.58101007 0 267
0.01550000 0.01550050 67933.80603181 0 1660.43904678 0 36567.12777632 0 -7211.92555365 0 -1166.90124031 0 238
0.01650000 0.01653350 70753.15210038 0 -1458.56842069 0 50999.12811468 0 -5495.60448351 0 1806.05119047 0 315
0.01750000 0.01747870 73139.68099179 0 5601.62199365 0 58979.94912072 0 -868.67592195 0 2811.52900725 0 297
0.01850000 0.01844180 70918.12974018 0 3504.21364790 0 54041.02791211 0 8924.11664663 0 -2686.13492868 0 388
0.01950000 0.01947590 75597.40493179 0 1607.80121459 0 76817.57512680 0 9913.57280940 0 16091.18821244 0 399
0.02050000 0.02045430 71565.52857233 0 -1234.38706008 0 62214.06447700 0 19344.45869066 0 8597.43877518 0 462
0.02150000 0.02154770 75946.29388683 0 -4675.82062626 0 53894.43033151 0 11241.39921863 0 -4089.18671272 0 571
0.02250000 0.02255340 76801.40953257 0 812.88136996 0 51713.40378874 0 882.65694650 0 -9307.61768905 0 510
0.02350000 0.02348930 81376.71559413 0 1385.84539128 0 46871.36542229 0 525.13822150 0 -6055.72017911 0 555
0.02450000 0.02439640 74193.21269829 0 1551.25485174 0 45003.46422539 0 -2003.39323571 0 -8859.91930733 0 592
0.02550000 0.02547300 75492.88218550 0 -385.47302347 0 36405.47183396 0 10778.11100357 0 -15077.07398230 0 837
0.02650000 0.02652900 77159.04562421 0 1125.74540896 0 36674.52932706 0 10214.03141568 0 -30351.23534638 0 723
0.02750000 0.02749970 72137.63559571 0 6977.74588374 0 31557.12224238 0 5846.07678100 0 -34727.46100770 0 826
0.02850000 0.02848090 62839.42938275 0 12173.57824511 0 31658.10184472 0 -6139.36052079 0 -14892.27688108 0 831
0.02950000 0.02946900 56810.76996550 0 6622.78929470 0 27908.56976814 0 2926.49295584 0 -5359.48132219 0 996
0.03050000 0.03053250 55377.45751772 0 -1155.08706973 0 31504.08580649 0 8794.94690530 0 879.35296477 0 1041
0.03150000 0.03150510 58044.89128978 0 -4723.47591228 0 30943.71544742 0 14721.87380212 0 -1283.73641180 0 1036
0.03250000 0.03246190 63604.63775097 0 -2090.67637226 0 29669.18013755 0 7043.30511899 0 -5776.07754349 0 1059
0.03350000 0.03345080 60651.53799859 0 2069.30678536 0 28055.05662549 0 6476.01455690 0 10143.35676636 0 1302
0.03450000 0.03451200 57865.18745798 0 5873.94582257 0 26717.96268039 0 9.28475334 0 6226.26719829 0 1339
0.03550000 0.03553350 55699.55144670 0 2402.79413657 0 24928.45354320 0 4018.30168923 0 11208.07152092 0 1365
0.03650000 0.03647120 54088.86035533 0 -2433.33160842 0 25083.35536741 0 11061.56251892 0 5840.17523187 0 1308
0.03750000 0.03744890 54529.64960636 0 -2072.46239793 0 16497.54253329 0 6501.93486930 0 4937.93577170 0 1579
0.03850000 0.03847530 54860.60139519 0 52.81897542 0 10677.67394514 0 7118.92909750 0 1273.07376300 0 1662
0.03950000 0.03950240 54551.57280950 0 2552.86842716 0 11813.50624201 0 770.65263033 0 -616.78828295 0 1683
0.04050000 0.04050350 50034.72862298 0 4571.36431393 0 8739.13131589 0 -2158.57186804 0 2371.44838501 0 1822
0.04150000 0.04152450 46328.71078293 0 4693.95709432 0 11899.31675935 0 -6010.96584220 0 -3673.45413276 0 1887
0.04250000 0.04250150 44041.16847540 0 3184.28989459 0 16261.03767516 0 -5489.72507903 0 886.88214565 0 1920
0.04350000 0.04349210 40741.94784919 0 2388.13437851 0 17115.37825817 0 -1257.98218427 0 -3769.62834613 0 2005
0.04450000 0.04448520 40739.62266098 0 -91.95200375 0 16032.39416766 0 1571.68329103 0 -1424.65388977 0 2151
0.04550000 0.04548030 41410.27337524 0 -769.80006132 0 15227.87904633 0 3505.81913500 0 -3968.17727478 0 2274
0.04650000 0.04648670 40768.07853576 0 -1005.67933309 0 13202.97228350 0 6600.70000669 0 -6452.22013087 0 2311
0.04750000 0.04749250 40988.74996939 0 182.64907021 0 9325.22268551 0 2280.79926172 0 -6411.54040949 0 2568
0.04850000 0.04851840 39785.18826161 0 1895.26091153 0 8161.10059873 0 662.43615648 0 -4106.71420291 0 2493
0.04950000 0.04949480 38352.87232307 0 1081.02318179 0 11049.67084207 0 14.44827666 0 -3382.67273837 0 2644
0.05050000 0.05050630 37453.35665480 0 1476.31735737 0 9357.16634261 0 -718.77214516 0 -3485.96645660 0 2829
0.05150000 0.05149060 36334.83040162 0 1893.24574842 0 12432.33847612 0 -2228.03963396 0 -1418.85199156 0 2784
0.05250000 0.05249300 35894.15187384 0 1138.43429320 0 13009.76021541 0 -1078.05026257 0 -1760.75430964 0 3055
0.05350000 0.05348950 36029.78785287 0 -371.54846778 0 15882.03199662 0 -1689.57033338 0 -42.94002577 0 3009
0.05450000 0.05448610 36032.44521082 0 -506.31969824 0 14130.16876381 0 1737.23669172 0 -704.06809780 0 3336
0.05550000 0.05550870 36618.39264023 0 -97.34865487 0 15324.09754901 0 2819.86646784 0 -1055.33870990 0 3349
0.05650000 0.05647670 37252.28323609 0 -996.10509382 0 12231.26505741 0 3674.84924568 0 78.91987744 0 3324
0.05750000 0.05747970 36996.62325603 0 348.53242618 0 11179.06202990 0 4032.16423991 0 3607.49629381 0 3639
0.05850000 0.05849280 36772.51940170 0 495.40570766 0 9715.92073906 0 1696.34659617 0 3070.90928845 0 3846
0.05950000 0.05951020 35990.37037651 0 892.37291153 0 9477.98755103 0 -76.08436578 0 2525.24297674 0 3787
0.06050000 0.06049470 35972.65465680 0 755.31413876 0 10918.29770809 0 -2115.97663447 0 -469.93160995 0 3930
0.06150000 0.06148310 34750.71288982 0 2069.31785768 0 11905.18509150 0 -3476.67677608 0 569.10863782 0 4083
0.06250000 0.06249100 33197.26571776 0 1935.79669269 0 13551.86123853 0 -5516.98514274 0 -1029.74724555 0 4303
0.06350000 0.06350600 32552.08135058 0 1211.38984143 0 15279.47607999 0 -1880.29112838 0 -890.41643173 0 4470
0.06450000 0.06451750 32106.53099988 0 -210.97096986 0 15569.34954374 0 1226.56999876 0 -5058.51338897 0 4479
0.06550000 0.06550280 31987.50350808 0 -174.33375427 0 15874.50281574 0 2855.12075006 0 -5023.48055325 0 4636
0.06650000 0.06648880 32125.35395207 0 241.17848643 0 14276.43417467 0 3316.82562267 0 -4805.78757499 0 4653
0.06750000 0.06749660 31078.79781021 0 -100.72294586 0 13263.53790026 0 3600.49858453 0 -2240.21919126 0 5220
0.06850000 0.06852730 31573.06639011 0 1320.56296415 0 11514.77491840 0 2280.36744105 0 -1778.83541606 0 5029
0.06950000 0.06949320 28957.56182145 0 1762.37086906 0 11736.99647751 0 1556.70243555 0 -548.50525580 0 5040
0.07050000 0.07048030 28798.78468355 0 1483.76903197 0 10828.37935824 0 -330.89089104 0 975.16511313 0 5475
0.07150000 0.07148790 26859.24554507 0 1186.90893126 0 12401.88958287 0 127.35388006 0 3687.18381553 0 5509
0.07250000 0.07249820 26767.01307933 0 241.58594799 0 11786.26832295 0 975.29908826 0 3307.34771263 0 5916
0.07350000 0.07351270 25923.41265140 0 -202.50839200 0 10994.67460469 0 2559.66683460 0 2685.96884381 0 5721
0.07450000 0.07449140 26799.78716080 0 -361.87125589 0 10330.02509048 0 2601.98526006 0 3202.64780914 0 6028
0.07550000 0.07549160 26389.22535652 0 261.83833731 0 8234.99729457 0 1156.84756938 0 1443.74257775 0 6183
0.07650000 0.07648840 26060.37730941 0 616.10622774 0 8615.58631556 0 -156.36447832 0 3037.49301215 0 6330
0.07750000 0.07749960 25742.60158711 0 -232.34387846 0 7807.29553147 0 580.75008013 0 2932.92597656 0 6583
0.07850000 0.07848650 25358.61336240 0 199.63623095 0 8575.48235507 0 724.41460189 0 2695.71248965 0 6549
0.07950000 0.07947320 25778.47591952 0 977.97748363 0 8895.95972462 0 -352.19293676 0 945.26540718 0 6828
0.08050000 0.08048110 24699.03497295 0 1177.92927583 0 9291.04241880 0 -1368.16288854 0 1811.60949753 0 7147
0.08150000 0.08149960 23575.19400386 0 1507.85133845 0 10126.59326659 0 -1431.33050163 0 896.58260942 0 7386
0.08250000 0.08250610 22612.23391438 0 1008.43523474 0 10798.74981703 0 -1133.46281936 0 1883.09242656 0 7227
0.08350000 0.08350160 22053.30295754 0 488.23637734 0 10484.89369772 0 162.06451114 0 1188.70264788 0 7798
0.08450000 0.08449610 21819.01256438 0 -33.39379948 0 9725.76403583 0 2047.64931801 0 832.14167898 0 7371
0.08550000 0.08548940 22171.00177036 0 -445.42966236 0 8529.27754360 0 2096.72186161 0 -851.83159420 0 8256
0.08650000 0.08650700 21733.86638652 0 30.36385780 0 6823.56376064 0 1462.37730042 0 -1978.55801114 0 8037
0.08750000 0.08749060 21560.14161012 0 418.19285054 0 6744.42985516 0 1045.03037550 0 -1605.85248542 0 8155
0.08850000 0.08849210 20718.53420065 0 866.66075883 0 5354.32161883 0 1076.84670086 0 -519.10269724 0 8718
0.08950000 0.08949900 20335.65320842 0 504.62563254 0 5446.34371039 0 784.59711621 0 -30.24538392 0 8571
0.09050000 0.09049190 19852.45695334 0 260.49194261 0 5533.05108605 0 445.21043033 0 775.13581465 0 8932
0.09150000 0.09150830 19963.18020152 0 276.02530710 0 6069.48307886 0 200.05365759 0 24.12714940 0 9285
0.09250000 0.09250820 19560.59047112 0 157.35212970 0 5939.68221501 0 -579.21877761 0 611.53335759 0 9204
0.09350000 0.09350330 19578.52763732 0 451.55265799 0 6383.97032069 0 -917.11069964 0 536.90367385 0 9349
0.09450000 0.09448040 19767.20005223 0 20.24530304 0 6635.93214426 0 -532.37066407 0 727.89684804 0 9564
0.09550000 0.09549270 18881.96768298 0 351.30161461 0 7095.71043235 0 -28.73246146 0 -576.95448719 0 10155
0.09650000 0.09649430 19153.90398053 0 626.85524068 0 7193.73372397 0 -358.70235652 0 420.98971979 0 9913
0.09750000 0.09749140 18360.12901428 0 514.14229572 0 7578.85132582 0 813.39401859 0 -87.87716677 0 10476
0.09850000 0.09850240 18061.39769067 0 528.82087673 0 6819.74380857 0 607.45652760 0 974.07006020 0 10575
0.09950000 0.09950330 17483.75450488 0 535.15756823 0 6842.17633866 0 1129.75359055 0 42.26251022 0 10882
0.10050000 0.10051200 17346.67912363 0 359.71658148 0 6458.18811395 0 -106.03899045 0 470.18405896 0 10875
0.10150000 0.10150300 16687.98652017 0 475.38140823 0 6310.06255252 0 533.92078954 0 1634.86197645 0 11118
0.10250000 0.10250800 16072.25453700 0 291.73693602 0 5967.44053333 0 202.35670115 0 858.67318371 0 11575
0.10350000 0.10349800 16216.85909913 0 -27.07327358 0 6116.92799071 0 788.49457454 0 938.65522927 0 11364
0.10450000 0.10450100 16206.11894406 0 113.26766843 0 5660.15030264 0 363.63286276 0 320.58144940 0 12093
0.10550000 0.10551000 15727.24089565 0 233.57622821 0 5496.68957134 0 311.55861191 0 292.62050754 0 12067
0.10650000 0.10649700 15835.19606264 0 117.21495223 0 5391.61320882 0 -109.97354107 0 -90.85075033 0 12054
0.10750000 0.10749900 15499.92606713 0 118.64106766 0 5807.26828251 0 129.79422045 0 -481.60294754 0 12807
0.10850000 0.10850100 15630.69022323 0 500.14798438 0 5855.00107480 0 -1019.46327026 0 -666.19521076 0 12736
0.10950000 0.10950300 15285.56585864 0 403.91287322 0 6288.61545935 0 -666.01251740 0 -885.14821958 0 12933
0.11050000 0.11050200 14970.33677105 0 241.34678577 0 6348.18456687 0 -469.49536036 0 -594.34357331 0 13428
0.11150000 0.11150900 14893.38411356 0 127.91303247 0 6115.47751616 0 45.92534599 0 -1251.50487425 0 13453
0.11250000 0.11250000 14892.94122057 0 -187.11121711 0 6231.90301163 0 602.39758239 0 -1249.79973623 0 13668
0.11350000 0.11349100 14911.65344951 0 203.45729024 0 6583.65969879 0 547.50321040 0 -1494.03307708 0 13791
0.11450000 0.11448600 14784.54316059 0 285.40910239 0 6085.41615428 0 715.49362978 0 -546.18449651 0 14205
0.11550000 0.11549300 14572.28669382 0 -129.08559167 0 5668.69813740 0 752.83172353 0 285.70584069 0 14776
0.11650000 0.11649800 14559.33207378 0 -2.71201095 0 5313.75262069 0 810.65361820 0 725.13319577 0 14553
0.11750000 0.11747300 14673.04484967 0 221.11986279 0 5481.46512472 0 384.19527718 0 31.92394836 0 14568
0.11850000 0.11849100 14315.63020452 0 139.75709833 0 5021.28823293 0 726.11088205 0 1358.05385598 0 16015
0.11950000 0.11950300 14404.87314256 0 280.13313961 0 4953.41488179 0 -69.92671378 0 767.79264883 0 15270
0.12050000 0.12050700 14183.53736944 0 -122.09120408 0 4894.62083701 0 359.57153402 0 646.30710092 0 15999
0.12150000 0.12150000 14175.01167933 0 80.81490583 0 5038.97073567 0 91.79510891 0 619.42460349 0 15670
0.12250000 0.12250700 14234.24861711 0 322.45820846 0 5108.15062113 0 -589.64780036 0 205.79576524 0 16887
0.12350000 0.12352200 14034.94677037 0 332.04794899 0 5576.50996096 0 -492.47929221 0 926.46349241 0 16407
0.12450000 0.12449800 13591.05726839 0 277.53114328 0 5455.31229350 0 -214.10222332 0 479.86902148 0 16306
0.12550000 0.12549900 13435.26965819 0 296.31312787 0 5498.98154258 0 288.31005149 0 830.41218184 0 17523
0.12650000 0.12650100 13291.32943555 0 343.63624414 0 5516.38723720 0 431.17182969 0 225.46464305 0 17154
0.12750000 0.12750600 12933.80406716 0 175.01913118 0 4913.22234270 0 933.73690258 0 553.87311887 0 18007
0.12850000 0.12850300 12908.00555033 0 -111.87809167 0 4565.20810133 0 405.98671966 0 563.62562257 0 17496
0.12950000 0.12949900 13040.54127841 0 -274.05886221 0 4300.59061049 0 594.63366822 0 -151.61223651 0 18405
0.13050000 0.13049000 13000.12729282 0 188.64916303 0 3977.81019737 0 86.45260146 0 -75.65088426 0 18100
0.13150000 0.13148800 12856.62996317 0 453.75715786 0 4054.10958770 0 2.38006265 0 -147.45900747 0 19059
0.13250000 0.13249300 12595.87671369 0 274.41206938 0 3824.51386026 0 -59.85798448 0 535.74993760 0 18957
0.13350000 0.13349100 12366.79031319 0 -43.81706462 0 3758.20170692 0 449.19646727 0 170.68099431 0 19468
0.13450000 0.13450700 12528.66770204 0 45.63336878 0 3963.96979135 0 413.66316246 0 -65.43954342 0 19953
0.13550000 0.13551000 12245.43763318 0 332.08670212 0 3832.09840276 0 86.90125206 0 -130.98006644 0 19956
0.13650000 0.13649900 12053.11135108 0 420.69408872 0 3698.58831010 0 -8.49472082 0 118.19042404 0 19723
0.13750000 0.13749600 11676.09869101 0 197.63324739 0 3603.16701481 0 -87.89698623 0 775.12142063 0 20946
0.13850000 0.13851100 11594.27421060 0 -8.81845345 0 3769.97158820 0 259.30277493 0 56.73581033 0 20955
0.13950000 0.13949800 11720.05582054 0 -15.17473189 0 3556.74075684 0 34.53314171 0 -92.98272647 0 20506
0.14050000 0.14048300 11513.66768592 0 68.76345533 0 3830.98009795 0 120.87657005 0 285.01714209 0 21447
0.14150000 0.14148400 11578.77295585 0 315.31545172 0 3582.32889950 0 115.67922078 0 323.18012404 0 21771
0.14250000 0.14249400 11259.44710808 0 177.00218455 0 3547.82753537 0 -77.85051231 0 717.70920198 0 22470
0.14350000 0.14350900 11163.33932866 0 196.28131653 0 3355.32409607 0 444.86608103 0 615.07650154 0 22519
0.14450000 0.14449900 11041.63233425 0 -4.62843108 0 3156.69766115 0 419.77619299 0 496.41328922 0 22218
0.14550000 0.14550500 10941.40564999 0 87.89598972 0 2586.66116251 0 647.34014882 0 179.63739786 0 23559
0.14650000 0.14650700 10828.52329846 0 182.76532962 0 2483.04634686 0 221.07778796 0 -26.20110656 0 23044
0.14750000 0.14750500 10664.90755462 0 281.01228220 0 2544.61954517 0 -163.80618783 0 -20.42367819 0 23649
0.14850000 0.14849900 10453.42615058 0 318.44670518 0 2580.06205692 0 -313.28146565 0 -152.57331430 0 23640
0.14950000 0.14949500 10028.73605984 0 321.41408823 0 2860.52404457 0 -436.94272539 0 160.64282463 0 24457
0.15050000 0.15050000 10217.99530796 0 -36.09002130 0 3193.53528582 0 -351.95266731 0 -217.73062416 0 24591
0.15150000 0.15149900 10009.06053864 0 62.23643057 0 3662.09392749 0 -175.41773487 0 -100.92833748 0 25020
0.15250000 0.15250500 10109.22078895 0 236.67537193 0 3828.65490974 0 139.55336755 0 140.66945789 0 25297
0.15350000 0.15350100 9884.81798185 0 129.80307831 0 3716.61405490 0 172.41381315 0 425.64452514 0 25452
0.15450000 0.15450400 9883.48930287 0 -66.05250732 0 3707.23579578 0 826.88564639 0 461.93628420 0 26061
0.15550000 0.15549900 9928.26578443 0 -127.21990493 0 3262.65980966 0 774.73831819 0 55.17383746 0 26128
0.15650000 0.15649500 9895.07095463 0 166.13469774 0 2687.91757297 0 251.34509508 0 32.64564250 0 26331
0.15750000 0.15749700 9791.03539063 0 191.16811692 0 2723.47080797 0 -165.69512645 0 386.85595684 0 27345
0.15850000 0.15849900 9458.19023426 0 372.46082734 0 2585.77537652 0 -222.25477608 0 217.31762645 0 26980
0.15950000 0.15949700 9211.33275243 0 243.53135546 0 2773.24090803 0 -10.02217017 0 299.09338863 0 27777
0.16050000 0.16050000 9081.58725020 0 181.60273551 0 2723.17185520 0 269.18482483 0 302.93548534 0 28224
0.16150000 0.16150500 9055.02474296 0 78.72943345 0 2703.96137164 0 295.77169118 0 263.05297134 0 28075
0.16250000 0.16249700 8911.93708933 0 85.78150785 0 2413.10247098 0 368.16033638 0 221.66240671 0 28590
0.16350000 0.16349900 8931.08113894 0 31.29935852 0 2345.43949401 0 256.37193055 0 369.12695034 0 29163
0.16450000 0.16449100 8801.99997621 0 35.13071508 0 2174.77067925 0 108.61828852 0 425.35221577 0 28996
0.16550000 0.16550500 8726.17669585 0 162.86061129 0 2078.77362308 0 12.35560727 0 203.96218825 0 30777
0.16650000 0.16650700 8643.95361175 0 151.78496478 0 2025.18357095 0 243.36859228 0 215.92362075 0 29211
0.16750000 0.16749900 8448.87032077 0 88.12540829 0 1729.97324664 0 -43.89113847 0 154.51540008 0 30922
0.16850000 0.16850800 8513.38875748 0 40.99738638 0 1870.09351722 0 -213.67483158 0 -19.08957377 0 30867
0.16950000 0.16949900 8486.22834470 0 18.86380907 0 2009.53837599 0 -180.09689934 0 -104.69658179 0 30852
0.17050000 0.17049200 8492.29597870 0 162.58601764 0 2137.60088484 0 -101.68900620 0 -195.99122161 0 31257
0.17150000 0.17149500 8320.45349752 0 143.15519481 0 2256.22977295 0 -144.06866161 0 -241.60366371 0 32608
0.17250000 0.17250900 8312.21568785 0 90.36622539 0 2087.08893902 0 222.30681601 0 -519.20124093 0 32361
0.17350000 0.17350400 8094.99881956 0 101.38274569 0 1885.37332547 0 367.42734848 0 -232.31287595 0 32508
0.17450000 0.17449800 8094.51163727 0 40.04992755 0 1695.05113416 0 373.55588027 0 -336.29307832 0 32791
0.17550000 0.17549800 8041.07659770 0 -104.15281992 0 1420.14745356 0 342.68513144 0 -249.64217152 0 33633
0.17650000 0.17650100 8179.91247860 0 -25.02245758 0 1385.04818389 0 221.08221689 0 -474.55098387 0 33984
0.17750000 0.17750300 8048.29575348 0 140.22767213 0 1364.65296157 0 -252.36707066 0 -207.33703286 0 34069
