### header ###
fiducial parameters:
Omega_m = 0.31
Omega_nu = 0
Omega_de = 0.69
Omega_k = 0
H_0 = 100
w_de = -1
zeff = 0
beta = 0
fgrowth = 0
b_1 = 2
gamma = 0.55
Lx = 3500 Ly = 3500 Lz = 3500
nx = 700 ny = 700 nz = 700
xoffset = -685.467585 yoffset = -31.7331281 zoffset = 572.489161
bins = 400 dk = 0.001
kx_ny = 0.628318531 ky_ny = 0.628318531 kz_ny = 0.628318531
############################
A(data) = 8.09077216 (not used)
A(ran) = 8.08573659 (used)
Ngal = 480916
weighted Ngal = 0
Nran = 23820508
weighted Nran = 0
SN(data) = 3491.3736
SN(ran) = 70.4296981
SN(data+ran) = 3561.8033
############################
13 columns: k_central k_mean P_0(k) sigma^{lin}_{P_0(k)} P^img_1(k) sigma^{lin}_{P_1(k)} P_2(k) sigma^{lin}_{P_2(k)} P^img_3(k) sigma^{lin}_{P_3(k)} P_4(k) sigma^{lin}_{P_4(k)} N_modes
### header ###
0.00050000 0 0 0 0 0 0 0 0 0 0 0 0
0.00150000 0.00179520 344.02598998 0 830.17744856 0 -5648.51328926 0 1894.62978902 0 -1463.97171520 0 3
0.00250000 0.00253879 16049.00265488 0 -17533.69068982 0 1994.87861793 0 8448.54922335 0 -19835.51629636 0 6
0.00350000 0.00331552 27992.16582052 0 -26885.48695489 0 24324.01533135 0 -66023.27638435 0 27138.37885375 0 7
0.00450000 0.00420575 48871.35945429 0 -14385.60729738 0 30355.77499955 0 -14887.29433491 0 20652.98603772 0 24
0.00550000 0.00557378 53438.25054898 0 3022.96612199 0 28620.74170047 0 5976.08801902 0 23637.42046934 0 45
0.00650000 0.00659388 67765.17452482 0 7903.63582972 0 20408.39838248 0 22740.56215903 0 16306.21276042 0 40
0.00750000 0.00754703 63822.31965690 0 -15190.56531169 0 -7238.00087860 0 30794.12833912 0 -3411.17290245 0 57
0.00850000 0.00846663 69027.86244714 0 -14944.87042397 0 -12855.63345394 0 20945.84902918 0 -20095.93737610 0 75
0.00950000 0.00948925 82342.88665781 0 -12548.70860996 0 -24311.94649729 0 -10363.39707748 0 -39438.40304829 0 112
0.01050000 0.01054430 87491.96059147 0 6775.84204067 0 -19662.89875244 0 -38443.88683308 0 -31.14467814 0 105
0.01150000 0.01145670 73252.50798170 0 13153.92188455 0 -12061.74776444 0 -34553.84695454 0 -3765.50944130 0 144
0.01250000 0.01249090 77994.89542477 0 1650.57360537 0 -1728.29025327 0 -20270.21576874 0 -14078.23956041 0 169
0.01350000 0.01339930 71737.81394651 0 211.55558861 0 4947.25866919 0 -6248.02431656 0 -11522.63626902 0 180
0.01450000 0.01448870 74903.28088891 0 4007.78298066 0 18615.67827109 0 -12588.79042581 0 -16758.07433627 0 267
0.01550000 0.01550050 81184.16786553 0 -1748.12078702 0 34988.43570367 0 -4778.67145151 0 11209.95381614 0 238
0.01650000 0.01653350 81522.31666550 0 -2706.10940265 0 17846.26241945 0 21549.29073179 0 -7488.83332504 0 315
0.01750000 0.01747870 81951.47997547 0 -4313.21306078 0 20093.61218789 0 21383.64875251 0 6860.43460228 0 297
0.01850000 0.01844180 78413.87219591 0 -1933.02861149 0 14241.77779798 0 20217.62222586 0 -2547.83051937 0 388
0.01950000 0.01947590 81201.66213875 0 6638.56735757 0 13635.34656767 0 4752.47433098 0 731.85520417 0 399
0.02050000 0.02045430 77444.26871154 0 6905.59861522 0 21015.27250579 0 7579.83676272 0 14751.54763263 0 462
0.02150000 0.02154770 68067.33826912 0 3136.29136651 0 19793.77363180 0 -1542.28626864 0 15493.61484198 0 571
0.02250000 0.02255340 64239.41413282 0 2175.30215085 0 27483.06032535 0 -1586.97417161 0 15526.83181644 0 510
0.02350000 0.02348930 69298.24861921 0 -29.89007302 0 31568.08384395 0 -2069.14070048 0 18796.26788889 0 555
0.02450000 0.02439640 67187.64206228 0 130.71986681 0 31590.89283307 0 6770.87056682 0 6484.50703004 0 592
0.02550000 0.02547300 69763.28626160 0 -322.85127599 0 34961.52995436 0 303.09271235 0 15844.82898523 0 837
0.02650000 0.02652900 71133.37573466 0 3606.62158015 0 29042.48655281 0 -1385.74574035 0 6468.87290740 0 723
0.02750000 0.02749970 65639.62032939 0 4301.16637138 0 31570.63047865 0 3763.66036305 0 13945.92527883 0 826
0.02850000 0.02848090 63648.70560375 0 4265.32525594 0 32590.17014796 0 7546.18796760 0 13387.88010797 0 831
0.02950000 0.02946900 60444.48552448 0 3456.35906004 0 25622.90975582 0 10073.50146908 0 8548.45481018 0 996
0.03050000 0.03053250 53599.46359834 0 3347.66204729 0 22031.15830790 0 10081.03064996 0 5424.68624305 0 1041
0.03150000 0.03150510 54528.21020413 0 186.46016441 0 20530.74757173 0 3473.98620115 0 8550.06029728 0 1036
0.03250000 0.03246190 54018.66181598 0 311.29176888 0 18785.52773381 0 4217.19385995 0 -1148.17793904 0 1059
0.03350000 0.03345080 52713.12399661 0 2871.90639449 0 15408.02577113 0 -3595.61568928 0 -1165.97116503 0 1302
0.03450000 0.03451200 49324.66043236 0 2355.60388819 0 15277.48306152 0 -3344.30713287 0 -60.69173054 0 1339
0.03550000 0.03553350 47053.72661206 0 1240.28860921 0 12757.75410254 0 2425.86886149 0 3023.12113453 0 1365
0.03650000 0.03647120 50425.80313558 0 -3126.48128672 0 14441.52253771 0 4592.15813994 0 -1589.59831259 0 1308
0.03750000 0.03744890 50348.85047809 0 -1341.92147872 0 13224.67404014 0 6140.94386324 0 -2587.83482894 0 1579
0.03850000 0.03847530 51121.69875043 0 1525.75528768 0 12672.94009443 0 111.36544303 0 -2680.48804302 0 1662
0.03950000 0.03950240 49382.67941441 0 1763.14593180 0 12600.19492037 0 -39.95393049 0 4421.87685655 0 1683
0.04050000 0.04050350 47276.94468040 0 358.92048132 0 11200.43161680 0 907.18325320 0 7108.42146125 0 1822
0.04150000 0.04152450 47872.08213940 0 2144.22213508 0 15469.92006687 0 2028.07344773 0 4182.45997700 0 1887
0.04250000 0.04250150 46981.20288449 0 3171.52350408 0 15825.23097030 0 2681.24096111 0 9683.84421406 0 1920
0.04350000 0.04349210 42380.76264560 0 1366.29166565 0 14264.91895685 0 2456.76064774 0 5489.03859490 0 2005
0.04450000 0.04448520 43542.47096557 0 -460.23225341 0 12782.33466364 0 1140.28337145 0 6836.16406628 0 2151
0.04550000 0.04548030 43573.91636805 0 108.74119132 0 17588.72014416 0 477.52611755 0 6553.01150369 0 2274
0.04650000 0.04648670 42374.45142045 0 2927.87699644 0 18774.56613224 0 615.41642191 0 6360.37519650 0 2311
0.04750000 0.04749250 40586.71385523 0 1407.08211028 0 16193.05360077 0 -1915.81114640 0 9121.99016347 0 2568
0.04850000 0.04851840 39774.00521354 0 1539.67319998 0 17106.52039831 0 899.88326945 0 6661.90781828 0 2493
0.04950000 0.04949480 39689.74482167 0 -701.19593674 0 18353.04272640 0 959.40587321 0 8232.42851521 0 2644
0.05050000 0.05050630 39472.39508548 0 -167.84647916 0 17098.65904769 0 3935.99002653 0 3864.32994031 0 2829
0.05150000 0.05149060 40321.31022933 0 688.63549147 0 17095.89096649 0 937.89788225 0 8426.54851393 0 2784
0.05250000 0.05249300 39312.51071510 0 1423.92311633 0 15033.44902252 0 938.62754846 0 6030.96246082 0 3055
0.05350000 0.05348950 37148.97844554 0 1550.78981410 0 14750.88329315 0 3314.99868908 0 8031.03399908 0 3009
0.05450000 0.05448610 36480.87436598 0 667.81619911 0 12757.08976305 0 1658.08064159 0 4767.44411414 0 3336
0.05550000 0.05550870 36632.23304625 0 -166.22659804 0 14091.63707344 0 1518.85722932 0 5848.28017364 0 3349
0.05650000 0.05647670 35583.79460917 0 27.17469608 0 13618.73808044 0 1883.01492028 0 3686.89593509 0 3324
0.05750000 0.05747970 36262.08522756 0 588.69336596 0 11857.46337154 0 -796.61391033 0 2706.30870450 0 3639
0.05850000 0.05849280 35476.72522818 0 549.92915677 0 11281.92392746 0 1278.17810474 0 4734.57038175 0 3846
0.05950000 0.05951020 33556.78410462 0 1226.37069691 0 9446.86324597 0 2057.14937271 0 2188.41178343 0 3787
0.06050000 0.06049470 34436.92320446 0 861.32168380 0 10903.41650354 0 1716.50929966 0 1259.56552672 0 3930
0.06150000 0.06148310 32778.17822338 0 566.95285618 0 9456.98335085 0 287.54495384 0 511.53697769 0 4083
0.06250000 0.06249100 31877.66604588 0 1922.17773317 0 9115.11424975 0 -716.92749584 0 1307.56405481 0 4303
0.06350000 0.06350600 31715.89938028 0 151.63548839 0 10068.48570594 0 -1918.88925270 0 684.38261151 0 4470
0.06450000 0.06451750 31182.98838675 0 -395.67174186 0 11528.28315468 0 -1037.12695004 0 867.60301367 0 4479
0.06550000 0.06550280 31787.75876835 0 348.63982773 0 12028.08789699 0 -255.57140146 0 236.72851909 0 4636
0.06650000 0.06648880 31657.99112147 0 439.67980408 0 10549.66679791 0 1138.00247254 0 755.59426858 0 4653
0.06750000 0.06749660 31259.38742800 0 -262.01328004 0 11228.22315209 0 3050.55835543 0 1402.25457666 0 5220
0.06850000 0.06852730 31730.18267929 0 -265.40251867 0 8890.33498361 0 1907.75049393 0 -2203.24869869 0 5029
0.06950000 0.06949320 30403.38599627 0 871.87028766 0 9627.95111838 0 1312.00405706 0 516.17406733 0 5040
0.07050000 0.07048030 29795.73681023 0 1744.40048588 0 7585.09611701 0 829.96707438 0 -4.23669222 0 5475
0.07150000 0.07148790 28867.87599042 0 286.60934240 0 6895.69995683 0 550.58463840 0 1476.90419058 0 5509
0.07250000 0.07249820 28238.74649423 0 267.55608585 0 7377.54538829 0 854.39594463 0 -1378.83660967 0 5916
0.07350000 0.07351270 27789.32082984 0 1042.12389023 0 7197.16614467 0 148.24403530 0 -1268.09121683 0 5721
0.07450000 0.07449140 26917.92886661 0 -156.06663278 0 6318.49966403 0 379.96564910 0 -811.23048633 0 6028
0.07550000 0.07549160 26880.28296223 0 165.93650313 0 5943.15892501 0 652.33708902 0 -691.66487954 0 6183
0.07650000 0.07648840 27580.16461401 0 -158.82807059 0 6337.34476088 0 100.54877819 0 -1872.97232167 0 6330
0.07750000 0.07749960 26752.72978032 0 451.03558042 0 5426.43567037 0 -454.79242023 0 -203.11958433 0 6583
0.07850000 0.07848650 26857.03108011 0 1143.88187701 0 6012.23915955 0 -549.32239337 0 -505.81590746 0 6549
0.07950000 0.07947320 25526.46980665 0 1242.52521882 0 6602.22798751 0 107.15663092 0 185.24774484 0 6828
0.08050000 0.08048110 24914.61313717 0 922.68340072 0 7121.55323848 0 107.49511189 0 584.68518437 0 7147
0.08150000 0.08149960 23659.67584223 0 723.40480586 0 7213.30959425 0 147.22981035 0 163.76300577 0 7386
0.08250000 0.08250610 23678.94168741 0 803.35363445 0 7719.40341706 0 522.52072391 0 965.64069932 0 7227
0.08350000 0.08350160 22668.48132446 0 555.73659114 0 6817.65113918 0 771.31143366 0 185.76592964 0 7798
0.08450000 0.08449610 22306.30557964 0 726.84829888 0 6510.70415056 0 59.92508277 0 -1187.80578957 0 7371
0.08550000 0.08548940 21803.40058638 0 329.40277059 0 6110.14065560 0 296.88113813 0 -430.19303618 0 8256
0.08650000 0.08650700 21073.51293434 0 913.49669282 0 6568.81171121 0 473.44596585 0 -2182.95312730 0 8037
0.08750000 0.08749060 20827.59660011 0 535.20739369 0 5112.83421453 0 111.18274967 0 -1295.21841264 0 8155
0.08850000 0.08849210 20075.12140544 0 -57.22409985 0 5185.78976276 0 661.44296895 0 -2247.16153892 0 8718
0.08950000 0.08949900 20240.20976849 0 39.95891304 0 4804.99036760 0 471.83715705 0 -1643.06656914 0 8571
0.09050000 0.09049190 20046.88697715 0 70.01540310 0 5408.39885324 0 846.60324242 0 -2008.27613096 0 8932
0.09150000 0.09150830 20056.51989974 0 245.20659820 0 4725.13676101 0 720.49056997 0 -1578.21596268 0 9285
0.09250000 0.09250820 19790.11976461 0 -21.90725899 0 4009.76492680 0 836.81752175 0 -683.22001740 0 9204
0.09350000 0.09350330 19680.06085591 0 265.25304229 0 3957.35961343 0 289.23126891 0 -1635.01698900 0 9349
0.09450000 0.09448040 19325.74646171 0 403.60284813 0 4185.74845747 0 -274.73095233 0 -811.06661592 0 9564
0.09550000 0.09549270 19131.31643790 0 390.24962440 0 4585.74726387 0 -431.34787966 0 -801.10927421 0 10155
0.09650000 0.09649430 18855.50482667 0 494.76240559 0 5585.95465403 0 -1354.82073713 0 -1074.97547797 0 9913
0.09750000 0.09749140 18532.30366521 0 674.97113541 0 6315.15582194 0 -924.77274841 0 -240.41560325 0 10476
0.09850000 0.09850240 18131.48550677 0 758.02242941 0 7227.50431467 0 -590.42064863 0 709.46807061 0 10575
0.09950000 0.09950330 18006.47895957 0 211.63198765 0 7659.95610511 0 493.15248956 0 1291.83028124 0 10882
0.10050000 0.10051200 17932.51582978 0 53.51708550 0 8126.93140434 0 647.16631333 0 1664.81261508 0 10875
0.10150000 0.10150300 17337.37837078 0 705.64811855 0 7547.10697056 0 736.04940081 0 1905.93463266 0 11118
0.10250000 0.10250800 17208.71795639 0 513.20004088 0 8550.21530983 0 809.71025613 0 1324.03967414 0 11575
0.10350000 0.10349800 16387.37290134 0 193.65939001 0 7260.77665075 0 362.80022394 0 1887.69851368 0 11364
0.10450000 0.10450100 16387.59434784 0 268.68657021 0 7199.26988638 0 165.76377486 0 1093.80175186 0 12093
0.10550000 0.10551000 16123.51940091 0 114.46126505 0 6850.73524574 0 -174.20642253 0 1142.19888364 0 12067
0.10650000 0.10649700 16125.40169613 0 142.30041134 0 6848.74222727 0 624.26763837 0 602.90026593 0 12054
0.10750000 0.10749900 16039.59117879 0 -38.99495644 0 6296.17785720 0 418.87822745 0 552.41157199 0 12807
0.10850000 0.10850100 15864.09483041 0 289.37188744 0 5999.12952697 0 452.64881814 0 -229.48057526 0 12736
0.10950000 0.10950300 15743.18504339 0 353.62569559 0 5289.11669797 0 261.78519015 0 -209.71093930 0 12933
0.11050000 0.11050200 15247.58778451 0 214.94150554 0 5368.74885807 0 192.74592321 0 587.88176455 0 13428
0.11150000 0.11150900 15416.66218449 0 146.99175536 0 5171.93828441 0 152.35076057 0 115.21418313 0 13453
0.11250000 0.11250000 15274.93642681 0 -70.02990784 0 5425.60524601 0 52.12363342 0 421.12590938 0 13668
0.11350000 0.11349100 15274.82570356 0 163.02116000 0 5221.65302285 0 477.13194278 0 62.56826815 0 13791
0.11450000 0.11448600 15081.61363548 0 -1.98108250 0 5160.35663265 0 138.01431440 0 878.49375237 0 14205
0.11550000 0.11549300 15126.34582775 0 222.69877631 0 4652.81233529 0 767.39515237 0 501.59956617 0 14776
0.11650000 0.11649800 14687.99248818 0 407.20246093 0 4645.18350349 0 663.82241155 0 878.27673480 0 14553
0.11750000 0.11747300 14411.62726070 0 342.86671757 0 4236.61471768 0 743.18440692 0 721.47157795 0 14568
0.11850000 0.11849100 14142.01615137 0 193.88305097 0 3755.76579546 0 487.86102553 0 995.49057979 0 16015
0.11950000 0.11950300 13903.85044452 0 157.24472814 0 3630.49351246 0 535.12767295 0 390.99811355 0 15270
0.12050000 0.12050700 13690.59746851 0 109.10070971 0 3423.17530256 0 -125.85911621 0 783.27840232 0 15999
0.12150000 0.12150000 13798.33118900 0 350.61955940 0 3670.13243531 0 -294.28910689 0 826.33978077 0 15670
0.12250000 0.12250700 13540.45674397 0 36.92564965 0 4009.48811868 0 -404.78205072 0 1320.08685418 0 16887
0.12350000 0.12352200 13588.73208018 0 -33.98151848 0 4285.73155058 0 -11.68085979 0 1734.32467029 0 16407
0.12450000 0.12449800 13753.82044323 0 36.63765849 0 4542.94165612 0 278.06482933 0 1445.82417482 0 16306
0.12550000 0.12549900 13664.02388895 0 44.14812713 0 4581.69479298 0 355.70618543 0 1598.81048684 0 17523
0.12650000 0.12650100 13463.83625623 0 237.04629481 0 4791.08352763 0 120.56543772 0 1333.01932957 0 17154
0.12750000 0.12750600 13235.30347197 0 508.01376393 0 4294.66691671 0 53.21481103 0 1243.20063064 0 18007
0.12850000 0.12850300 13031.68341855 0 241.41654142 0 4383.71055290 0 -166.94187022 0 1193.31980733 0 17496
0.12950000 0.12949900 12776.79850123 0 170.68653047 0 4479.78511535 0 134.52763931 0 1524.88057402 0 18405
0.13050000 0.13049000 12803.26135755 0 7.33132950 0 3972.96051910 0 795.28080242 0 1033.65688344 0 18100
0.13150000 0.13148800 12549.04077971 0 50.16106385 0 3751.95691572 0 473.17690836 0 874.32170037 0 19059
0.13250000 0.13249300 12629.09368815 0 212.04830707 0 3607.70666798 0 497.72203802 0 853.36289673 0 18957
0.13350000 0.13349100 12381.51650520 0 157.67211988 0 3419.27784422 0 519.81021880 0 741.89780278 0 19468
0.13450000 0.13450700 12216.87103515 0 105.10969023 0 3070.77642055 0 103.58514182 0 1182.12568694 0 19953
0.13550000 0.13551000 12196.60868073 0 163.32343447 0 2922.03080894 0 240.70459093 0 580.18206987 0 19956
0.13650000 0.13649900 11934.96964527 0 119.61653948 0 2745.41615576 0 -241.61030710 0 282.60116081 0 19723
0.13750000 0.13749600 11641.11014458 0 469.71680685 0 2826.60951365 0 -356.13911333 0 -85.90142113 0 20946
0.13850000 0.13851100 11433.17188449 0 275.12955602 0 3003.01379266 0 -460.42712633 0 89.97193990 0 20955
0.13950000 0.13949800 11256.67902688 0 56.00182591 0 3041.73371255 0 180.08471978 0 -8.42331540 0 20506
0.14050000 0.14048300 11342.82171397 0 -11.46107414 0 3402.81329722 0 208.15306320 0 448.92962424 0 21447
0.14150000 0.14148400 11364.52347061 0 66.31226406 0 3476.08994287 0 394.92657440 0 344.39359116 0 21771
0.14250000 0.14249400 11291.44612681 0 174.11120054 0 3502.05454456 0 309.18802717 0 1257.21819386 0 22470
0.14350000 0.14350900 11203.08897475 0 184.19144506 0 3663.87657179 0 114.18777862 0 1677.03646168 0 22519
0.14450000 0.14449900 11079.18966003 0 278.53872484 0 4007.38437696 0 265.11242376 0 1630.10087678 0 22218
0.14550000 0.14550500 10937.67427653 0 320.91140468 0 3828.80992229 0 -172.99732466 0 1622.29488778 0 23559
0.14650000 0.14650700 10572.39828076 0 166.80014446 0 3669.45702350 0 65.75222587 0 1850.98268458 0 23044
0.14750000 0.14750500 10548.94709679 0 -39.50461555 0 3710.47998695 0 -118.20149637 0 834.20113139 0 23649
0.14850000 0.14849900 10560.36266368 0 -35.89924514 0 3699.81733815 0 -237.03190079 0 702.10386738 0 23640
0.14950000 0.14949500 10583.12736351 0 112.16818658 0 3557.48260261 0 102.22457455 0 -26.31526223 0 24457
0.15050000 0.15050000 10384.44556696 0 197.25125218 0 3071.65113421 0 -236.35316728 0 -114.71039235 0 24591
0.15150000 0.15149900 10252.83991417 0 258.11914340 0 3449.06239798 0 20.04888000 0 -489.07455233 0 25020
0.15250000 0.15250500 9976.91757969 0 403.12452369 0 3437.11535950 0 -46.57351988 0 -467.06277059 0 25297
0.15350000 0.15350100 9869.27243780 0 179.70826074 0 3289.59877594 0 39.71554334 0 -330.48564395 0 25452
0.15450000 0.15450400 9540.76763276 0 94.78718324 0 3457.99776411 0 313.12756034 0 -116.88610418 0 26061
0.15550000 0.15549900 9684.02137126 0 -11.94847788 0 3302.15479229 0 543.02445501 0 18.54736203 0 26128
0.15650000 0.15649500 9595.65314688 0 -36.98311502 0 3267.63128350 0 201.76101008 0 -214.83410399 0 26331
0.15750000 0.15749700 9602.63978384 0 137.85487292 0 3210.90776346 0 112.41509942 0 117.51058330 0 27345
0.15850000 0.15849900 9499.68930768 0 246.70246928 0 3332.45974532 0 -435.40920840 0 -232.04492569 0 26980
0.15950000 0.15949700 9379.85353617 0 234.35350541 0 3396.43563812 0 -229.20487437 0 6.89774834 0 27777
0.16050000 0.16050000 9256.59641629 0 161.22522892 0 3613.74108501 0 -237.92322294 0 229.71198685 0 28224
0.16150000 0.16150500 9189.52027253 0 75.59209022 0 3627.74757591 0 -55.15855766 0 -118.25021460 0 28075
0.16250000 0.16249700 9056.59701309 0 154.75013336 0 3651.16554290 0 553.10580676 0 237.19134227 0 28590
0.16350000 0.16349900 8970.23287950 0 41.10755601 0 3188.53059500 0 573.35044546 0 -105.92217742 0 29163
0.16450000 0.16449100 8897.28840360 0 -61.22519515 0 2885.96824701 0 648.53595991 0 185.29757031 0 28996
0.16550000 0.16550500 8963.67806321 0 -27.96924611 0 2597.61169175 0 507.65612784 0 97.73076080 0 30777
0.16650000 0.16650700 8763.68973233 0 -6.30667442 0 2119.78551421 0 483.13978623 0 360.84374414 0 29211
0.16750000 0.16749900 8949.58299371 0 46.43101906 0 1998.17817072 0 219.00504875 0 173.56422769 0 30922
0.16850000 0.16850800 8663.57377132 0 242.62453205 0 1839.44532212 0 -156.69775530 0 216.32000998 0 30867
0.16950000 0.16949900 8535.26767133 0 373.28571554 0 1998.31103862 0 -206.42135159 0 200.70471029 0 30852
0.17050000 0.17049200 8289.24061386 0 237.87671917 0 2158.33934922 0 -396.57192187 0 378.37566326 0 31257
0.17150000 0.17149500 8143.26308345 0 153.48235217 0 2281.61861375 0 -167.54863362 0 116.88721141 0 32608
0.17250000 0.17250900 8088.47722024 0 -37.68299667 0 2340.53445411 0 224.54010393 0 317.92741315 0 32361
0.17350000 0.17350400 8133.18726786 0 -86.22163277 0 2216.97838146 0 212.73479121 0 134.37816293 0 32508
0.17450000 0.17449800 8247.34293674 0 -90.39534561 0 2248.52343487 0 409.75463180 0 -15.43382429 0 32791
0.17550000 0.17549800 8154.51256546 0 152.58881556 0 2076.31556697 0 153.54103549 0 -197.39629963 0 33633
0.17650000 0.17650100 8042.88138664 0 225.71819929 0 1963.85396378 0 1.61888461 0 -15.47180236 0 33984
0.17750000 0.17750300 7957.33660509 0 66.82114811 0 2028.66028095 0 -186.54099238 0 106.83376192 0 34069
0.17850000 0.17849800 8017.02750819 0 60.41901918 0 1888.45143177 0 64.09835271 0 35.25893260 0 34536
