### header ###
fiducial parameters:
Omega_m = 0.31
Omega_nu = 0
Omega_de = 0.69
Omega_k = 0
H_0 = 100
w_de = -1
zeff = 0
beta = 0
fgrowth = 0
b_1 = 2
gamma = 0.55
Lx = 3500 Ly = 3500 Lz = 3500
nx = 700 ny = 700 nz = 700
xoffset = -685.467585 yoffset = -31.7331281 zoffset = 572.489161
bins = 400 dk = 0.001
kx_ny = 0.628318531 ky_ny = 0.628318531 kz_ny = 0.628318531
############################
A(data) = 8.09377914 (not used)
A(ran) = 8.09479103 (used)
Ngal = 481143
weighted Ngal = 0
Nran = 23820508
weighted Nran = 0
SN(data) = 3486.21346
SN(ran) = 70.5085655
SN(data+ran) = 3556.72203
############################
13 columns: k_central k_mean P_0(k) sigma^{lin}_{P_0(k)} P^img_1(k) sigma^{lin}_{P_1(k)} P_2(k) sigma^{lin}_{P_2(k)} P^img_3(k) sigma^{lin}_{P_3(k)} P_4(k) sigma^{lin}_{P_4(k)} N_modes
### header ###
0.00050000 0 0 0 0 0 0 0 0 0 0 0 0
0.00150000 0.00179520 6960.61699724 0 -10575.40995311 0 12622.11812351 0 -21800.41105868 0 39753.85358237 0 3
0.00250000 0.00253879 9548.02000551 0 -4856.90849867 0 -2430.57459954 0 -4448.95976306 0 -6360.44163045 0 6
0.00350000 0.00331552 14779.78206092 0 -339.61588300 0 11760.35908288 0 -21070.63412988 0 4436.94629063 0 7
0.00450000 0.00420575 22166.57284043 0 -9158.63955862 0 427.86120457 0 -242.00116017 0 15931.85745830 0 24
0.00550000 0.00557378 34433.15861402 0 -11562.27519187 0 13618.73808044 0 -1985.42285253 0 5404.22458678 0 45
0.00650000 0.00659388 53469.47450497 0 -12575.94652902 0 -13453.09610115 0 6012.91457136 0 -10388.52018250 0 40
0.00750000 0.00754703 56032.38553075 0 -5248.17124079 0 7372.48533585 0 5906.34344498 0 6579.18647956 0 57
0.00850000 0.00846663 58801.79541439 0 -5831.43916759 0 -2221.92771066 0 -5010.22698044 0 9586.13094754 0 75
0.00950000 0.00948925 64816.06080938 0 1223.41438619 0 10114.61301113 0 1522.52216884 0 -4107.09066195 0 112
0.01050000 0.01054430 62255.58569507 0 -1025.55747784 0 -2871.59636939 0 -2510.32855521 0 -7642.22931308 0 105
0.01150000 0.01145670 64939.18506136 0 1374.03122069 0 16998.23306159 0 -7011.01821982 0 3790.99793303 0 144
0.01250000 0.01249090 60584.10754044 0 4502.09584986 0 11920.02200676 0 -7564.68982237 0 -9648.15811117 0 169
0.01350000 0.01339930 62376.16331234 0 -4.25576984 0 28567.37309484 0 -1285.38618820 0 2083.83367552 0 180
0.01450000 0.01448870 62481.57184461 0 -2901.29234455 0 14424.02826450 0 9618.19640021 0 5491.38592776 0 267
0.01550000 0.01550050 69034.39511879 0 -10489.07903650 0 17515.75352361 0 -1352.94951424 0 224.25222348 0 238
0.01650000 0.01653350 79454.22783587 0 -6905.60968754 0 22390.67669476 0 -1479.62798249 0 -7053.92347849 0 315
0.01750000 0.01747870 86710.25445927 0 1396.91771609 0 32218.91509679 0 -19245.80427652 0 -1450.67385309 0 297
0.01850000 0.01844180 80076.49249068 0 13114.17223845 0 40930.06664786 0 -4131.27261936 0 7096.64050764 0 388
0.01950000 0.01947590 71179.65805240 0 9507.16312693 0 37549.13226448 0 4430.53541456 0 15157.90195348 0 399
0.02050000 0.02045430 65787.76803546 0 -407.48701967 0 25364.81386430 0 20407.73404299 0 6382.68593101 0 462
0.02150000 0.02154770 70770.09275736 0 -3688.78930263 0 24714.09333471 0 23562.01793733 0 4460.88465689 0 571
0.02250000 0.02255340 68325.21271415 0 -775.91862801 0 8876.66066246 0 14846.65890283 0 1171.45196581 0 510
0.02350000 0.02348930 69655.99543410 0 -491.25690755 0 2576.80679342 0 1856.12024330 0 -1932.81823732 0 555
0.02450000 0.02439640 71940.65893718 0 -37.72186053 0 2011.21029703 0 -3266.32474918 0 8332.55554855 0 592
0.02550000 0.02547300 70484.42677704 0 38.76531642 0 3857.19936312 0 -2060.05032181 0 -10448.00071142 0 837
0.02650000 0.02652900 72573.99591681 0 5399.75136756 0 9499.66716303 0 -4577.32122468 0 -2769.64240246 0 723
0.02750000 0.02749970 65332.91693191 0 2744.04318748 0 11826.35013880 0 2076.50379649 0 -6167.16312841 0 826
0.02850000 0.02848090 63148.12579870 0 4091.30152676 0 12602.18793884 0 -1072.92599065 0 1150.56956120 0 831
0.02950000 0.02946900 60442.16033627 0 3315.41943742 0 14776.68180997 0 8469.80808700 0 -4570.43423864 0 996
0.03050000 0.03053250 58304.64803003 0 1224.08979800 0 14385.49657413 0 2775.96469993 0 2885.62500494 0 1041
0.03150000 0.03150510 55732.65769790 0 2021.20860634 0 10483.17748737 0 674.09310005 0 7543.09878898 0 1036
0.03250000 0.03246190 55829.87270981 0 1612.09727662 0 8099.46096646 0 -4417.75795172 0 3425.63335867 0 1059
0.03350000 0.03345080 53749.93649263 0 1915.09144528 0 13525.28765897 0 -3850.96564425 0 9738.81830679 0 1302
0.03450000 0.03451200 49292.21852064 0 3893.70481805 0 15225.66458137 0 -129.73775160 0 2896.75269138 0 1339
0.03550000 0.03553350 48435.33130293 0 812.62227756 0 20780.87138938 0 -2360.19890299 0 7830.20417152 0 1365
0.03650000 0.03647120 48650.57729740 0 -38.23661291 0 21108.28003427 0 4235.68464240 0 -535.62924926 0 1308
0.03750000 0.03744890 50618.90448041 0 -737.21642384 0 26588.74864975 0 -3564.56889049 0 -3144.01984923 0 1579
0.03850000 0.03847530 50529.55081913 0 124.67327023 0 23904.04205098 0 19.90593628 0 -3390.09119600 0 1662
0.03950000 0.03950240 51935.29317810 0 650.88107830 0 26564.83242814 0 -2976.72809354 0 2392.27542799 0 1683
0.04050000 0.04050350 49813.17140336 0 2619.83384766 0 21817.35171565 0 3292.23398925 0 -2192.91821963 0 1822
0.04150000 0.04152450 49638.33939447 0 1236.44651250 0 22776.87938444 0 6027.12036411 0 -2076.83596623 0 1887
0.04250000 0.04250150 45943.50460249 0 980.78210351 0 15189.23663272 0 8370.98758799 0 -232.99050223 0 1920
0.04350000 0.04349210 45470.71633273 0 815.87089766 0 12108.25152868 0 6508.24609445 0 -935.09769130 0 2005
0.04450000 0.04448520 43754.06309285 0 1628.77219780 0 14200.81019615 0 372.91811436 0 -1183.93047588 0 2151
0.04550000 0.04548030 42856.98333605 0 2024.64102704 0 12079.13131441 0 2876.49033696 0 54.62287858 0 2274
0.04650000 0.04648670 39742.44908781 0 951.16252738 0 12337.78082217 0 820.40612190 0 6767.42707381 0 2311
0.04750000 0.04749250 40132.08419818 0 2484.29751956 0 13786.26235494 0 1917.84845416 0 2016.44750667 0 2568
0.04850000 0.04851840 39366.43293697 0 0.22822165 0 12148.99768401 0 1724.00526356 0 1776.70952970 0 2493
0.04950000 0.04949480 38403.14067774 0 979.87970903 0 11891.12323899 0 1673.98050003 0 4114.65305981 0 2644
0.05050000 0.05050630 38853.45212812 0 -576.78286615 0 10697.80343166 0 -1567.97406222 0 3058.27576583 0 2829
0.05150000 0.05149060 38163.53556867 0 261.07102520 0 12368.78333166 0 1590.57267717 0 735.66629837 0 2784
0.05250000 0.05249300 38526.70782272 0 421.82457308 0 10220.13226665 0 523.26035521 0 584.69736393 0 3055
0.05350000 0.05348950 37982.06016489 0 -66.30661718 0 8781.11757160 0 -216.21482290 0 508.95380431 0 3009
0.05450000 0.05448610 37919.94442266 0 173.97833264 0 11159.68546147 0 427.14703962 0 -197.90451934 0 3336
0.05550000 0.05550870 37481.25891334 0 1609.12989357 0 11648.63932546 0 1277.00443831 0 803.21633762 0 3349
0.05650000 0.05647670 36581.41107533 0 950.63769919 0 10584.94322478 0 1770.54224478 0 2014.41019891 0 3324
0.05750000 0.05747970 35756.19070660 0 793.16266669 0 11493.51605475 0 -413.50704268 0 3529.58034406 0 3639
0.05850000 0.05849280 35177.99390457 0 1845.26936498 0 13721.37853151 0 1464.32602959 0 3324.39909285 0 3846
0.05950000 0.05951020 34002.00228558 0 1791.09247964 0 10964.56895351 0 -1399.40898918 0 1819.26047398 0 3787
0.06050000 0.06049470 32224.34053595 0 1279.45142209 0 12992.81955844 0 1059.67573954 0 4226.61640837 0 3930
0.06150000 0.06148310 31198.48964150 0 621.82508351 0 11879.60802117 0 -1285.14259705 0 3946.58624138 0 4083
0.06250000 0.06249100 31217.86620993 0 667.22161527 0 12980.30783140 0 2291.07437915 0 4342.78724037 0 4303
0.06350000 0.06350600 30972.28204545 0 -169.04782640 0 11738.76804948 0 1812.91603186 0 3118.30991100 0 4470
0.06450000 0.06451750 30117.94146245 0 261.37772860 0 11395.41525685 0 3154.20638806 0 3305.45434508 0 4479
0.06550000 0.06550280 30374.26578200 0 438.44523987 0 10992.01724674 0 488.83428288 0 5170.87534123 0 4636
0.06650000 0.06648880 29706.38314894 0 742.65957872 0 11588.40587844 0 232.58857684 0 4568.74017294 0 4653
0.06750000 0.06749660 29107.03820651 0 486.83683549 0 11153.37423632 0 514.72691447 0 5998.55376607 0 5220
0.06850000 0.06852730 29198.16343976 0 473.07393574 0 11932.53373381 0 881.04592324 0 3205.54875825 0 5029
0.06950000 0.06949320 29547.71673429 0 -479.02752479 0 11282.03465071 0 -606.75564943 0 4673.24077458 0 5040
0.07050000 0.07048030 28757.37418873 0 -140.21438534 0 10243.66095689 0 1629.71334541 0 3181.78754919 0 5475
0.07150000 0.07148790 30126.91004555 0 -390.61390388 0 9020.21335373 0 1527.00646039 0 3004.30925467 0 5509
0.07250000 0.07249820 29336.78894649 0 1.35672518 0 8658.59122516 0 1609.66136516 0 833.08836275 0 5916
0.07350000 0.07351270 29664.52976112 0 1085.16090957 0 8692.72720257 0 -336.49238017 0 895.18085310 0 5721
0.07450000 0.07449140 28219.03775605 0 1555.90522817 0 8571.91706648 0 214.38235314 0 1677.30219748 0 6028
0.07550000 0.07549160 26813.84901332 0 711.44890952 0 8283.92589794 0 -558.76376474 0 653.55947368 0 6183
0.07650000 0.07648840 27005.62167917 0 423.45995546 0 9250.08588929 0 578.35956520 0 2512.33264600 0 6330
0.07750000 0.07749960 26546.23092245 0 149.69561708 0 9558.17332737 0 730.85426600 0 1462.89769969 0 6583
0.07850000 0.07848650 26414.35953386 0 471.34665306 0 10467.26655661 0 265.24196996 0 1906.04535591 0 6549
0.07950000 0.07947320 25878.23756614 0 983.68083814 0 9561.09642112 0 787.82580612 0 793.05415790 0 6828
0.08050000 0.08048110 24499.17950998 0 827.52230506 0 8179.13741586 0 846.83908294 0 2678.08534854 0 7147
0.08150000 0.08149960 24715.64346018 0 206.79891787 0 8822.45056015 0 467.51452145 0 1545.91799118 0 7386
0.08250000 0.08250610 23855.43454502 0 -62.65983627 0 7370.04942439 0 706.23273730 0 361.49811854 0 7227
0.08350000 0.08350160 23877.13630167 0 630.13707775 0 8399.45453510 0 5.33702665 0 -440.42497154 0 7798
0.08450000 0.08449610 23040.28999187 0 1235.19533979 0 7866.96428992 0 -1178.13965000 0 -207.32817500 0 7371
0.08550000 0.08548940 21949.88744373 0 916.92247011 0 8113.22386621 0 87.47546283 0 1474.12503706 0 8256
0.08650000 0.08650700 21416.97645021 0 553.18109857 0 8256.89835306 0 1421.65328974 0 2134.15739182 0 8037
0.08750000 0.08749060 21176.70700165 0 -18.24099080 0 7503.73667425 0 1654.98039064 0 1585.44619078 0 8155
0.08850000 0.08849210 21190.43668442 0 -41.15439195 0 8315.50416833 0 1623.94466418 0 1241.24082914 0 8718
0.08950000 0.08949900 21174.38181343 0 502.19968617 0 6688.32638530 0 70.89963896 0 1956.08119176 0 8571
0.09050000 0.09049190 20811.20955938 0 285.40578069 0 7208.88066433 0 -200.02597678 0 2634.36073783 0 8932
0.09150000 0.09150830 20479.26126132 0 204.30653755 0 7034.87907980 0 -308.39303424 0 2098.49343358 0 9285
0.09250000 0.09250820 20933.78019513 0 -47.80221577 0 6718.53168741 0 556.94790347 0 1358.30851945 0 9204
0.09350000 0.09350330 20104.46306621 0 392.15849319 0 6346.00331888 0 435.43910368 0 -55.69722626 0 9349
0.09450000 0.09448040 19803.62800089 0 903.58031871 0 5671.24477211 0 -138.38855898 0 -184.24127052 0 9564
0.09550000 0.09549270 19320.54246905 0 388.11155847 0 6601.24255060 0 -338.68248602 0 85.87429394 0 10155
0.09650000 0.09649430 18578.69670620 0 697.86648867 0 6424.99328414 0 -268.29682438 0 184.19476675 0 9913
0.09750000 0.09749140 18492.00040287 0 560.39471819 0 7110.77986643 0 -78.83960309 0 -5.31301077 0 10476
0.09850000 0.09850240 17663.23689019 0 706.51286712 0 6992.64923294 0 337.56861014 0 468.15228735 0 10575
0.09950000 0.09950330 17556.27823245 0 114.09034216 0 7446.61455051 0 -231.99399300 0 619.89960623 0 10882
0.10050000 0.10051200 17267.29055468 0 470.90486730 0 7383.18120162 0 985.07705830 0 1101.35639908 0 10875
0.10150000 0.10150300 17027.24255261 0 28.90530045 0 7354.66996521 0 736.86100222 0 1372.50323987 0 11118
0.10250000 0.10250800 17034.10739400 0 -90.68123303 0 7134.18676110 0 714.58016298 0 464.65011101 0 11575
0.10350000 0.10349800 16883.74522296 0 345.11329227 0 6406.79038214 0 215.50176518 0 1206.91662221 0 11364
0.10450000 0.10450100 16710.35261630 0 154.62390886 0 6146.91184632 0 636.59667205 0 1168.19670232 0 12093
0.10550000 0.10551000 16316.51002250 0 196.78842900 0 5681.28737072 0 740.97769258 0 903.14406911 0 12067
0.10650000 0.10649700 16209.21919501 0 176.92024935 0 6173.52971518 0 377.84972783 0 -378.18964820 0 12054
0.10750000 0.10749900 15919.12428476 0 435.26748264 0 5593.59455816 0 -308.68645085 0 21.15843767 0 12807
0.10850000 0.10850100 15415.00133577 0 698.81538691 0 5999.45062438 0 -480.77473765 0 981.47412381 0 12736
0.10950000 0.10950300 15285.78730513 0 276.22350172 0 5914.90235207 0 297.23655976 0 802.97163924 0 12933
0.11050000 0.11050200 15124.24208603 0 -12.10880514 0 5897.47451281 0 572.48791135 0 868.95494453 0 13428
0.11150000 0.11150900 14884.96914670 0 127.28523165 0 5265.84267120 0 300.06886045 0 721.60333862 0 13453
0.11250000 0.11250000 14977.53378218 0 -24.32822281 0 5260.08506230 0 1052.57505763 0 828.15564204 0 13668
0.11350000 0.11349100 14911.65344951 0 -30.89820819 0 4895.84986506 0 776.70365584 0 623.56343851 0 13791
0.11450000 0.11448600 14787.53268829 0 400.94327571 0 4451.99358006 0 207.19419987 0 598.62634855 0 14205
0.11550000 0.11549300 14490.13004367 0 427.31976789 0 4764.21099529 0 -289.05189725 0 1105.75321927 0 14776
0.11650000 0.11649800 14123.30392242 0 405.48514335 0 5063.92775581 0 112.58561322 0 1202.79771737 0 14553
0.11750000 0.11747300 14112.56376735 0 19.68670425 0 5274.88876058 0 -84.22053150 0 1899.57911821 0 14568
0.11850000 0.11849100 14046.57271143 0 93.01461476 0 4919.77715899 0 377.96377278 0 2153.23500748 0 16015
0.11950000 0.11950300 14133.37973801 0 -65.49900180 0 4981.70467170 0 1056.63860084 0 2145.73904358 0 15270
0.12050000 0.12050700 14067.83157508 0 -246.86191076 0 4529.87631283 0 413.44614489 0 1918.93354199 0 15999
0.12150000 0.12150000 14098.94480782 0 321.21367915 0 4622.66239481 0 618.15350060 0 1782.91003160 0 15670
0.12250000 0.12250700 13900.30730058 0 276.31429478 0 4028.08962437 0 -237.94204589 0 1149.16337595 0 16887
0.12350000 0.12352200 13377.80429238 0 382.29305178 0 3958.71043706 0 -260.60598756 0 1518.85722932 0 16407
0.12450000 0.12449800 13290.33292632 0 219.59188197 0 3819.88562848 0 -246.67589570 0 1003.60770112 0 16306
0.12550000 0.12549900 13383.78334779 0 15.93827941 0 4015.12393201 0 1.92298601 0 434.23664920 0 17523
0.12650000 0.12650100 12953.40208209 0 247.55614553 0 3966.19532864 0 -539.44809409 0 -170.21817113 0 17154
0.12750000 0.12750600 12913.54171274 0 340.67771895 0 4211.03764735 0 -41.34926487 0 -176.31016425 0 18007
0.12850000 0.12850300 12657.43883968 0 141.36258542 0 4463.75238901 0 -314.39534153 0 42.44332128 0 17496
0.12950000 0.12949900 12557.34502332 0 246.29832943 0 4618.01201839 0 160.31729828 0 -426.87133873 0 18405
0.13050000 0.13049000 12502.75846197 0 156.60806947 0 4670.74950150 0 135.31045268 0 -471.68435897 0 18100
0.13150000 0.13148800 12114.00913758 0 234.71114151 0 4240.11357233 0 191.61986778 0 -187.14664855 0 19059
0.13250000 0.13249300 12303.78878498 0 48.70848556 0 4100.92337703 0 674.67993327 0 340.89362928 0 18957
0.13350000 0.13349100 12144.56875408 0 -73.72573914 0 3615.66766953 0 561.39122742 0 -223.95216348 0 19468
0.13450000 0.13450700 12225.95034150 0 -12.28551945 0 3421.04941619 0 651.72921838 0 -237.45818529 0 19953
0.13550000 0.13551000 11884.47984409 0 218.48132779 0 3187.56730274 0 171.60331897 0 -20.53218697 0 19956
0.13650000 0.13649900 11953.90332071 0 219.31618108 0 3196.91234489 0 361.63541537 0 -110.02879197 0 19723
0.13750000 0.13749600 11678.53460247 0 29.52579353 0 2880.11098718 0 195.93475276 0 472.33319721 0 20946
0.13850000 0.13851100 11701.01142185 0 113.94086578 0 2815.12751282 0 61.66100185 0 93.60344100 0 20955
0.13950000 0.13949800 11681.19196042 0 325.49977609 0 3446.06179796 0 -190.22364762 0 177.17380559 0 20506
0.14050000 0.14048300 11235.53088647 0 478.00887091 0 3311.69913628 0 -376.87979218 0 643.64863573 0 21447
0.14150000 0.14148400 10974.57833515 0 463.68792599 0 3587.85398958 0 -94.08719087 0 733.04326462 0 21771
0.14250000 0.14249400 10855.08580570 0 -41.72915633 0 3658.35148170 0 86.04890450 0 1170.09006986 0 22470
0.14350000 0.14350900 10853.53568023 0 -31.51726187 0 4117.46543031 0 476.28380270 0 797.85068901 0 22519
0.14450000 0.14449900 10838.66554800 0 104.27771574 0 3727.71959669 0 67.62942782 0 1084.91953289 0 22218
0.14550000 0.14550500 10738.22848957 0 190.13949795 0 3874.20645404 0 308.21144812 0 1215.11014257 0 23559
0.14650000 0.14650700 10660.78864979 0 55.74882329 0 3509.70552101 0 186.76465334 0 1338.34511780 0 23044
0.14750000 0.14750500 10573.62730881 0 -14.93446244 0 3443.08334258 0 263.87453785 0 1070.95622406 0 23649
0.14850000 0.14849900 10570.49384089 0 -15.89387938 0 3055.47446765 0 316.91872435 0 576.38869139 0 23640
0.14950000 0.14949500 10557.50600388 0 5.28712368 0 3039.75176641 0 153.17897047 0 612.75352779 0 24457
0.15050000 0.15050000 10409.48009338 0 108.54155730 0 2797.88790307 0 44.90115594 0 122.18531884 0 24591
0.15150000 0.15149900 10352.62370543 0 122.25950342 0 2597.16879876 0 15.98312232 0 81.05107852 0 25020
0.15250000 0.15250500 10339.69123005 0 7.78354539 0 2563.69716083 0 -50.92062533 0 -193.22978381 0 25297
0.15350000 0.15350100 10178.72177183 0 73.12739071 0 2844.84563263 0 79.25337586 0 -118.29561113 0 25452
0.15450000 0.15450400 10244.23671778 0 301.94894120 0 3015.68053226 0 -279.11448573 0 -207.18423477 0 26061
0.15550000 0.15549900 10067.68849855 0 397.23958305 0 3233.09670240 0 -302.49259235 0 559.71930637 0 26128
0.15650000 0.15649500 9838.02633716 0 209.00452497 0 3532.86882454 0 -279.04362285 0 424.69009074 0 26331
0.15750000 0.15749700 9636.91970148 0 289.18476515 0 3699.50731306 0 -146.97625411 0 507.83328504 0 27345
0.15850000 0.15849900 9610.15789240 0 259.18762275 0 3813.06507640 0 -113.17908983 0 191.29323419 0 26980
0.15950000 0.15949700 9242.15810472 0 122.11888489 0 3516.10532476 0 283.51573484 0 134.79448234 0 27777
0.16050000 0.16050000 9199.99469181 0 -24.61776411 0 3348.13815726 0 471.67328665 0 82.68413571 0 28224
0.16150000 0.16150500 9226.26931861 0 -5.89036608 0 3135.40558052 0 410.42561468 0 -416.65933355 0 28075
0.16250000 0.16249700 9109.64452129 0 122.22850091 0 2863.90110364 0 221.01356847 0 -413.46164615 0 28590
0.16350000 0.16349900 9019.91440096 0 144.55916560 0 2537.48896799 0 302.59667220 0 -221.62033187 0 29163
0.16450000 0.16449100 9029.62482983 0 -31.34630518 0 2471.75257554 0 36.24226577 0 -24.80798665 0 28996
0.16550000 0.16550500 9021.12128437 0 -37.86602220 0 2567.80499334 0 211.98408758 0 -369.61413263 0 30777
0.16650000 0.16650700 8952.69431699 0 180.65162281 0 2347.05605343 0 -9.91663984 0 -514.85756790 0 29211
0.16750000 0.16749900 8823.79031145 0 294.88369073 0 2350.95351177 0 -160.17335806 0 -640.47973637 0 30922
0.16850000 0.16850800 8505.88172126 0 239.25300915 0 2228.20571883 0 29.39314708 0 -411.85615905 0 30867
0.16950000 0.16949900 8448.26134290 0 174.07023294 0 2213.14735708 0 112.58561322 0 -812.75293099 0 30852
0.17050000 0.17049200 8092.55183578 0 142.40006226 0 1916.07688219 0 282.38746494 0 -816.39351139 0 31257
0.17150000 0.17149500 8077.68170355 0 109.71289855 0 1784.10584268 0 271.28081592 0 -698.47657377 0 32608
0.17250000 0.17250900 8037.15699471 0 -67.86737208 0 1643.43195586 0 319.07118430 0 -459.25899606 0 32361
0.17350000 0.17350400 8038.91749436 0 -26.40395155 0 1779.73227437 0 74.54996300 0 -379.46739449 0 32508
0.17450000 0.17449800 8136.95185830 0 3.98616980 0 1638.33868644 0 247.86395616 0 -133.13695532 0 32791
0.17550000 0.17549800 8031.60975998 0 51.38455574 0 1794.10415199 0 114.38818770 0 170.53483962 0 33633
0.17650000 0.17650100 8083.47252943 0 166.82118188 0 1923.07459148 0 251.34177338 0 285.50875331 0 33984
0.17750000 0.17750300 7962.00912617 0 41.68032738 0 1868.64304267 0 119.53349704 0 466.84132410 0 34069
0.17850000 0.17849800 7899.76051603 0 184.30770447 0 1836.44472210 0 -10.03574484 0 459.06523038 0 34536
