### header ###
fiducial parameters:
Omega_m = 0.31
Omega_nu = 0
Omega_de = 0.69
Omega_k = 0
H_0 = 100
w_de = -1
zeff = 0
beta = 0
fgrowth = 0
b_1 = 2
gamma = 0.55
Lx = 3500 Ly = 3500 Lz = 3500
nx = 700 ny = 700 nz = 700
xoffset = -685.467585 yoffset = -31.7331281 zoffset = 572.489161
bins = 400 dk = 0.001
kx_ny = 0.628318531 ky_ny = 0.628318531 kz_ny = 0.628318531
############################
A(data) = 8.02094918 (not used)
A(ran) = 8.02579371 (used)
Ngal = 476844
weighted Ngal = 0
Nran = 23820508
weighted Nran = 0
SN(data) = 3483.81313
SN(ran) = 69.9075739
SN(data+ran) = 3553.7207
############################
13 columns: k_central k_mean P_0(k) sigma^{lin}_{P_0(k)} P^img_1(k) sigma^{lin}_{P_1(k)} P_2(k) sigma^{lin}_{P_2(k)} P^img_3(k) sigma^{lin}_{P_3(k)} P_4(k) sigma^{lin}_{P_4(k)} N_modes
### header ###
0.00050000 0 0 0 0 0 0 0 0 0 0 0 0
0.00150000 0.00179520 30331.41588495 0 -22623.08479271 0 -10516.97022272 0 29983.85560889 0 -94471.84343390 0 3
0.00250000 0.00253879 53305.05048142 0 -19477.43731173 0 -250.02416673 0 -2672.58240310 0 58611.57287400 0 6
0.00350000 0.00331552 63628.11107958 0 -18994.46250314 0 -29792.96872902 0 -10831.55711546 0 10476.40122458 0 7
0.00450000 0.00420575 68915.47835023 0 -13829.55514499 0 -30416.45133956 0 -16665.28825429 0 2833.89510338 0 24
0.00550000 0.00557378 76580.18448269 0 1774.43970311 0 -12336.11997345 0 -20605.04287126 0 -4307.53295815 0 45
0.00650000 0.00659388 64918.81198369 0 8155.77481049 0 -5689.48089109 0 -2759.97626289 0 32197.98840288 0 40
0.00750000 0.00754703 57523.60623732 0 12574.83929654 0 234.81189966 0 419.71750967 0 21733.97710977 0 57
0.00850000 0.00846663 53800.86918680 0 -10623.93995279 0 -11392.75789890 0 25293.17592272 0 22065.70396134 0 75
0.00950000 0.00948925 58733.36844701 0 -11245.05308582 0 -14458.02030169 0 20882.51533122 0 -5579.61021191 0 112
0.01050000 0.01054430 70325.98180888 0 -6060.91309945 0 621.83172691 0 -16566.08022391 0 3907.22412665 0 105
0.01150000 0.01145670 72356.97835036 0 2189.04290595 0 -6581.37879988 0 -27537.64688671 0 15753.81447522 0 144
0.01250000 0.01249090 72405.25368657 0 1568.35052126 0 956.11960720 0 -22319.70309268 0 9228.33984335 0 169
0.01350000 0.01339930 65346.42516819 0 353.29574031 0 6070.10312905 0 -21587.71169891 0 19103.63562585 0 180
0.01450000 0.01448870 74036.42857886 0 -2464.97631275 0 10257.72280941 0 -1279.27426490 0 -19372.13950270 0 267
0.01550000 0.01550050 77166.13191210 0 2347.62074200 0 19742.17659814 0 -5927.79053816 0 -20628.51619988 0 238
0.01650000 0.01653350 75069.36576119 0 4165.48610305 0 11809.74165157 0 -15602.56651820 0 -25160.64019464 0 315
0.01750000 0.01747870 74279.24466213 0 2025.82576579 0 23747.70082454 0 -518.81038786 0 -506.38170326 0 297
0.01850000 0.01844180 66507.69059517 0 -206.06814443 0 12709.58948958 0 -641.38323807 0 -8685.69627631 0 388
0.01950000 0.01947590 73027.07544839 0 -3588.25259328 0 14863.04594356 0 11505.58488880 0 -15480.99239169 0 399
0.02050000 0.02045430 77186.83715951 0 -1721.99010045 0 21277.35443425 0 -1573.55451393 0 -32636.34174245 0 462
0.02150000 0.02154770 75395.88862009 0 2263.53750733 0 13211.05508062 0 -2770.46175450 0 -28153.37886988 0 571
0.02250000 0.02255340 70796.33416718 0 6673.76627817 0 19163.31545662 0 -7128.36271824 0 -22037.35880980 0 510
0.02350000 0.02348930 73852.51726362 0 700.06877408 0 13929.53823810 0 3178.02295875 0 -20317.05170273 0 555
0.02450000 0.02439640 66510.79084612 0 2025.84791044 0 17481.76148642 0 1183.02254525 0 -18673.80797639 0 592
0.02550000 0.02547300 66662.59241938 0 2866.51417230 0 10945.81243527 0 9593.22830775 0 -19712.05987464 0 837
0.02650000 0.02652900 67201.81463805 0 767.89451422 0 13960.31930109 0 2317.88047754 0 -14059.08443848 0 723
0.02750000 0.02749970 60871.32364624 0 4502.20657311 0 9574.11747511 0 1585.94444540 0 -12382.73446093 0 826
0.02850000 0.02848090 61372.67851403 0 4443.76684272 0 17288.10652534 0 2044.27225894 0 2619.59025652 0 831
0.02950000 0.02946900 54753.31056770 0 2676.18090867 0 18522.89218911 0 527.42022764 0 -875.14548134 0 996
0.03050000 0.03053250 53966.06827309 0 390.35370425 0 16480.49115307 0 5452.03488535 0 4707.66463244 0 1041
0.03150000 0.03150510 53052.82292205 0 -396.86644571 0 12014.57966071 0 -1586.02195167 0 -1102.20675363 0 1036
0.03250000 0.03246190 53947.57749064 0 674.24589813 0 17776.72821958 0 -2449.90687867 0 831.36993794 0 1059
0.03350000 0.03345080 54542.60422640 0 -1783.81796223 0 12761.51869298 0 -2962.26763733 0 -4187.74147593 0 1302
0.03450000 0.03451200 54154.74068800 0 595.62907022 0 14711.90870978 0 -1891.11986205 0 -6162.82277708 0 1339
0.03550000 0.03553350 54276.97915400 0 1190.70673867 0 11083.39714346 0 318.87741861 0 -3666.05781978 0 1365
0.03650000 0.03647120 54882.74604483 0 -1150.31489773 0 13409.24969487 0 5678.25355372 0 -2294.49572752 0 1308
0.03750000 0.03744890 55239.60707373 0 -803.08125526 0 14343.97535606 0 6642.04406756 0 370.94281161 0 1579
0.03850000 0.03847530 55170.84793661 0 743.16004781 0 14264.14389412 0 7233.81553982 0 3235.23366109 0 1662
0.03950000 0.03950240 52189.95664893 0 1725.83219716 0 9701.13918543 0 4450.58739480 0 7423.63947651 0 1683
0.04050000 0.04050350 51158.12669908 0 3522.52727315 0 9273.62565186 0 1697.78599839 0 6340.66645832 0 1822
0.04150000 0.04152450 48211.78106484 0 3131.75171333 0 7938.36971268 0 -3226.96263445 0 2441.76871993 0 1887
0.04250000 0.04250150 46202.81844974 0 2887.03119019 0 10649.15163640 0 -4017.46019255 0 -470.41989948 0 1920
0.04350000 0.04349210 43013.76745548 0 3385.81727862 0 7502.44121224 0 -7391.66260243 0 -3470.02230886 0 2005
0.04450000 0.04448520 39693.28796561 0 2460.59167212 0 8396.23248858 0 -4887.97744211 0 -7985.12814039 0 2151
0.04550000 0.04548030 39441.06040624 0 2239.47734549 0 8768.28474713 0 -3895.22172655 0 -15075.85602657 0 2274
0.04650000 0.04648670 36899.96186037 0 1660.97051837 0 10661.41977230 0 -2376.86275184 0 -18447.15748735 0 2311
0.04750000 0.04749250 35310.86180239 0 1436.68950684 0 10369.16575871 0 -1995.58724671 0 -16622.77052699 0 2568
0.04850000 0.04851840 35795.16528996 0 -7.24435639 0 12827.84191864 0 294.76853855 0 -14354.82623438 0 2493
0.04950000 0.04949480 36371.59052002 0 -711.32711395 0 12661.53559987 0 2569.49905904 0 -11304.62219334 0 2644
0.05050000 0.05050630 36576.64997566 0 46.03761936 0 13136.20616484 0 4180.12371646 0 -9188.66770352 0 2829
0.05150000 0.05149060 36365.50074137 0 442.85423961 0 13977.92429756 0 2255.34398696 0 -2734.48777116 0 2784
0.05250000 0.05249300 35851.41270004 0 1117.93941996 0 14540.39839834 0 3067.57651868 0 -1493.64554571 0 3055
0.05350000 0.05348950 35062.62027996 0 1430.44471565 0 15072.53432913 0 2016.45857900 0 3922.70323675 0 3009
0.05450000 0.05448610 34073.75095041 0 463.96584134 0 15203.96282472 0 2789.29577901 0 3437.97900084 0 3336
0.05550000 0.05550870 34096.00632329 0 -323.63851829 0 14954.83551630 0 940.45669652 0 5090.33525050 0 3349
0.05650000 0.05647670 35006.26214663 0 93.61362754 0 14988.38466051 0 3058.43077838 0 4352.32051204 0 3324
0.05750000 0.05747970 34356.31667978 0 -1074.89907893 0 11862.33519446 0 2387.65826854 0 5436.95437895 0 3639
0.05850000 0.05849280 35356.14761090 0 -554.45995208 0 12846.66487083 0 94.23245977 0 3737.18643441 0 3846
0.05950000 0.05951020 35741.35379134 0 1127.84915068 0 11697.35755466 0 -1373.12329006 0 -1137.23848212 0 3787
0.06050000 0.06049470 33660.42106493 0 2189.46365429 0 11582.31609979 0 -272.20092611 0 2554.76179471 0 3930
0.06150000 0.06148310 32902.74187759 0 967.57282000 0 10255.72979095 0 -1631.13060298 0 3170.65986274 0 4083
0.06250000 0.06249100 33085.98885333 0 -36.04119235 0 10720.23596174 0 1651.00542603 0 168.77212551 0 4303
0.06350000 0.06350600 32487.30825039 0 -704.49881124 0 9919.75116665 0 1576.45546303 0 -1750.84457892 0 4470
0.06450000 0.06451750 33211.54901678 0 232.29958916 0 10086.15713635 0 615.59690080 0 -2372.61097911 0 4479
0.06550000 0.06550280 32861.88499900 0 1359.08358219 0 11161.01414044 0 -2777.09407706 0 -1730.95868355 0 4636
0.06650000 0.06648880 31979.64215746 0 820.48030648 0 10010.96497851 0 -1105.79972303 0 166.79571553 0 4653
0.06750000 0.06749660 31383.50818922 0 652.03702901 0 12085.11036981 0 545.51904979 0 1048.42182859 0 5220
0.06850000 0.06852730 31589.78560059 0 -549.85718666 0 10813.87461273 0 2514.41424307 0 -698.32599015 0 5029
0.06950000 0.06949320 31087.76639331 0 -557.43397853 0 10704.85650257 0 2418.79364593 0 -1341.62252595 0 5040
0.07050000 0.07048030 30852.81166066 0 1227.23433825 0 9305.51394733 0 973.44336662 0 -1755.58353395 0 5475
0.07150000 0.07148790 29946.43115101 0 276.63649943 0 7973.40254840 0 2479.72464941 0 -756.23424895 0 5509
0.07250000 0.07249820 29072.16038333 0 71.70902590 0 6376.28612726 0 328.16267021 0 -1405.60949108 0 5916
0.07350000 0.07351270 29448.84087366 0 391.39782448 0 5682.16208438 0 -1162.43909341 0 -2509.66421572 0 5721
0.07450000 0.07449140 28780.18317786 0 617.53012872 0 7658.09595454 0 -951.79475713 0 -1807.28021852 0 6028
0.07550000 0.07549160 27726.65147136 0 1350.35859023 0 7242.11978343 0 -1598.52260639 0 -2464.56663673 0 6183
0.07650000 0.07648840 27757.32181111 0 209.65779214 0 8193.52036580 0 39.92004918 0 -2841.01460824 0 6330
0.07750000 0.07749960 27139.48608623 0 418.44862124 0 9744.00015480 0 -612.42357251 0 -3541.92598624 0 6583
0.07850000 0.07848650 26916.48946438 0 1196.35362433 0 9157.35516894 0 18.36710458 0 -4002.97759169 0 6549
0.07950000 0.07947320 26374.38844126 0 972.32727627 0 10822.36708587 0 376.53101395 0 -3066.76823897 0 6828
0.08050000 0.08048110 24800.23602180 0 511.08522684 0 9126.26408085 0 1007.73767828 0 -824.27922112 0 7147
0.08150000 0.08149960 25760.31730682 0 200.82982756 0 8905.05010329 0 1654.91395669 0 -52.15231074 0 7386
0.08250000 0.08250610 25062.53939675 0 -385.43427033 0 9141.64354002 0 2025.23893258 0 78.32429709 0 7227
0.08350000 0.08350160 25058.55335982 0 673.91815732 0 8837.78573002 0 695.69963470 0 -678.93834939 0 7798
0.08450000 0.08449610 24175.86762527 0 1221.29957215 0 9215.72846538 0 1305.46031309 0 851.39534460 0 7371
0.08550000 0.08548940 23368.91659249 0 876.37783109 0 8753.13780678 0 213.49435269 0 3243.28324123 0 8256
0.08650000 0.08650700 22753.62750232 0 271.86986360 0 8151.72233961 0 1487.81043053 0 3007.18805912 0 8037
0.08750000 0.08749060 22762.26391568 0 292.82756001 0 8517.74018114 0 1175.54872600 0 4238.79596567 0 8155
0.08850000 0.08849210 22782.52627009 0 172.36398768 0 8836.21345990 0 -99.17149170 0 3183.06086654 0 8718
0.08950000 0.08949900 22495.86378054 0 656.82138057 0 8208.72266777 0 -383.24527172 0 3150.29785740 0 8571
0.09050000 0.09049190 21565.23487953 0 485.60559297 0 7791.77213208 0 -688.73735686 0 2609.44800698 0 8932
0.09150000 0.09150830 21271.37537885 0 762.34506502 0 8306.07054758 0 -738.46870378 0 1301.25282966 0 9285
0.09250000 0.09250820 20760.94120471 0 577.89342033 0 7886.01976093 0 -1.73890861 0 496.98462118 0 9204
0.09350000 0.09350330 20063.27401788 0 574.46764303 0 7869.43341836 0 518.53025805 0 -285.38142157 0 9349
0.09450000 0.09448040 19327.18586394 0 534.31607154 0 6675.43819921 0 224.79144570 0 -502.88727754 0 9564
0.09550000 0.09549270 18828.26690761 0 443.44771622 0 7384.98599057 0 197.02869845 0 -848.22976694 0 10155
0.09650000 0.09649430 18474.61685290 0 632.15999150 0 7229.06551247 0 622.36319850 0 -702.96086532 0 9913
0.09750000 0.09749140 18172.01021561 0 371.64147531 0 6988.47496649 0 302.87790925 0 417.54069061 0 10476
0.09850000 0.09850240 17909.48539416 0 -58.10368533 0 6757.94916376 0 1305.47138542 0 1183.22184710 0 10575
0.09950000 0.09950330 17866.41405062 0 152.93870102 0 6281.52917146 0 1691.10938653 0 1146.39529475 0 10882
0.10050000 0.10051200 17801.97312017 0 322.63204396 0 5830.29871813 0 2036.86487364 0 1271.06967221 0 10875
0.10150000 0.10150300 17236.84166143 0 99.01304674 0 5122.13496738 0 782.93294579 0 1593.14145653 0 11118
0.10250000 0.10250800 17135.41916609 0 221.12318449 0 5112.72349128 0 -383.12347614 0 1452.56722063 0 11575
0.10350000 0.10349800 16876.10531884 0 487.10035682 0 5408.63137206 0 -926.13907329 0 1479.80513969 0 11364
0.10450000 0.10450100 16748.55213693 0 624.64741911 0 6091.92668127 0 -1412.74006826 0 588.47856286 0 12093
0.10550000 0.10551000 16222.61670804 0 295.79494307 0 6170.73948933 0 -558.61207389 0 1784.48230172 0 12067
0.10650000 0.10649700 16315.73495976 0 282.69527557 0 6926.54745378 0 -268.40754763 0 540.85538658 0 12054
0.10750000 0.10749900 16172.23763011 0 9.98497823 0 6765.71086346 0 391.13541038 0 732.87828698 0 12807
0.10850000 0.10850100 16188.29250110 0 144.75182405 0 7000.97562121 0 895.91051931 0 209.66222107 0 12736
0.10950000 0.10950300 15959.31682385 0 214.43550030 0 6326.03991724 0 566.87867160 0 1237.37658778 0 12933
0.11050000 0.11050200 15730.23042335 0 282.91893653 0 6252.97364576 0 566.80116533 0 1007.11209192 0 13428
0.11150000 0.11150900 15276.92944528 0 115.53085162 0 5322.65476985 0 704.65603825 0 488.78667189 0 13453
0.11250000 0.11250000 15360.30405116 0 133.02069591 0 4729.59890791 0 781.75485043 0 1073.00792585 0 13668
0.11350000 0.11349100 15154.46953278 0 -23.71780555 0 4201.39365244 0 853.54226839 0 316.76924797 0 13791
0.11450000 0.11448600 15013.29739135 0 -3.42812463 0 3371.99901725 0 694.75073647 0 680.09430010 0 14205
0.11550000 0.11549300 14896.26291801 0 -28.43306579 0 3104.71309612 0 697.66054343 0 56.53263317 0 14776
0.11650000 0.11649800 14805.69130100 0 162.50740413 0 3288.31438627 0 -213.88299129 0 440.71174476 0 14553
0.11750000 0.11747300 14745.12568424 0 481.91297264 0 3743.63052746 0 50.52766852 0 734.18703577 0 14568
0.11850000 0.11849100 14301.78979850 0 317.34168716 0 3930.32099623 0 -240.14876022 0 1449.00193204 0 16015
0.11950000 0.11950300 14135.92637272 0 235.24150586 0 3870.72974405 0 210.03646565 0 1747.17963941 0 15270
0.12050000 0.12050700 14157.73885261 0 52.51814036 0 4249.29252960 0 -20.71698408 0 1747.54502613 0 15999
0.12150000 0.12150000 13884.03098309 0 167.55195532 0 4012.45550173 0 508.25735508 0 1898.89263407 0 15670
0.12250000 0.12250700 14052.33032034 0 -180.74241587 0 3757.95811577 0 437.02133889 0 1279.37391582 0 16887
0.12350000 0.12352200 13843.83844400 0 116.02135561 0 3021.47135814 0 586.42575383 0 424.66794609 0 16407
0.12450000 0.12449800 13886.68834105 0 211.21345378 0 3113.41594343 0 -58.66793101 0 148.24292807 0 16306
0.12550000 0.12549900 13634.35005843 0 165.54454283 0 2860.80085269 0 -337.36155767 0 -17.55572462 0 17523
0.12650000 0.12650100 13646.52961573 0 154.72909595 0 2939.22612938 0 -363.55535649 0 -426.77611674 0 17154
0.12750000 0.12750600 13288.11846135 0 438.32676599 0 3273.27816916 0 -286.45211538 0 -343.84108215 0 18007
0.12850000 0.12850300 13142.96028298 0 356.22215576 0 3080.24325827 0 -114.43136977 0 -121.58630607 0 17496
0.12950000 0.12949900 12931.03598595 0 111.23811129 0 3083.79747454 0 551.10725213 0 -308.91786244 0 18405
0.13050000 0.13049000 12863.93769755 0 64.65374053 0 3166.25307746 0 405.55932792 0 -205.80794480 0 18100
0.13150000 0.13148800 12812.22994065 0 135.42006869 0 3122.28487561 0 132.66970321 0 -401.73494693 0 19059
0.13250000 0.13249300 12604.07023406 0 333.74090745 0 3253.73551586 0 -201.75768838 0 42.29617008 0 18957
0.13350000 0.13349100 12327.48356009 0 256.80818015 0 3274.16395515 0 -318.13557285 0 207.92275884 0 19468
0.13450000 0.13450700 12181.21814923 0 146.31855801 0 3374.82246007 0 155.35800400 0 263.04632795 0 19953
0.13550000 0.13551000 12161.84158080 0 70.26807355 0 3607.26377499 0 151.33321392 0 -157.76180571 0 19956
0.13650000 0.13649900 12100.27945481 0 42.73540921 0 3505.63090548 0 -120.37610096 0 -321.78611834 0 19723
0.13750000 0.13749600 11923.23298096 0 432.19491251 0 3692.32137425 0 -201.37237148 0 -137.85155122 0 20946
0.13850000 0.13851100 11743.08625616 0 255.41085275 0 3773.57009377 0 61.44852394 0 -125.21027798 0 20955
0.13950000 0.13949800 11545.22381165 0 -10.75489234 0 3561.00360190 0 36.19188669 0 -456.18642592 0 20506
0.14050000 0.14048300 11635.13108918 0 118.30114729 0 3743.40908096 0 -90.40464636 0 -1157.71121071 0 21447
0.14150000 0.14148400 11289.23166184 0 323.29527622 0 3577.19134078 0 -122.66364327 0 -801.34068580 0 21771
0.14250000 0.14249400 11171.31140253 0 286.05572615 0 3873.22101714 0 -285.77227464 0 -898.99969793 0 22470
0.14350000 0.14350900 10915.74000106 0 118.19153128 0 4064.04146306 0 130.24818577 0 -956.23918831 0 22519
0.14450000 0.14449900 10804.06453294 0 101.81799878 0 3581.15523307 0 394.91882377 0 -768.48909806 0 22218
0.14550000 0.14550500 10815.65725703 0 109.10403140 0 3612.29061046 0 553.44240543 0 -871.14947931 0 23559
0.14650000 0.14650700 10699.71894385 0 -10.64766794 0 3189.75962305 0 660.62583137 0 -521.99146679 0 23044
0.14750000 0.14750500 10818.28139801 0 -29.10803472 0 2741.79550554 0 434.46916802 0 -308.94665048 0 23649
0.14850000 0.14849900 10666.13658267 0 14.48038640 0 2577.27183106 0 292.73787418 0 25.90292885 0 23640
0.14950000 0.14949500 10711.84313953 0 101.80880875 0 2607.20032505 0 123.04120955 0 186.82998006 0 24457
0.15050000 0.15050000 10427.73835700 0 372.89375524 0 2657.72334319 0 -61.14082403 0 722.40165324 0 24591
0.15150000 0.15149900 10371.60167017 0 297.56651504 0 2853.44882901 0 -82.24866117 0 491.43295752 0 25020
0.15250000 0.15250500 9913.36243523 0 273.62039815 0 3024.90377883 0 -126.39501673 0 614.29922433 0 25297
0.15350000 0.15350100 9863.24909310 0 353.66777043 0 3368.42265633 0 1.39723881 0 636.10506083 0 25452
0.15450000 0.15450400 9522.85261120 0 113.61755389 0 2995.67284131 0 438.41091566 0 954.04686800 0 26061
0.15550000 0.15549900 9485.89319096 0 -12.59510165 0 2865.15227635 0 689.08834955 0 1101.61881318 0 26128
0.15650000 0.15649500 9542.57242170 0 -74.06920266 0 2343.24717369 0 586.23863155 0 625.77236731 0 26331
0.15750000 0.15749700 9361.51776627 0 128.21641417 0 2128.32227664 0 422.88530180 0 735.51682198 0 27345
0.15850000 0.15849900 9297.89618786 0 196.95562111 0 1750.97744682 0 -13.84505640 0 683.64740914 0 26980
0.15950000 0.15949700 9135.67555694 0 73.70680547 0 1698.70500135 0 9.20048187 0 900.40477595 0 27777
0.16050000 0.16050000 9082.27373434 0 47.26310427 0 1736.41733968 0 -42.77139427 0 551.94874881 0 28224
0.16150000 0.16150500 9031.49605272 0 116.20072727 0 1820.09089834 0 151.89790249 0 818.74970211 0 28075
0.16250000 0.16249700 9009.29604146 0 99.08756348 0 1921.40267043 0 141.29615148 0 495.84970789 0 28590
0.16350000 0.16349900 8910.76342290 0 105.49954678 0 2054.37021918 0 -68.70853660 0 218.59094380 0 29163
0.16450000 0.16449100 8761.02130205 0 163.57256178 0 2252.86378620 0 -441.84112189 0 352.24608392 0 28996
0.16550000 0.16550500 8705.81469051 0 251.50342933 0 2257.86847702 0 -370.21425264 0 178.86012066 0 30777
0.16650000 0.16650700 8619.24018275 0 187.14886301 0 2497.39607982 0 -282.71520576 0 415.35169199 0 29211
0.16750000 0.16749900 8409.16496397 0 99.25464486 0 2438.71275828 0 -27.94245108 0 172.88881588 0 30922
0.16850000 0.16850800 8377.98529728 0 30.82601663 0 2352.24897377 0 246.64267873 0 106.23508132 0 30867
0.16950000 0.16949900 8370.19038060 0 7.57828664 0 2162.56897730 0 433.72953673 0 -166.31185494 0 30852
0.17050000 0.17049200 8494.13398462 0 40.62878869 0 2196.51672520 0 139.95418571 0 -95.43934318 0 31257
0.17150000 0.17149500 8282.78544849 0 167.23639406 0 2054.69131660 0 12.02443403 0 -161.06910914 0 32608
0.17250000 0.17250900 8264.74863136 0 156.46634371 0 1984.61457282 0 -196.82053874 0 270.60651134 0 32361
0.17350000 0.17350400 8184.69572292 0 -3.28074092 0 2014.74236865 0 94.94706762 0 183.25029745 0 32508
0.17450000 0.17449800 8282.66365291 0 -100.06923580 0 2222.18237413 0 230.30214176 0 21.82753825 0 32791
0.17550000 0.17549800 8238.13076249 0 120.60529809 0 2140.85614833 0 65.19816674 0 60.27840065 0 33633
0.17650000 0.17650100 8139.86387973 0 212.69935977 0 2211.92940135 0 -110.76200132 0 71.34441425 0 33984
0.17750000 0.17750300 7969.63795797 0 162.85507513 0 2101.18400851 0 44.78611449 0 305.57623481 0 34069
0.17850000 0.17849800 7898.15502894 0 118.45505261 0 2155.07301340 0 -22.53129522 0 275.69092289 0 34536
