### header ###
fiducial parameters:
Omega_m = 0.31
Omega_nu = 0
Omega_de = 0.69
Omega_k = 0
H_0 = 100
w_de = -1
zeff = 0
beta = 0
fgrowth = 0
b_1 = 2
gamma = 0.55
Lx = 3500 Ly = 3500 Lz = 3500
nx = 700 ny = 700 nz = 700
xoffset = -685.467585 yoffset = -31.7331281 zoffset = 572.489161
bins = 400 dk = 0.001
kx_ny = 0.628318531 ky_ny = 0.628318531 kz_ny = 0.628318531
############################
A(data) = 8.05875066 (not used)
A(ran) = 8.05623317 (used)
Ngal = 479001
weighted Ngal = 0
Nran = 23820508
weighted Nran = 0
SN(data) = 3489.1171
SN(ran) = 70.1727127
SN(data+ran) = 3559.28981
############################
13 columns: k_central k_mean P_0(k) sigma^{lin}_{P_0(k)} P^img_1(k) sigma^{lin}_{P_1(k)} P_2(k) sigma^{lin}_{P_2(k)} P^img_3(k) sigma^{lin}_{P_3(k)} P_4(k) sigma^{lin}_{P_4(k)} N_modes
### header ###
0.00050000 0 0 0 0 0 0 0 0 0 0 0 0
0.00150000 0.00179520 43459.87142242 0 -13132.77374415 0 66799.55707739 0 -20698.38256948 0 -82036.73687657 0 3
0.00250000 0.00253879 75288.26562285 0 -537.80606832 0 22983.04607256 0 -7195.95926126 0 64204.20413990 0 6
0.00350000 0.00331552 66988.56166204 0 4355.74186041 0 16801.47784956 0 -32177.94749496 0 51508.56577959 0 7
0.00450000 0.00420575 47326.77014208 0 9697.03135292 0 -469.94046781 0 -5300.72049438 0 20649.33217053 0 24
0.00550000 0.00557378 59261.07544786 0 1744.02402683 0 51065.00844736 0 1956.81196520 0 -4745.21088590 0 45
0.00650000 0.00659388 57984.76856602 0 -5182.09160627 0 56145.32324390 0 4990.55145923 0 24894.12933626 0 40
0.00750000 0.00754703 64585.75645315 0 12085.44253955 0 62400.85459669 0 29288.51361028 0 57499.57929246 0 57
0.00850000 0.00846663 61628.11704759 0 -7755.24453250 0 46759.20277188 0 23609.18604105 0 13189.46404722 0 75
0.00950000 0.00948925 80993.28098566 0 -6549.40192580 0 78034.64507087 0 45423.54822901 0 24459.98348012 0 112
0.01050000 0.01054430 74539.77646511 0 -1761.92797607 0 73062.50688781 0 30377.47675620 0 20922.48642381 0 105
0.01150000 0.01145670 76629.45632814 0 12104.92983123 0 51374.36920279 0 18863.25545404 0 35520.57163446 0 144
0.01250000 0.01249090 75229.80374781 0 591.50684369 0 45937.30410059 0 21759.99707309 0 39874.76336939 0 169
0.01350000 0.01339930 75910.08738467 0 -3752.78734008 0 30378.03037244 0 15504.68716680 0 24999.42714528 0 180
0.01450000 0.01448870 76743.94416676 0 2776.09756783 0 30913.93089366 0 9328.86548038 0 976.49157764 0 267
0.01550000 0.01550050 75056.52186440 0 469.97589925 0 23045.16181479 0 4913.59880175 0 17726.23841841 0 238
0.01650000 0.01653350 73008.14177295 0 -2839.04373442 0 20710.56212678 0 -2978.73218434 0 -6628.82371173 0 315
0.01750000 0.01747870 81538.81442948 0 -1866.24034818 0 28548.77158915 0 -13848.82099017 0 -9888.95903133 0 297
0.01850000 0.01844180 79571.04086271 0 1466.78408570 0 28572.79853401 0 -4323.31102101 0 -16512.71161829 0 388
0.01950000 0.01947590 80314.21530453 0 -982.57692736 0 33763.61513224 0 -6853.32616975 0 6392.63995102 0 399
0.02050000 0.02045430 81364.75748333 0 5111.71590973 0 40421.95766193 0 8774.03128372 0 457.37005745 0 462
0.02150000 0.02154770 84744.25246447 0 -921.41561953 0 37499.97114229 0 10170.28466032 0 12367.56537593 0 571
0.02250000 0.02255340 77103.24110713 0 2159.18084591 0 32418.88128301 0 21096.43264671 0 -10159.14590155 0 510
0.02350000 0.02348930 81724.60803993 0 2496.75388498 0 34652.50136868 0 -6702.86434779 0 -8862.32200182 0 555
0.02450000 0.02439640 75409.72902611 0 5934.20141423 0 32484.20799944 0 3738.63690896 0 -4162.61837092 0 592
0.02550000 0.02547300 67643.82184481 0 11314.47656243 0 26915.93584814 0 -8258.16059809 0 -8916.96392480 0 837
0.02650000 0.02652900 62659.94699744 0 249.99316422 0 25035.85509394 0 7480.31870725 0 3064.71985888 0 723
0.02750000 0.02749970 63805.48972318 0 -7443.58073351 0 20223.04766502 0 10377.61394255 0 -13786.04090845 0 826
0.02850000 0.02848090 63694.76647499 0 -2515.77613902 0 12705.16055965 0 15696.01693966 0 -14525.11859009 0 831
0.02950000 0.02946900 67352.73042533 0 169.41653482 0 6023.42220762 0 11023.06404553 0 -17973.37270836 0 996
0.03050000 0.03053250 65463.01674853 0 -720.28683919 0 -25.32473205 0 941.06013822 0 -13071.54378790 0 1041
0.03150000 0.03150510 63835.38500019 0 4564.93129321 0 -728.19137188 0 -3981.32012434 0 -2647.94648038 0 1036
0.03250000 0.03246190 59716.48016765 0 3743.28728539 0 5626.02539755 0 -6658.61933781 0 -8559.25032688 0 1059
0.03350000 0.03345080 57108.39405662 0 4227.66827923 0 5088.04327926 0 -6258.76447164 0 2820.23185456 0 1302
0.03450000 0.03451200 52214.42648678 0 3330.52208847 0 10936.29023592 0 3860.52106057 0 -6174.83624951 0 1339
0.03550000 0.03553350 49945.59640819 0 2920.89035948 0 9422.42662510 0 1892.45961335 0 -1386.55402006 0 1365
0.03650000 0.03647120 48422.26595964 0 2511.65723419 0 12071.93430327 0 425.12301864 0 -2642.01171428 0 1308
0.03750000 0.03744890 46354.28785326 0 1433.86606401 0 10304.94627477 0 714.72521044 0 -346.73206616 0 1579
0.03850000 0.03847530 44632.54134396 0 1610.15961978 0 11485.98687387 0 2337.33455224 0 2621.45040709 0 1662
0.03950000 0.03950240 44222.42243268 0 2132.33045822 0 12171.25305690 0 -158.84467908 0 877.33780166 0 1683
0.04050000 0.04050350 41961.67515121 0 563.25359245 0 12420.04819557 0 413.02982548 0 1875.15356966 0 1822
0.04150000 0.04152450 41229.24086446 0 833.15258223 0 11993.32079706 0 -1256.69779459 0 -335.90997588 0 1887
0.04250000 0.04250150 41894.02324657 0 -64.78981940 0 12430.89907389 0 53.04130770 0 2437.14048816 0 1920
0.04350000 0.04349210 41553.54925839 0 256.04640420 0 14658.65082741 0 -3306.59479454 0 -2993.65767819 0 2005
0.04450000 0.04448520 42255.20248215 0 1374.33017346 0 16366.11403769 0 -3033.25231174 0 -5537.36929273 0 2151
0.04550000 0.04548030 39637.92634152 0 1656.49729914 0 16874.66591661 0 -3945.29077938 0 -4686.54970901 0 2274
0.04650000 0.04648670 38973.80829890 0 2773.88310287 0 14978.86246116 0 -308.56354805 0 -7917.53159737 0 2311
0.04750000 0.04749250 37182.08469674 0 2404.82037201 0 17258.43269482 0 -751.92047120 0 -6414.18669512 0 2568
0.04850000 0.04851840 35868.35335701 0 1205.08968861 0 15238.50847816 0 1969.41227084 0 -7772.99346919 0 2493
0.04950000 0.04949480 34973.37734192 0 -1098.12660193 0 14315.96237427 0 5727.44789289 0 -4697.21235781 0 2644
0.05050000 0.05050630 36597.35522307 0 -1765.98044695 0 13396.95941432 0 2125.46561684 0 -7077.17536061 0 2829
0.05150000 0.05149060 38244.36353985 0 -510.57036373 0 16156.18275913 0 5098.09695020 0 -5224.88614170 0 2784
0.05250000 0.05249300 36328.74062297 0 1078.20084619 0 12183.43261420 0 86.25728565 0 -4278.35738225 0 3055
0.05350000 0.05348950 36968.05665800 0 2601.57558404 0 15529.15700465 0 -1354.94253271 0 -98.32324090 0 3009
0.05450000 0.05448610 34761.56376814 0 1207.78026354 0 15614.85679874 0 -2419.91195074 0 -798.90145264 0 3336
0.05550000 0.05550870 34482.09828972 0 713.72205781 0 16547.81088796 0 1307.68585038 0 502.10335695 0 3349
0.05650000 0.05647670 33739.58818738 0 539.01738066 0 15123.35630004 0 -9.86193149 0 3331.91720140 0 3324
0.05750000 0.05747970 33758.52186282 0 197.37747668 0 15734.99152303 0 3093.23109529 0 18.33676641 0 3639
0.05850000 0.05849280 32928.09750142 0 760.43619622 0 14224.28352477 0 3163.86145530 0 661.46843529 0 3846
0.05950000 0.05951020 31907.00770664 0 201.03798727 0 13859.11825225 0 2356.29037233 0 -200.02154785 0 3787
0.06050000 0.06049470 32238.29166522 0 274.56818916 0 12814.66585211 0 1893.45612259 0 4494.35629481 0 3930
0.06150000 0.06148310 32020.83120578 0 144.84261712 0 14667.17651752 0 778.94912332 0 2568.48040516 0 4083
0.06250000 0.06249100 31823.63310076 0 447.29534909 0 14102.59867501 0 202.54160898 0 6266.19400159 0 4303
0.06350000 0.06350600 32128.67564951 0 73.97187693 0 15367.83323204 0 412.60132651 0 5851.54650946 0 4470
0.06450000 0.06451750 31397.12714875 0 550.82380061 0 14786.97907205 0 218.21337753 0 5189.82008900 0 4479
0.06550000 0.06550280 31822.52586828 0 586.59737487 0 14543.49864929 0 1335.88706169 0 2161.18493670 0 4636
0.06650000 0.06648880 30984.24015626 0 -674.30458146 0 15406.47564566 0 -70.45132053 0 3109.68456997 0 4653
0.06750000 0.06749660 31015.68555874 0 -67.36391347 0 12267.47155957 0 1743.59220617 0 48.77635891 0 5220
0.06850000 0.06852730 31355.60593068 0 778.74871424 0 12290.39127195 0 748.78921774 0 1794.17058594 0 5029
0.06950000 0.06949320 30359.20742025 0 1107.26569884 0 10835.25527195 0 1738.23320095 0 1170.76548167 0 5040
0.07050000 0.07048030 29217.98290119 0 1272.11047074 0 10348.27228178 0 2099.56744909 0 1769.88897761 0 5475
0.07150000 0.07148790 27894.95080861 0 1537.86841104 0 10410.34373471 0 464.49399123 0 3084.46181403 0 5509
0.07250000 0.07249820 26382.91413137 0 1209.38575064 0 10096.60941098 0 1540.59220294 0 4058.82639807 0 5916
0.07350000 0.07351270 25523.70172545 0 458.13515509 0 10167.98161676 0 1416.37179080 0 4755.34206311 0 5721
0.07450000 0.07449140 25610.73019852 0 308.30777734 0 9920.41550614 0 -248.26809601 0 3972.78336190 0 6028
0.07550000 0.07549160 26214.83624063 0 -133.29750403 0 11209.62164640 0 -888.25622116 0 2570.32948340 0 6183
0.07650000 0.07648840 25305.46620327 0 797.15866871 0 11279.04512301 0 -2018.20800632 0 2522.35309996 0 6330
0.07750000 0.07749960 25041.05908660 0 1065.03142305 0 12516.48814474 0 -1866.91576000 0 2338.12068730 0 6583
0.07850000 0.07848650 24548.45135542 0 496.27599239 0 11653.06825538 0 118.17935172 0 2429.00232942 0 6549
0.07950000 0.07947320 24169.55640013 0 -70.19521765 0 12217.64609789 0 2898.02600873 0 1098.99688666 0 6828
0.08050000 0.08048110 24280.94398780 0 -766.88914712 0 10897.73640091 0 2208.08730463 0 936.46733788 0 7147
0.08150000 0.08149960 24824.92730614 0 -206.43906731 0 9655.95302785 0 2527.71210517 0 895.09116727 0 7386
0.08250000 0.08250610 24487.99646191 0 176.40870794 0 8019.80666172 0 1115.54779780 0 402.37160561 0 7227
0.08350000 0.08350160 24727.38012449 0 233.05582895 0 8056.44498454 0 88.74656572 0 849.00815137 0 7798
0.08450000 0.08449610 23867.06048608 0 1077.53761393 0 8255.35929991 0 -1244.85040704 0 641.67111852 0 7371
0.08550000 0.08548940 23250.55344018 0 1332.59858122 0 8036.11619618 0 -706.66345074 0 -421.46693699 0 8256
0.08650000 0.08650700 22344.17293052 0 904.05199975 0 9020.84447625 0 -1474.04753078 0 -1278.27775566 0 8037
0.08750000 0.08749060 22118.96184371 0 434.20786116 0 9460.82544757 0 285.01160592 0 653.49414696 0 8155
0.08850000 0.08849210 21706.40702097 0 -237.78149718 0 9815.91490450 0 696.89876748 0 -57.48850697 0 8718
0.08950000 0.08949900 21747.37462280 0 91.72136723 0 10564.14939877 0 1303.41193300 0 -1.64169360 0 8571
0.09050000 0.09049190 22024.40418976 0 138.98314282 0 9889.93339591 0 1884.63147971 0 1438.90397181 0 8932
0.09150000 0.09150830 21541.98299741 0 112.46713935 0 9435.91271672 0 1265.44493120 0 1665.12264018 0 9285
0.09250000 0.09250820 21409.33654609 0 172.26544399 0 8799.02152083 0 630.43603052 0 2633.14278210 0 9204
0.09350000 0.09350330 20989.36326572 0 777.53850913 0 8672.99631974 0 180.17551284 0 1216.16201343 0 9349
0.09450000 0.09448040 20260.69356940 0 1148.38831322 0 8710.90795992 0 221.10214707 0 2833.69580154 0 9564
0.09550000 0.09549270 19425.61883158 0 613.36250565 0 7862.69037254 0 536.18175827 0 2170.07601353 0 10155
0.09650000 0.09649430 18431.43478611 0 458.51604306 0 7544.17280448 0 803.94046766 0 1129.74251822 0 9913
0.09750000 0.09749140 18762.49729819 0 236.53696787 0 7901.33278616 0 285.86306770 0 531.42840923 0 10476
0.09850000 0.09850240 18222.50001678 0 243.33869700 0 6689.47790708 0 545.32085518 0 1385.77895733 0 10575
0.09950000 0.09950330 17940.26645716 0 236.17379561 0 6589.27336747 0 256.28335195 0 1813.40321415 0 10882
0.10050000 0.10051200 17757.01948141 0 375.27873401 0 6335.13029591 0 680.76971192 0 975.86931298 0 10875
0.10150000 0.10150300 17537.78745000 0 612.87532336 0 6354.15254995 0 662.83476018 0 1109.67946565 0 11118
0.10250000 0.10250800 16775.79005598 0 293.58269257 0 5656.60715870 0 769.19661962 0 684.14344929 0 11575
0.10350000 0.10349800 16773.02197477 0 -81.89390389 0 5466.83858363 0 741.88673045 0 1426.64690823 0 11364
0.10450000 0.10450100 17039.75427966 0 -333.33455313 0 4989.92033672 0 719.79744244 0 1127.02979864 0 12093
0.10550000 0.10551000 16752.53817386 0 117.63680780 0 4810.93620603 0 563.71087947 0 1087.86920022 0 12067
0.10650000 0.10649700 17041.74729812 0 453.09835453 0 5317.51721113 0 -113.56108504 0 1559.22692561 0 12054
0.10750000 0.10749900 16518.57995044 0 413.63437441 0 4433.45850831 0 -378.16307462 0 1122.50121779 0 12807
0.10850000 0.10850100 16154.74335690 0 -98.07488865 0 4688.15519611 0 -213.04924523 0 2057.84692917 0 12736
0.10950000 0.10950300 16519.57645968 0 53.90362036 0 4592.72282850 0 157.65994033 0 740.00554246 0 12933
0.11050000 0.11050200 16120.52987321 0 233.06468681 0 4862.68825223 0 340.03441688 0 1291.01092920 0 13428
0.11150000 0.11150900 15851.91527311 0 636.66199877 0 4925.54584022 0 -219.56198669 0 -19.84924598 0 13453
0.11250000 0.11250000 15286.56236787 0 737.44008480 0 5135.36639554 0 -146.20562030 0 829.10896921 0 13668
0.11350000 0.11349100 14754.09426734 0 598.31300176 0 5564.21968041 0 -405.32680910 0 658.44901232 0 13791
0.11450000 0.11448600 14524.01135761 0 188.74327779 0 5866.18412287 0 -464.84166223 0 1096.43364347 0 14205
0.11550000 0.11549300 14496.21982232 0 -82.19053147 0 6508.37896235 0 -14.91840757 0 924.71295786 0 14776
0.11650000 0.11649800 14696.40745504 0 -193.53095104 0 6402.06249944 0 -147.08144119 0 344.35594525 0 14553
0.11750000 0.11747300 14673.48774266 0 77.06670244 0 6645.78651335 0 251.51560888 0 450.97468263 0 14568
0.11850000 0.11849100 14713.34811201 0 90.26513507 0 5784.04961736 0 267.36010570 0 131.24690947 0 16015
0.11950000 0.11950300 14734.27480592 0 -8.86442574 0 5964.67245213 0 734.62992876 0 584.68075544 0 15270
0.12050000 0.12050700 14484.48315801 0 119.20907793 0 5481.96337934 0 844.20608410 0 -105.71855737 0 15999
0.12150000 0.12150000 14345.85765128 0 340.78844220 0 4936.07562113 0 777.91164648 0 -39.90310852 0 15670
0.12250000 0.12250700 13772.64339542 0 481.26302717 0 4956.89159179 0 180.96275514 0 -200.36368269 0 16887
0.12350000 0.12352200 13480.88763645 0 512.98966671 0 5152.43992041 0 98.48168587 0 725.28599385 0 16407
0.12450000 0.12449800 13238.73589266 0 78.10185408 0 4951.17827218 0 -173.65502076 0 672.50422144 0 16306
0.12550000 0.12549900 13255.45510314 0 66.18725751 0 5191.94597536 0 242.62674652 0 1227.04610873 0 17523
0.12650000 0.12650100 13202.97228350 0 126.24554035 0 5131.72360067 0 164.69861721 0 1309.95567697 0 17154
0.12750000 0.12750600 13159.79021671 0 57.82100888 0 4774.97329502 0 584.22014673 0 1283.72533947 0 18007
0.12850000 0.12850300 13151.92886608 0 69.41871551 0 4627.55636238 0 142.07121421 0 1149.14123130 0 17496
0.12950000 0.12949900 12903.24445066 0 288.25136817 0 4249.54719307 0 250.18582267 0 410.54741025 0 18405
0.13050000 0.13049000 12835.70326926 0 130.24264961 0 4038.74120085 0 196.39314701 0 531.42176583 0 18100
0.13150000 0.13148800 12765.94762291 0 48.19827283 0 3679.72106860 0 392.13856301 0 301.42300577 0 19059
0.13250000 0.13249300 12631.97249260 0 194.65368478 0 3701.04636621 0 322.70290684 0 697.34830387 0 18957
0.13350000 0.13349100 12282.08702833 0 237.17584101 0 3311.96487208 0 340.66111046 0 130.22714835 0 19468
0.13450000 0.13450700 12300.13491779 0 233.84528570 0 3326.51390689 0 469.64926567 0 963.70082801 0 19953
0.13550000 0.13551000 12051.89339535 0 2.60712282 0 2696.66470958 0 595.25704011 0 572.60527800 0 19956
0.13650000 0.13649900 12198.93386894 0 -146.23330111 0 2753.22214475 0 517.17721995 0 796.55965594 0 19723
0.13750000 0.13749600 12062.63355043 0 154.71359469 0 2587.30335735 0 -38.41797759 0 817.59707310 0 20946
0.13850000 0.13851100 11917.80754180 0 317.21989159 0 2736.53615125 0 46.47420113 0 826.79596056 0 20955
0.13950000 0.13949800 11629.92709651 0 246.03812980 0 2606.61349183 0 -143.33788817 0 428.36942428 0 20506
0.14050000 0.14048300 11379.02821612 0 223.83479684 0 2778.74385346 0 -220.34147836 0 186.19996478 0 21447
0.14150000 0.14148400 11301.96483539 0 128.51093801 0 2708.81104991 0 -443.20080338 0 -221.06671563 0 21771
0.14250000 0.14249400 11272.95534436 0 151.98537386 0 3006.82267240 0 -376.22763225 0 -307.72315859 0 22470
0.14350000 0.14350900 11233.31642151 0 222.19277107 0 3032.92014200 0 -359.94688583 0 -173.35163906 0 22519
0.14450000 0.14449900 11034.28031057 0 246.43451902 0 3444.26808134 0 -192.56876601 0 -296.16586595 0 22218
0.14550000 0.14550500 10830.66025715 0 253.91941060 0 3528.31809903 0 219.65720868 0 -96.19104331 0 23559
0.14650000 0.14650700 10822.34494122 0 82.80725996 0 3577.27991938 0 370.45230762 0 682.71511939 0 23044
0.14750000 0.14750500 10728.61771163 0 -49.95445427 0 3476.02350892 0 292.98589426 0 220.38576766 0 23649
0.14850000 0.14849900 10822.71032793 0 90.51481599 0 3471.93782106 0 632.18545785 0 756.61402969 0 23640
0.14950000 0.14949500 10679.06905806 0 -8.60031758 0 3270.13362891 0 342.02522088 0 502.59053924 0 24457
0.15050000 0.15050000 10550.88475364 0 130.30354740 0 3057.27925660 0 245.57198492 0 836.34916241 0 24591
0.15150000 0.15149900 10422.81117246 0 272.57074176 0 2661.55436758 0 205.41819897 0 532.11600060 0 25020
0.15250000 0.15250500 10283.77598971 0 70.41046365 0 2730.49066190 0 148.59392076 0 549.11201920 0 25297
0.15350000 0.15350100 10009.55879325 0 215.02786968 0 2362.46872958 0 52.23125642 0 438.34891064 0 25452
0.15450000 0.15450400 9949.22569532 0 252.16223265 0 2377.93676735 0 -91.60045744 0 269.71297472 0 26061
0.15550000 0.15549900 9807.07918929 0 157.37981051 0 2395.89607821 0 -78.51230516 0 660.63468923 0 26128
0.15650000 0.15649500 9598.89733805 0 207.68581109 0 2687.27537814 0 -27.37776252 0 719.09213535 0 26331
0.15750000 0.15749700 9698.91364814 0 117.46407954 0 2783.37208524 0 83.10034440 0 796.17766073 0 27345
0.15850000 0.15849900 9463.82604759 0 207.82421515 0 3029.75345710 0 -64.33685059 0 838.82161254 0 26980
0.15950000 0.15949700 9232.71341165 0 332.96695195 0 3021.01739282 0 108.84549262 0 1108.53901619 0 27777
0.16050000 0.16050000 9150.82249729 0 41.60525702 0 3088.75787606 0 146.85999470 0 1327.74890295 0 28224
0.16150000 0.16150500 9004.06990415 0 -16.42291506 0 2889.99857324 0 300.94578857 0 874.74134149 0 28075
0.16250000 0.16249700 8995.27847824 0 27.23504025 0 2689.12445638 0 333.79737631 0 805.00783978 0 28590
0.16350000 0.16349900 9115.32462393 0 -23.33481383 0 2483.04634686 0 225.32402452 0 497.83608296 0 29163
0.16450000 0.16449100 8861.08190144 0 184.59890661 0 2521.53374792 0 -47.45210886 0 702.10386738 0 28996
0.16550000 0.16550500 8845.85745481 0 186.05270286 0 2580.75961338 0 -19.23107808 0 711.50427115 0 30777
0.16650000 0.16650700 8786.38799821 0 49.03733360 0 2744.44179117 0 -101.79253243 0 706.60144572 0 29211
0.16750000 0.16749900 8645.35979700 0 157.32777058 0 2720.66950979 0 7.74285460 0 548.70566488 0 30922
0.16850000 0.16850800 8633.78921756 0 107.28152674 0 2594.15712641 0 203.71527541 0 709.48357187 0 30867
0.16950000 0.16949900 8635.70472976 0 -69.22306753 0 2710.16187354 0 -108.28080405 0 734.02427260 0 30852
0.17050000 0.17049200 8594.50460911 0 93.13419587 0 2643.79435857 0 292.22079661 0 907.93617129 0 31257
0.17150000 0.17149500 8580.73063703 0 133.59313510 0 2472.91516965 0 98.70745057 0 498.83923559 0 32608
0.17250000 0.17250900 8408.41204588 0 145.58114118 0 2625.86826469 0 -57.64805917 0 684.03383327 0 32361
0.17350000 0.17350400 8293.04949359 0 271.13798293 0 2399.90425979 0 25.05102418 0 692.21295962 0 32508
0.17450000 0.17449800 7960.43685604 0 284.12471271 0 2502.55578319 0 59.45041220 0 554.75558316 0 32791
0.17550000 0.17549800 7825.54272278 0 163.79622274 0 2513.55060173 0 235.02559553 0 855.13446870 0 33633
0.17650000 0.17650100 7783.49003311 0 -29.23724875 0 2487.41991516 0 182.37890548 0 402.82003476 0 33984
0.17750000 0.17750300 7824.96696188 0 -38.94059132 0 2329.57285254 0 185.24442315 0 785.58698205 0 34069
0.17850000 0.17849800 7856.89954666 0 9.03672219 0 2212.15084784 0 117.41979024 0 500.83779022 0 34536
