### header ###
fiducial parameters:
Omega_m = 0.31
Omega_nu = 0
Omega_de = 0.69
Omega_k = 0
H_0 = 100
w_de = -1
zeff = 0
beta = 0
fgrowth = 0
b_1 = 2
gamma = 0.55
Lx = 3500 Ly = 3500 Lz = 3500
nx = 700 ny = 700 nz = 700
xoffset = -685.467585 yoffset = -31.7331281 zoffset = 572.489161
bins = 400 dk = 0.001
kx_ny = 0.628318531 ky_ny = 0.628318531 kz_ny = 0.628318531
############################
A(data) = 8.07501782 (not used)
A(ran) = 8.06955381 (used)
Ngal = 479802
weighted Ngal = 0
Nran = 23820508
weighted Nran = 0
SN(data) = 3490.65059
SN(ran) = 70.2887403
SN(data+ran) = 3560.93933
############################
13 columns: k_central k_mean P_0(k) sigma^{lin}_{P_0(k)} P^img_1(k) sigma^{lin}_{P_1(k)} P_2(k) sigma^{lin}_{P_2(k)} P^img_3(k) sigma^{lin}_{P_3(k)} P_4(k) sigma^{lin}_{P_4(k)} N_modes
### header ###
0.00050000 0 0 0 0 0 0 0 0 0 0 0 0
0.00150000 0.00179520 7382.60544073 0 -14627.64831791 0 2370.89476877 0 24803.22554950 0 -24614.99602758 0 3
0.00250000 0.00253879 16211.10149023 0 -19550.29320904 0 7415.37952219 0 -9559.20305358 0 25728.09684160 0 6
0.00350000 0.00331552 21567.11717475 0 -13582.42085503 0 7135.36042753 0 -8705.23892962 0 345.97914807 0 7
0.00450000 0.00420575 35743.56825631 0 -13075.64054808 0 17736.64640374 0 -23117.46409586 0 7090.00818507 0 24
0.00550000 0.00557378 48192.18304991 0 -2114.06112227 0 20590.53812575 0 -19199.85412853 0 11587.85226220 0 45
0.00650000 0.00659388 65826.07827933 0 5041.93811872 0 52508.28598747 0 -20608.80746170 0 37453.13520830 0 40
0.00750000 0.00754703 52354.04850274 0 5638.78071574 0 44339.56762926 0 -10412.79071850 0 14415.39185114 0 57
0.00850000 0.00846663 67850.54214918 0 7764.48992373 0 55277.36370136 0 16961.14077344 0 1220.97847473 0 75
0.00950000 0.00948925 52949.29668499 0 2084.23227921 0 44750.90449627 0 15663.46430470 0 -7740.92801651 0 112
0.01050000 0.01054430 64528.18036409 0 3021.78138323 0 47094.80493713 0 24533.06082392 0 -18477.38493411 0 105
0.01150000 0.01145670 59958.29974169 0 -151.99091002 0 30307.16749360 0 6594.10090110 0 -29198.16343976 0 144
0.01250000 0.01249090 65609.94649887 0 -3943.15382069 0 25776.26145456 0 6048.63389123 0 -23249.11403795 0 169
0.01350000 0.01339930 60024.06935112 0 910.93898578 0 18949.61958762 0 -4180.20122273 0 -28397.19146238 0 180
0.01450000 0.01448870 66182.05352225 0 -3844.78728700 0 11545.44525815 0 -106.83575494 0 -43319.03145073 0 267
0.01550000 0.01550050 69754.76057149 0 -4980.24312483 0 22264.23074533 0 -6361.13918691 0 -36532.24995314 0 238
0.01650000 0.01653350 70377.46811929 0 3035.34498113 0 21753.02150846 0 -16815.20753233 0 -39535.72878344 0 315
0.01750000 0.01747870 74787.13220156 0 6404.75307437 0 37210.09767854 0 -12468.43425503 0 -27272.35398406 0 297
0.01850000 0.01844180 62651.31058408 0 2715.54302340 0 25180.34893282 0 -7450.34592397 0 -13037.21958096 0 388
0.01950000 0.01947590 70377.13594954 0 2451.25770230 0 41152.06676047 0 9832.57875335 0 -11907.62100296 0 399
0.02050000 0.02045430 66345.70248307 0 2488.25033952 0 41521.77168616 0 8799.02152083 0 -18091.40369093 0 462
0.02150000 0.02154770 62348.81467004 0 3902.55160558 0 33555.45542564 0 8414.96686217 0 -6888.30364385 0 571
0.02250000 0.02255340 65693.43182801 0 -2572.76539486 0 33306.54956372 0 11921.46140899 0 -11585.08418100 0 510
0.02350000 0.02348930 60396.98525101 0 -1673.84763213 0 18926.47842875 0 10564.69194269 0 -4092.24267437 0 555
0.02450000 0.02439640 68080.18216591 0 -1319.47787631 0 11888.57660428 0 12798.61098112 0 -9155.18499327 0 592
0.02550000 0.02547300 65000.41501761 0 1617.14625674 0 7132.65878027 0 -2021.66257166 0 -8603.90501288 0 837
0.02650000 0.02652900 63815.78698526 0 565.76258126 0 9598.31050484 0 -4842.03836644 0 -6285.23840028 0 723
0.02750000 0.02749970 67373.65711924 0 -7502.39692294 0 17471.68567083 0 1882.85990774 0 -11403.38733072 0 826
0.02850000 0.02848090 70390.31201608 0 -834.25981472 0 17473.45724280 0 -611.29973154 0 -8022.91798499 0 831
0.02950000 0.02946900 69018.22952455 0 6451.95439507 0 17268.72995691 0 -4846.68874287 0 -14266.80125207 0 996
0.03050000 0.03053250 66405.60376034 0 8940.12722832 0 23447.97299170 0 -4158.52161074 0 -6457.40197888 0 1041
0.03150000 0.03150510 57525.04563955 0 4404.82547633 0 22731.15068294 0 -747.37085293 0 10170.41752822 0 1036
0.03250000 0.03246190 55213.80855690 0 1933.31649193 0 22745.43398195 0 9534.06887624 0 897.40306869 0 1059
0.03350000 0.03345080 55686.37538016 0 466.53572793 0 25500.44984333 0 9623.42253753 0 2877.92973919 0 1302
0.03450000 0.03451200 53935.39793334 0 1302.51507469 0 18703.92469990 0 5781.61370590 0 -8120.85269801 0 1339
0.03550000 0.03553350 50861.94201018 0 1482.96075226 0 17267.29055468 0 4361.55483094 0 2454.22508535 0 1365
0.03650000 0.03647120 51121.14513419 0 -659.42559136 0 16018.77520813 0 -648.12739112 0 1558.98333447 0 1308
0.03750000 0.03744890 50998.57449844 0 -1972.50144947 0 14511.38890732 0 5925.87502597 0 7896.28380604 0 1579
0.03850000 0.03847530 53073.52816946 0 -139.44707323 0 13060.69290958 0 5046.35597632 0 2035.60262861 0 1662
0.03950000 0.03950240 50841.67965576 0 3266.44654475 0 13093.35626779 0 3907.48986245 0 2349.48089257 0 1683
0.04050000 0.04050350 47022.94554906 0 4536.97367304 0 14048.34428340 0 -3003.19094986 0 4381.03105029 0 1822
0.04150000 0.04152450 45788.27060853 0 2801.41997469 0 14764.72369917 0 -979.65051191 0 4913.57665710 0 1887
0.04250000 0.04250150 43283.48928806 0 1100.84928661 0 15598.80192776 0 -1159.77066313 0 7148.71365126 0 1920
0.04350000 0.04349210 44744.59327113 0 -334.72745159 0 20906.54227607 0 -5494.54154033 0 5911.55850997 0 2005
0.04450000 0.04448520 45976.27868395 0 446.93328407 0 20816.41355205 0 -76.66422343 0 6187.33690423 0 2151
0.04550000 0.04548030 43691.72590412 0 1304.39736991 0 22075.55833042 0 978.73925958 0 2872.16105796 0 2274
0.04650000 0.04648670 45943.94749548 0 816.47876829 0 23016.81666326 0 -498.91009847 0 -626.05471159 0 2311
0.04750000 0.04749250 41779.86757769 0 2529.52796644 0 24094.37531461 0 748.72389103 0 -1217.78964518 0 2568
0.04850000 0.04851840 40750.03064630 0 3040.15037011 0 25282.54649090 0 -2329.98252856 0 -437.65689034 0 2493
0.04950000 0.04949480 38709.62262872 0 554.74672530 0 22928.90240420 0 1656.76303494 0 379.41092563 0 2644
0.05050000 0.05050630 38212.80741411 0 -584.30540363 0 22857.48590912 0 2651.38997340 0 1614.03493346 0 2829
0.05150000 0.05149060 39555.99113786 0 388.29093014 0 19491.38844100 0 4765.56181892 0 -1986.58544664 0 2784
0.05250000 0.05249300 38089.57243888 0 26.35545477 0 18090.29645845 0 5244.76096475 0 -82.89772085 0 3055
0.05350000 0.05348950 38186.89817404 0 641.92024583 0 18394.23177472 0 1481.33312051 0 626.15768421 0 3009
0.05450000 0.05448610 38155.00987856 0 -819.31992684 0 15542.66524093 0 1851.12662481 0 30.28059391 0 3336
0.05550000 0.05550870 38446.76563753 0 -11.02525637 0 17991.53132107 0 -645.37148947 0 1431.34157396 0 3349
0.05650000 0.05647670 37540.05295813 0 1089.84782467 0 18803.24345352 0 -74.55516700 0 2025.78147649 0 3324
0.05750000 0.05747970 38103.74501465 0 1659.04393385 0 17603.55705942 0 1740.97913751 0 1668.80972434 0 3639
0.05850000 0.05849280 35978.41226571 0 378.80084053 0 15401.05020650 0 1951.61904486 0 1372.09356385 0 3846
0.05950000 0.05951020 35811.77377719 0 1004.41487360 0 15365.06515084 0 1564.69665407 0 2086.91178182 0 3787
0.06050000 0.06049470 34747.50191562 0 629.38415967 0 14162.05705929 0 2202.07503226 0 -437.52512967 0 3930
0.06150000 0.06148310 33468.64839907 0 502.02142174 0 11804.64838215 0 3444.32344296 0 -967.22514900 0 4083
0.06250000 0.06249100 33711.35375909 0 -387.81924910 0 11871.85739380 0 1822.11713378 0 -1685.49571784 0 4303
0.06350000 0.06350600 33077.90605622 0 1348.53165664 0 9265.87502448 0 208.15859936 0 -2205.03134298 0 4470
0.06450000 0.06451750 31824.96177974 0 1805.88510560 0 11632.47373122 0 -962.35554054 0 2501.39318908 0 4479
0.06550000 0.06550280 31475.85137821 0 450.23615857 0 9595.70850851 0 1475.96304298 0 948.70114958 0 4636
0.06650000 0.06648880 30728.91234594 0 -261.42533960 0 9342.40693363 0 1729.31997948 0 1741.21165633 0 4653
0.06750000 0.06749660 31200.26121347 0 -284.93742135 0 8586.84256033 0 3485.63428686 0 1200.46145684 0 5220
0.06850000 0.06852730 30201.09462184 0 -30.23564028 0 6966.45211242 0 542.04455426 0 -76.86009285 0 5029
0.06950000 0.06949320 30526.28880176 0 486.86562353 0 8141.91225982 0 426.71521895 0 1223.62476036 0 5040
0.07050000 0.07048030 29876.12188841 0 937.74065524 0 6645.47648825 0 -792.26137945 0 1843.99604762 0 5475
0.07150000 0.07148790 29348.74705730 0 183.31340970 0 6396.44883076 0 151.51590728 0 4043.49122820 0 5509
0.07250000 0.07249820 28776.52931067 0 517.78176889 0 7656.20258700 0 -207.11115743 0 2074.57721197 0 5916
0.07350000 0.07351270 28812.07147334 0 1863.09580793 0 7889.54076023 0 48.41960860 0 1216.01807321 0 5721
0.07450000 0.07449140 27655.45642278 0 949.24480072 0 9856.17387754 0 -460.24443297 0 3438.68762963 0 6028
0.07550000 0.07549160 26410.48422017 0 793.11727015 0 7861.30633194 0 -519.07058750 0 2951.09566159 0 6183
0.07650000 0.07648840 26429.63934211 0 223.48048244 0 8971.08544851 0 966.79554279 0 3827.58089423 0 6330
0.07750000 0.07749960 26041.00074097 0 -172.78141433 0 8551.53291648 0 510.20719148 0 1158.17624836 0 6583
0.07850000 0.07848650 25599.10425746 0 704.01162894 0 7986.71148284 0 1375.53705687 0 420.55014849 0 6549
0.07950000 0.07947320 24949.60168360 0 925.17135210 0 6393.94648535 0 964.67519259 0 83.25480333 0 6828
0.08050000 0.08048110 23867.50337907 0 456.11224135 0 5527.08310297 0 673.11319931 0 -128.94275868 0 7147
0.08150000 0.08149960 24028.71642843 0 -92.30731466 0 4914.76139585 0 1501.47367936 0 -1216.47203853 0 7386
0.08250000 0.08250610 23694.11077241 0 204.97087704 0 4396.80911316 0 -201.50081044 0 -1554.07829457 0 7227
0.08350000 0.08350160 23742.49683187 0 450.37234816 0 4317.65306303 0 -175.98020897 0 -2484.35288118 0 7798
0.08450000 0.08449610 22978.72786588 0 459.40293628 0 5133.16300290 0 -2413.86646139 0 -2312.03429003 0 7371
0.08550000 0.08548940 23000.87251552 0 1190.23062871 0 6767.86996680 0 -1766.75550969 0 -1527.41613641 0 8256
0.08650000 0.08650700 22290.91504815 0 594.88279553 0 8322.47973296 0 -1147.71290140 0 -66.08085247 0 8037
0.08750000 0.08749060 22131.14140101 0 514.83653049 0 8517.68481951 0 628.24703191 0 1239.75713762 0 8155
0.08850000 0.08849210 21787.56716189 0 261.16956889 0 9855.77527385 0 1433.83284704 0 767.63099289 0 8718
0.08950000 0.08949900 21473.88819978 0 176.86488772 0 8659.94204878 0 1789.54235416 0 1307.04365554 0 8571
0.09050000 0.09049190 21139.50399026 0 790.10891950 0 9664.52300725 0 1224.84271609 0 2409.45967611 0 8932
0.09150000 0.09150830 20807.55569219 0 727.32662331 0 8903.43354387 0 21.96118122 0 2908.78830846 0 9285
0.09250000 0.09250820 19932.39913853 0 967.68354325 0 9713.76163572 0 -234.39115132 0 5168.02975375 0 9204
0.09350000 0.09350330 19279.02125098 0 797.59381108 0 9212.93823953 0 111.56031594 0 4456.54430556 0 9349
0.09450000 0.09448040 18952.71983857 0 7.88439213 0 9672.37328555 0 1364.50902135 0 5345.44161432 0 9564
0.09550000 0.09549270 18876.21007408 0 -154.67484155 0 8903.35603760 0 1184.16299470 0 2516.14152574 0 10155
0.09650000 0.09649430 18879.97466451 0 -229.69537836 0 8989.78660513 0 769.43135290 0 2880.38779530 0 9913
0.09750000 0.09749140 18716.43642694 0 323.29859791 0 8361.98578791 0 -372.43868269 0 1192.43402134 0 10476
0.09850000 0.09850240 18208.54888751 0 826.38296284 0 7469.89964960 0 196.61127180 0 1753.91161290 0 10575
0.09950000 0.09950330 17776.94966608 0 498.25240237 0 6733.61219381 0 628.46515671 0 1568.35052126 0 10882
0.10050000 0.10051200 17223.88704139 0 112.75723426 0 6353.74287393 0 689.71393591 0 59.94368427 0 10875
0.10150000 0.10150300 17467.14601766 0 -14.32415589 0 5469.45165229 0 1138.95469247 0 -522.20073372 0 11118
0.10250000 0.10250800 16774.68282350 0 182.40547906 0 4967.91962731 0 54.39423507 0 -704.26407795 0 11575
0.10350000 0.10349800 16658.86630589 0 511.99869364 0 5138.06804279 0 277.26651471 0 -206.82549145 0 11364
0.10450000 0.10450100 16628.63885914 0 8.49500870 0 5006.67276417 0 186.85101748 0 -132.33089007 0 12093
0.10550000 0.10551000 16506.51111639 0 -239.72911911 0 4854.01862190 0 767.67638942 0 68.88646886 0 12067
0.10650000 0.10649700 16603.28323530 0 225.71266313 0 4763.77917462 0 509.74990447 0 -2.46720185 0 12054
0.10750000 0.10749900 16559.21538253 0 360.19601314 0 5165.44990207 0 616.07190354 0 1126.47618240 0 12807
0.10850000 0.10850100 16080.22661087 0 348.36966300 0 5103.09056869 0 131.65658549 0 956.77841053 0 12736
0.10950000 0.10950300 15808.51175982 0 398.19291022 0 4672.56536277 0 366.34668958 0 1768.60458793 0 12933
0.11050000 0.11050200 15587.17598670 0 339.35125444 0 4974.65160080 0 295.89127229 0 1689.88035847 0 13428
0.11150000 0.11150900 15212.93140783 0 57.48507455 0 4253.84325510 0 427.19907955 0 1361.95131432 0 13453
0.11250000 0.11250000 15371.26565273 0 37.62674926 0 4902.59291088 0 113.99954910 0 2094.93921731 0 13668
0.11350000 0.11349100 15123.90991629 0 106.76422772 0 4700.72228478 0 -8.80048307 0 1334.00476648 0 13791
0.11450000 0.11448600 15187.90795374 0 65.78267477 0 5342.82854566 0 -266.87956680 0 1010.86782450 0 14205
0.11550000 0.11549300 15040.75675690 0 335.92658437 0 5099.84637752 0 -946.26302365 0 1180.23231939 0 14776
0.11650000 0.11649800 15125.68148826 0 380.85143509 0 6061.66601754 0 -889.52068065 0 821.47681571 0 14553
0.11750000 0.11747300 14780.66784691 0 215.91697736 0 5660.50461704 0 -271.20884581 0 1278.34418961 0 14568
0.11850000 0.11849100 14655.32912996 0 151.70635127 0 6682.53555942 0 146.57986488 0 597.27884662 0 16015
0.11950000 0.11950300 14629.53061313 0 106.69192544 0 5706.10045064 0 837.13086854 0 1010.57440790 0 15270
0.12050000 0.12050700 14424.24971100 0 66.81815858 0 6021.22988730 0 841.59190821 0 90.61911729 0 15999
0.12150000 0.12150000 14313.19429306 0 127.80784538 0 5171.52860840 0 146.38277750 0 457.96131959 0 15670
0.12250000 0.12250700 14127.40068261 0 191.40174298 0 5135.85357783 0 482.97702305 0 885.87345686 0 16887
0.12350000 0.12352200 13959.87640810 0 130.64789670 0 4420.82498569 0 334.32552620 0 723.92520513 0 16407
0.12450000 0.12449800 13943.26792087 0 70.01329936 0 4565.56241572 0 525.06625139 0 795.44024390 0 16306
0.12550000 0.12549900 13677.75357172 0 76.19630698 0 4242.28374799 0 347.13399155 0 529.66237342 0 17523
0.12650000 0.12650100 13501.92505360 0 264.82343608 0 3622.22248582 0 657.90757563 0 586.77896100 0 17154
0.12750000 0.12750600 13608.33009511 0 208.37340246 0 4030.79127163 0 -244.02296668 0 314.69983046 0 18007
0.12850000 0.12850300 13072.65102038 0 325.17978590 0 3676.32186489 0 -70.62681687 0 894.18655833 0 17496
0.12950000 0.12949900 13266.19525821 0 174.66592401 0 3995.58127871 0 -79.53162339 0 863.50071733 0 18405
0.13050000 0.13049000 12933.58262066 0 87.80885053 0 3599.02596533 0 272.17656699 0 1107.86360438 0 18100
0.13150000 0.13148800 12915.64545445 0 98.57137170 0 3938.78025239 0 347.42297923 0 471.58913698 0 19059
0.13250000 0.13249300 12802.37557156 0 281.34998811 0 3514.59948858 0 87.10143970 0 304.29738129 0 18957
0.13350000 0.13349100 12551.36596792 0 464.72208113 0 3998.22756434 0 -174.94716106 0 -189.41647514 0 19468
0.13450000 0.13450700 12219.97128610 0 387.85800223 0 3950.87123109 0 -547.98707099 0 -20.07312839 0 19953
0.13550000 0.13551000 12050.01110013 0 220.63046603 0 4046.42539427 0 -678.04813448 0 -186.05713179 0 19956
0.13650000 0.13649900 11876.50777022 0 192.70052668 0 4224.92234267 0 -16.81797561 0 -234.10327087 0 19723
0.13750000 0.13749600 11707.10120050 0 55.57675936 0 4403.81789477 0 539.81901698 0 -33.54150430 0 20946
0.13850000 0.13851100 11616.52958348 0 -167.41687296 0 3825.75396064 0 1115.35956828 0 -403.01822938 0 20955
0.13950000 0.13949800 11897.76663388 0 -136.10987453 0 3595.08421769 0 941.70344029 0 -293.78531611 0 20506
0.14050000 0.14048300 11640.77797484 0 144.59902597 0 3518.71839342 0 475.02487937 0 -553.43354757 0 21447
0.14150000 0.14148400 11442.14046759 0 435.88310390 0 3461.93951175 0 51.22179257 0 590.29885306 0 21771
0.14250000 0.14249400 11266.42267272 0 205.07606413 0 3344.44000077 0 -36.51929533 0 913.99051850 0 22470
0.14350000 0.14350900 11072.54626514 0 -8.79468117 0 3375.78575233 0 -14.33744268 0 851.18497043 0 22519
0.14450000 0.14449900 11353.56186904 0 -4.46305483 0 3757.20519769 0 217.82695339 0 775.20778476 0 22218
0.14550000 0.14550500 11184.81963880 0 127.50557091 0 3499.93973052 0 -14.47739687 0 664.55429222 0 23559
0.14650000 0.14650700 11000.91939589 0 333.10424877 0 3472.04854431 0 12.33778082 0 788.70051978 0 23044
0.14750000 0.14750500 10692.84303014 0 458.99658196 0 3449.56065260 0 87.97892144 0 775.56209915 0 23649
0.14850000 0.14849900 10456.50425688 0 279.47765798 0 3283.55328659 0 174.01487131 0 729.67395618 0 23640
0.14950000 0.14949500 10145.06190438 0 37.23833211 0 3051.78738349 0 89.10652700 0 283.35297167 0 24457
0.15050000 0.15050000 10104.69220810 0 84.73616967 0 3218.30407644 0 347.41412137 0 501.77561613 0 24591
0.15150000 0.15149900 10176.90591056 0 69.84367134 0 2836.62996761 0 43.67567103 0 508.28282143 0 25020
0.15250000 0.15250500 9960.40874338 0 158.02089811 0 2884.11916876 0 131.26683965 0 773.72520047 0 25297
0.15350000 0.15350100 10023.93067087 0 13.58341736 0 2866.84634204 0 359.22829195 0 1050.16571975 0 25452
0.15450000 0.15450400 10085.13848247 0 -195.91150088 0 2746.10263990 0 317.48230569 0 511.23913215 0 26061
0.15550000 0.15549900 10047.62544598 0 199.87317870 0 2782.66345645 0 156.05777492 0 1059.19298617 0 26128
0.15650000 0.15649500 10036.89636323 0 264.34954058 0 2982.71822127 0 -401.40166995 0 930.51817776 0 26331
0.15750000 0.15749700 9743.47975554 0 243.72069221 0 2990.38027005 0 -394.98082879 0 1208.03492701 0 27345
0.15850000 0.15849900 9642.79910596 0 235.85823436 0 3293.64017450 0 -333.15075254 0 611.35841486 0 26980
0.15950000 0.15949700 9332.45291362 0 290.68506516 0 3711.48756851 0 -405.05996607 0 515.69131396 0 27777
0.16050000 0.16050000 9275.57438103 0 272.79661718 0 3508.96367525 0 8.39416196 0 424.29148705 0 28224
0.16150000 0.16150500 8994.58092178 0 125.88236810 0 3494.62501461 0 190.05866998 0 441.80236875 0 28075
0.16250000 0.16249700 9025.17375525 0 -17.54443084 0 3302.39838343 0 448.85101073 0 252.11462166 0 28590
0.16350000 0.16349900 8994.43698156 0 -25.28210360 0 3150.38643600 0 273.95921129 0 -309.39507964 0 29163
0.16450000 0.16449100 8804.12586257 0 262.31223281 0 2997.69907675 0 259.68144844 0 -72.10475079 0 28996
0.16550000 0.16550500 8785.03717458 0 142.35577296 0 2899.60935118 0 70.63434606 0 -234.99791472 0 30777
0.16650000 0.16650700 8541.34637765 0 118.99095313 0 2675.77123265 0 21.87758516 0 179.81012612 0 29211
0.16750000 0.16749900 8459.73227141 0 196.76628435 0 2788.09996793 0 94.89580275 0 -237.54344219 0 30922
0.16850000 0.16850800 8320.67494402 0 133.97845200 0 2921.66542222 0 34.94182122 0 185.58434352 0 30867
0.16950000 0.16949900 8159.56154558 0 160.78565762 0 2706.18690893 0 31.48659153 0 92.19448767 0 30852
0.17050000 0.17049200 8119.86726110 0 60.50626910 0 2684.54051390 0 166.72595989 0 398.22059103 0 31257
0.17150000 0.17149500 8186.15726979 0 -59.92065384 0 2771.15931096 0 166.79682277 0 111.81276495 0 32608
0.17250000 0.17250900 8146.38547905 0 12.55867370 0 2465.81780944 0 271.94183371 0 154.08357941 0 32361
0.17350000 0.17350400 8136.78577343 0 98.81717731 0 2278.03118051 0 240.18972783 0 -92.81387352 0 32508
0.17450000 0.17449800 7979.17122963 0 86.10216238 0 2106.75338789 0 240.26501963 0 305.18427451 0 32791
0.17550000 0.17549800 8029.49494593 0 33.67293279 0 1848.74607497 0 415.18117819 0 65.38838928 0 33633
0.17650000 0.17650100 7852.91350973 0 4.44926979 0 1679.45022849 0 509.57939066 0 270.41385288 0 33984
0.17750000 0.17750300 7912.19473681 0 60.18893627 0 1790.27312760 0 85.11783270 0 133.67174861 0 34069
0.17850000 0.17849800 7821.00306960 0 162.85507513 0 1667.55855164 0 -141.65821650 0 128.71466878 0 34536
