### header ###
fiducial parameters:
Omega_m = 0.31
Omega_nu = 0
Omega_de = 0.69
Omega_k = 0
H_0 = 100
w_de = -1
zeff = 0
beta = 0
fgrowth = 0
b_1 = 2
gamma = 0.55
Lx = 3500 Ly = 3500 Lz = 3500
nx = 700 ny = 700 nz = 700
xoffset = -685.467585 yoffset = -31.7331281 zoffset = 572.489161
bins = 400 dk = 0.001
kx_ny = 0.628318531 ky_ny = 0.628318531 kz_ny = 0.628318531
############################
A(data) = 8.07403234 (not used)
A(ran) = 8.08355849 (used)
Ngal = 480311
weighted Ngal = 0
Nran = 23820508
weighted Nran = 0
SN(data) = 3476.47767
SN(ran) = 70.4107261
SN(data+ran) = 3546.8884
############################
13 columns: k_central k_mean P_0(k) sigma^{lin}_{P_0(k)} P^img_1(k) sigma^{lin}_{P_1(k)} P_2(k) sigma^{lin}_{P_2(k)} P^img_3(k) sigma^{lin}_{P_3(k)} P_4(k) sigma^{lin}_{P_4(k)} N_modes
### header ###
0.00050000 0 0 0 0 0 0 0 0 0 0 0 0
0.00150000 0.00179520 2014.97488747 0 676.83128598 0 6107.27292347 0 -21831.08139843 0 -16793.28432919 0 3
0.00250000 0.00253879 6555.31454726 0 -6243.94970103 0 -10758.92266465 0 5686.05954272 0 -9512.87644654 0 6
0.00350000 0.00331552 11997.86045024 0 -15161.99871366 0 -9535.05431315 0 -7177.59027439 0 -5592.52054265 0 7
0.00450000 0.00420575 24893.68644327 0 -21408.78292985 0 -13115.16874769 0 -2331.23370127 0 11272.73389786 0 24
0.00550000 0.00557378 40562.46546388 0 -15073.64156161 0 -12398.56788542 0 -6577.45919689 0 14525.34003659 0 45
0.00650000 0.00659388 58573.92696962 0 -16713.12069751 0 -26150.50603343 0 -12849.32222879 0 5226.79058157 0 40
0.00750000 0.00754703 77562.96403360 0 -21989.30492009 0 -7911.86256706 0 -17962.96472303 0 -19760.11376435 0 57
0.00850000 0.00846663 88396.01591291 0 -12957.94173526 0 -2686.69961724 0 -17326.97038545 0 1420.45747866 0 75
0.00950000 0.00948925 88831.26900153 0 6876.77735372 0 1420.03673032 0 -16213.53740169 0 -838.28903372 0 112
0.01050000 0.01054430 101773.37731230 0 5368.30596507 0 19550.07176254 0 -25381.86524452 0 -21604.87380238 0 105
0.01150000 0.01145670 88681.12827699 0 4693.70243085 0 8472.33257706 0 -25427.04032978 0 -6712.23153459 0 144
0.01250000 0.01249090 91961.19378127 0 15098.11139946 0 28903.86104608 0 -7525.33877997 0 -15525.83530720 0 169
0.01350000 0.01339930 68026.92428354 0 11533.48714734 0 23430.03582549 0 -14672.93412642 0 -73.65055806 0 180
0.01450000 0.01448870 73493.77393950 0 7380.84494108 0 41506.38115467 0 18558.87724477 0 -15929.53227009 0 267
0.01550000 0.01550050 72006.64999310 0 -3401.07494222 0 30296.87023152 0 8049.35869666 0 -10049.60739212 0 238
0.01650000 0.01653350 76081.48697286 0 -7193.77801327 0 28544.34265922 0 27287.85523880 0 -12455.92252798 0 315
0.01750000 0.01747870 73238.11395943 0 -0.46865940 0 28825.57970962 0 -4733.93925924 0 -6526.53757505 0 297
0.01850000 0.01844180 80865.28491076 0 4092.18731275 0 37154.73605444 0 -1712.94401107 0 -16131.04858179 0 388
0.01950000 0.01947590 71189.95531448 0 5262.93064977 0 35185.96597844 0 -16676.02840936 0 -3519.20557571 0 399
0.02050000 0.02045430 68996.63849115 0 8950.65700922 0 41621.31188628 0 -10894.30398021 0 -3149.41207142 0 462
0.02150000 0.02154770 69556.34451074 0 -1666.18558336 0 44629.21964652 0 4167.21338572 0 -20764.26290215 0 571
0.02250000 0.02255340 67760.08125541 0 -343.50559071 0 36886.45362409 0 11933.41951979 0 -6439.80805475 0 510
0.02350000 0.02348930 61982.87433478 0 7396.62300395 0 35120.19636902 0 7097.36020875 0 -23992.95281927 0 555
0.02450000 0.02439640 58519.22968501 0 7579.95855830 0 27932.59671299 0 9814.75231039 0 -10366.30909891 0 592
0.02550000 0.02547300 52907.44329718 0 4060.56475307 0 30761.79715065 0 8816.27220290 0 -6975.44284017 0 837
0.02650000 0.02652900 51432.94180108 0 -2827.56173359 0 22701.58757567 0 10291.51554476 0 6947.11983329 0 723
0.02750000 0.02749970 53531.92241695 0 -3817.44971702 0 26334.86024166 0 10870.69778370 0 -4246.71267792 0 826
0.02850000 0.02848090 58936.76705392 0 -5118.86863156 0 13245.37928755 0 2546.82293781 0 6327.23572832 0 831
0.02950000 0.02946900 61837.82687966 0 -1130.14112191 0 22153.17532740 0 4295.06552040 0 -1133.56247028 0 996
0.03050000 0.03053250 61154.55371510 0 4138.61357071 0 17809.83447079 0 -2271.16633913 0 3807.72821583 0 1041
0.03150000 0.03150510 55688.47912188 0 4975.36022958 0 23020.35980720 0 -3089.20076905 0 2367.99381966 0 1036
0.03250000 0.03246190 53144.50177155 0 4772.12770754 0 17943.25598486 0 878.91782241 0 2528.91898858 0 1059
0.03350000 0.03345080 50203.69229971 0 349.43924958 0 24266.77141203 0 3664.43018803 0 -1088.02089107 0 1302
0.03450000 0.03451200 50509.39918796 0 -1093.09976647 0 21144.04364343 0 3153.81885669 0 -9203.33853391 0 1339
0.03550000 0.03553350 50285.18461038 0 1.38532499 0 19448.31709746 0 -466.47372291 0 -6592.07466565 0 1365
0.03650000 0.03647120 51065.00844736 0 2625.96791561 0 22482.57699076 0 -1786.94035783 0 -4511.26373481 0 1308
0.03750000 0.03744890 49522.96576986 0 624.78582317 0 20761.16265120 0 -339.97462632 0 -164.50485153 0 1579
0.03850000 0.03847530 50199.15264654 0 1558.62902007 0 22113.97929754 0 3881.44775448 0 -4516.83311419 0 1662
0.03950000 0.03950240 47942.50212525 0 1381.72648644 0 23346.66121960 0 3024.15086074 0 -2730.22492611 0 1683
0.04050000 0.04050350 48459.91186402 0 1458.77879486 0 25902.81812724 0 -519.29535569 0 -1781.75850982 0 1822
0.04150000 0.04152450 44311.44392422 0 3679.04565679 0 23621.58704485 0 1821.82925334 0 4551.53378018 0 1887
0.04250000 0.04250150 44629.21964652 0 1362.69316008 0 25088.78080657 0 1212.48600159 0 7244.65534581 0 1920
0.04350000 0.04349210 42810.14740206 0 549.42425876 0 23989.40967533 0 4256.54490236 0 8561.26549000 0 2005
0.04450000 0.04448520 43398.42001968 0 8.77623468 0 23229.51602302 0 3080.86330846 0 3903.44846389 0 2151
0.04550000 0.04548030 40894.08159220 0 2457.84573557 0 21864.63054263 0 2810.14496665 0 4009.69849285 0 2274
0.04650000 0.04648670 39864.35538406 0 1460.96004285 0 19759.56014811 0 3012.41419643 0 6805.96983650 0 2311
0.04750000 0.04749250 38755.90494647 0 274.69219919 0 16414.83226689 0 3824.32563074 0 4933.57327572 0 2568
0.04850000 0.04851840 37777.66504874 0 -466.86346875 0 15219.79624921 0 3677.55089294 0 1983.13088129 0 2493
0.04950000 0.04949480 37865.13641481 0 171.06298952 0 13909.05443718 0 556.67663151 0 -164.26236761 0 2644
0.05050000 0.05050630 38153.34902984 0 83.49274759 0 15195.99075085 0 -390.01156941 0 2308.52436306 0 2829
0.05150000 0.05149060 37517.57613875 0 274.85053344 0 14393.35792475 0 42.09055701 0 824.59035345 0 2784
0.05250000 0.05249300 38015.05569285 0 -47.12348226 0 15652.28125663 0 -1294.32155433 0 1047.48289545 0 3055
0.05350000 0.05348950 38909.25664521 0 729.68281404 0 17303.71850333 0 -608.30356044 0 1832.56940841 0 3009
0.05450000 0.05448610 37841.22019320 0 1722.28905322 0 19095.88499848 0 369.37607765 0 1464.27066797 0 3336
0.05550000 0.05550870 37427.33669148 0 383.47446884 0 20151.74189318 0 66.93940054 0 1453.72981474 0 3349
0.05650000 0.05647670 36580.85745909 0 884.61231906 0 19141.17080699 0 608.50286229 0 1127.71628278 0 3324
0.05750000 0.05747970 36304.27078512 0 897.67212618 0 18965.45301211 0 1194.53776306 0 85.07465064 0 3639
0.05850000 0.05849280 36016.83323283 0 636.47709095 0 19115.70445990 0 -510.16843834 0 2352.82473466 0 3846
0.05950000 0.05951020 34938.16734900 0 584.80587271 0 18257.26711671 0 3929.84488626 0 3456.19297517 0 3787
0.06050000 0.06049470 34552.73972206 0 -121.36043064 0 16051.54928959 0 4072.52286387 0 3610.80691893 0 3930
0.06150000 0.06148310 34553.07189181 0 -98.86921724 0 14713.01594227 0 6604.43138015 0 4820.15945260 0 4083
0.06250000 0.06249100 34348.34460591 0 123.06667589 0 12513.60934029 0 3957.53677063 0 3320.01445222 0 4303
0.06350000 0.06350600 32988.10950194 0 1071.81211477 0 9650.35043149 0 2636.09909282 0 721.89343353 0 4470
0.06450000 0.06451750 32518.53220638 0 759.62570204 0 8397.41722733 0 -963.25239885 0 4145.78843720 0 4479
0.06550000 0.06550280 31089.64868853 0 592.76244533 0 7074.48478568 0 -218.05393605 0 3023.35365336 0 4636
0.06650000 0.06648880 30917.47403760 0 588.36451791 0 7033.47289455 0 -2168.84698548 0 371.75330579 0 4653
0.06750000 0.06749660 30310.93208404 0 1116.11248637 0 7768.46488834 0 -1235.21748444 0 -2285.22819165 0 5220
0.06850000 0.06852730 29668.40507481 0 1066.96022203 0 9624.68478256 0 -2561.10623683 0 -3230.32862119 0 5029
0.06950000 0.06949320 28037.67307552 0 1800.04999042 0 10728.42948210 0 -990.89667223 0 -1549.47220745 0 5040
0.07050000 0.07048030 27679.26192114 0 1335.16736058 0 11486.09759712 0 538.92215867 0 -2765.02524301 0 5475
0.07150000 0.07148790 27035.07406319 0 -482.57399043 0 11318.68404586 0 1279.26319257 0 1036.84571299 0 5509
0.07250000 0.07249820 28396.97001589 0 -833.29873692 0 11942.83099589 0 3382.55094280 0 1237.98556565 0 5916
0.07350000 0.07351270 28429.41192760 0 -626.02924525 0 8202.61074447 0 4258.57113780 0 2370.40758648 0 5721
0.07450000 0.07449140 28660.04845358 0 393.44841904 0 8790.24116725 0 1960.39939844 0 2485.18330555 0 6028
0.07550000 0.07549160 27708.60358191 0 943.56026916 0 6046.22012442 0 964.05514240 0 2726.24996150 0 6183
0.07650000 0.07648840 26853.70938266 0 546.29411253 0 7859.60119392 0 -171.77715447 0 3698.44436987 0 6330
0.07750000 0.07749960 25986.30345637 0 470.12980457 0 6836.89483972 0 -338.74891997 0 2151.08697647 0 6583
0.07850000 0.07848650 26113.85663828 0 301.25581367 0 8403.18590856 0 -164.87134548 0 1954.36498141 0 6549
0.07950000 0.07947320 25736.95470145 0 252.55197849 0 8602.05593463 0 -1159.02881737 0 2621.50576871 0 6828
0.08050000 0.08048110 25750.68438423 0 786.55138154 0 8938.70997074 0 -404.95699345 0 3263.76704214 0 7147
0.08150000 0.08149960 25216.77688147 0 1002.55472303 0 9565.59178500 0 -603.27893944 0 2068.13311893 0 7386
0.08250000 0.08250610 24062.70846563 0 289.11390227 0 8928.25769611 0 -609.28235396 0 3000.27892843 0 7227
0.08350000 0.08350160 24309.95347883 0 400.85248264 0 9552.28285057 0 1024.05607059 0 1828.64980542 0 7798
0.08450000 0.08449610 23768.18462545 0 91.96828007 0 9220.52278203 0 1464.52533144 0 1498.84953838 0 7371
0.08550000 0.08548940 23486.83685181 0 432.49497251 0 8757.63317066 0 1089.92975987 0 1587.17347345 0 8256
0.08650000 0.08650700 23031.54285527 0 1068.42176891 0 7675.85596355 0 289.43610692 0 309.51023182 0 8037
0.08750000 0.08749060 22021.08249232 0 764.01034267 0 7619.77463835 0 -671.77676970 0 785.31128116 0 8155
0.08850000 0.08849210 21742.72424638 0 1044.68713343 0 9126.26408085 0 -1078.85632782 0 647.80407923 0 8718
0.08950000 0.08949900 21048.93237324 0 514.20872967 0 9359.63547105 0 -371.38127567 0 1762.94662995 0 8571
0.09050000 0.09049190 20859.81706534 0 88.01025612 0 9802.52846379 0 839.30547314 0 2327.09265178 0 8932
0.09150000 0.09150830 20537.50168987 0 -266.89174636 0 8564.78648929 0 2206.53717916 0 2713.11818426 0 9285
0.09250000 0.09250820 20667.04789024 0 95.08801831 0 7887.37058456 0 3275.18260903 0 2283.99916359 0 9204
0.09350000 0.09350330 20427.99639741 0 318.25626119 0 7322.22805349 0 1443.16681686 0 2875.17273031 0 9349
0.09450000 0.09448040 19836.18063585 0 481.01389986 0 5896.35620800 0 1942.00826692 0 3850.61132986 0 9564
0.09550000 0.09549270 19411.00336282 0 171.08513417 0 5256.68585858 0 787.98192590 0 3790.67683561 0 10155
0.09650000 0.09649430 19407.46021888 0 227.89280388 0 5493.06892113 0 -198.41938245 0 3193.83423859 0 9913
0.09750000 0.09749140 18944.52631821 0 571.72281371 0 5775.45749330 0 -859.52132379 0 2173.63022980 0 10476
0.09850000 0.09850240 18536.40042539 0 862.31930027 0 6146.79005075 0 -1459.64243619 0 2460.21521308 0 10575
0.09950000 0.09950330 17961.41459756 0 557.95769949 0 7010.68605007 0 -1671.71067344 0 1934.34621814 0 10882
0.10050000 0.10051200 17719.48430027 0 231.48466605 0 6152.81339545 0 -433.72953673 0 1032.76223960 0 10875
0.10150000 0.10150300 17259.20775756 0 554.75558316 0 7050.76786592 0 585.94078601 0 -3.47007767 0 11118
0.10250000 0.10250800 17012.62708385 0 398.27373819 0 5641.93632832 0 542.92037516 0 345.22401552 0 11575
0.10350000 0.10349800 16428.89411941 0 452.08302235 0 5805.24204707 0 1855.40054219 0 448.85654689 0 11364
0.10450000 0.10450100 15887.67888228 0 211.91101024 0 4591.69310229 0 979.26740947 0 736.48232871 0 12093
0.10550000 0.10551000 15707.53215748 0 110.25976067 0 4616.60583313 0 1104.67477483 0 583.78168267 0 12067
0.10650000 0.10649700 15739.53117620 0 14.98495224 0 4459.00236167 0 270.14036646 0 424.96357717 0 12054
0.10750000 0.10749900 15699.56008361 0 238.74589667 0 4424.83316728 0 -245.81889776 0 1873.32663607 0 12807
0.10850000 0.10850100 15637.99795762 0 -11.08306497 0 4838.05232951 0 205.47245336 0 1557.00138832 0 12736
0.10950000 0.10950300 15775.62695511 0 -32.01507360 0 5000.97051689 0 -313.69557060 0 1770.07720713 0 12933
0.11050000 0.11050200 15811.27984103 0 325.71125749 0 4909.19201647 0 282.39189387 0 1255.61270676 0 13428
0.11150000 0.11150900 14944.42753098 0 694.89689115 0 4851.22839604 0 103.12154358 0 1626.93419188 0 13453
0.11250000 0.11250000 14720.76656964 0 350.36711040 0 4613.14019547 0 727.66543645 0 1412.93937011 0 13668
0.11350000 0.11349100 14565.31112918 0 -40.37633968 0 4488.85334938 0 634.32684547 0 1022.27564076 0 13791
0.11450000 0.11448600 14498.87718027 0 7.84765416 0 4473.72855367 0 49.10808576 0 710.90636561 0 14205
0.11550000 0.11549300 14552.24578590 0 314.16282271 0 4229.86059954 0 -371.93267745 0 877.48838527 0 14776
0.11650000 0.11649800 14206.34635856 0 283.32861255 0 4462.66730118 0 -1086.00240626 0 1164.26602701 0 14553
0.11750000 0.11747300 14247.09251390 0 234.88829870 0 5014.19087272 0 -171.54574288 0 625.40476613 0 14568
0.11850000 0.11849100 14022.87793632 0 131.78280999 0 4738.32389987 0 205.98399476 0 -51.85645823 0 16015
0.11950000 0.11950300 14006.93378858 0 46.80404569 0 4756.24999375 0 278.52543805 0 -775.82229879 0 15270
0.12050000 0.12050700 13822.35813385 0 27.69919211 0 4381.30785841 0 117.09426389 0 -557.54580901 0 15999
0.12150000 0.12150000 13838.19155834 0 104.23442295 0 4489.98272651 0 388.04844622 0 -199.31402629 0 15670
0.12250000 0.12250700 13668.89571187 0 177.30335179 0 4180.85448990 0 523.34229041 0 -338.28831125 0 16887
0.12350000 0.12352200 13573.00937894 0 212.91859180 0 4179.51473859 0 532.45702820 0 50.49179419 0 16407
0.12450000 0.12449800 13417.55393848 0 116.48085709 0 4206.11046281 0 -246.92059408 0 252.46339989 0 16306
0.12550000 0.12549900 13427.62975407 0 263.44936057 0 4787.31893719 0 -35.00825517 0 573.22532819 0 17523
0.12650000 0.12650100 13358.09555421 0 289.18587238 0 5020.33601300 0 -715.93320108 0 290.39939918 0 17154
0.12750000 0.12750600 12987.72628902 0 282.09847726 0 5341.65487923 0 -119.63093350 0 1096.45689535 0 18007
0.12850000 0.12850300 13008.43153643 0 84.86217272 0 5422.99217735 0 -13.80054565 0 765.02456762 0 17496
0.12950000 0.12949900 12822.74864923 0 -171.84358842 0 5126.87392240 0 666.99352538 0 630.59325754 0 18405
0.13050000 0.13049000 13078.29790604 0 -208.63028040 0 4721.73755729 0 948.18185754 0 36.84792193 0 18100
0.13150000 0.13148800 12926.49633278 0 150.77738322 0 4061.97093832 0 675.74066198 0 -160.98053054 0 19059
0.13250000 0.13249300 12820.09129127 0 177.59233946 0 3612.64492485 0 684.10137446 0 423.56514254 0 18957
0.13350000 0.13349100 12630.42236713 0 32.73743207 0 3060.06948245 0 416.23526351 0 361.21134533 0 19468
0.13450000 0.13450700 12696.41342305 0 82.40788120 0 3105.32207399 0 -79.46064978 0 185.76703688 0 19953
0.13550000 0.13551000 12521.91358390 0 266.88178127 0 3312.07559533 0 -80.33447766 0 170.57359276 0 19956
0.13650000 0.13649900 12343.42770783 0 352.59264769 0 3135.41665284 0 -264.98730649 0 46.30900204 0 19723
0.13750000 0.13749600 11865.98906165 0 230.95208723 0 3270.57652191 0 19.90715424 0 741.37408181 0 20946
0.13850000 0.13851100 11769.54911248 0 388.56995272 0 3222.98766984 0 675.47935512 0 -39.64755926 0 20955
0.13950000 0.13949800 11328.53841495 0 255.92350139 0 2461.00134814 0 590.19145151 0 208.34129272 0 20506
0.14050000 0.14048300 11188.91639899 0 56.49620522 0 2278.80624325 0 572.26314316 0 -14.92870483 0 21447
0.14150000 0.14148400 11102.88443515 0 173.31842208 0 2199.10764921 0 228.96792662 0 129.37236488 0 21771
0.14250000 0.14249400 10895.62158687 0 145.17700132 0 1878.58599036 0 -100.33308930 0 -306.64139246 0 22470
0.14350000 0.14350900 10818.71321868 0 322.22126071 0 2217.88631210 0 -555.59265091 0 285.15000998 0 22519
0.14450000 0.14449900 10656.12720104 0 305.04808492 0 2705.33433991 0 -669.51469374 0 426.44616146 0 22218
0.14550000 0.14550500 10566.50780396 0 240.11886495 0 2962.22334803 0 -130.94906393 0 785.46407924 0 23559
0.14650000 0.14650700 10435.16788696 0 42.74537430 0 3086.53233877 0 216.96995545 0 731.34034106 0 23044
0.14750000 0.14750500 10409.20328526 0 101.88022525 0 3306.37334804 0 414.51351700 0 512.18470869 0 23649
0.14850000 0.14849900 10324.38927715 0 15.60788123 0 3247.20284421 0 506.73823212 0 584.77487020 0 23640
0.14950000 0.14949500 10242.03332515 0 117.63459334 0 2897.21772902 0 -25.84391336 0 486.49359342 0 24457
0.15050000 0.15050000 10141.67377299 0 146.90317676 0 2971.15871416 0 -146.34402436 0 557.95659226 0 24591
0.15150000 0.15149900 9986.82731040 0 79.20288606 0 2849.51815370 0 -145.16039284 0 655.84037259 0 25020
0.15250000 0.15250500 10008.13046335 0 220.84305467 0 2888.10520570 0 107.26082149 0 553.47672964 0 25297
0.15350000 0.15350100 9880.35583494 0 -57.60764518 0 2724.14621978 0 249.86251079 0 843.67904144 0 25452
0.15450000 0.15450400 9907.91485142 0 19.08924160 0 2903.18571210 0 476.69790765 0 367.15386206 0 26061
0.15550000 0.15549900 9810.61126091 0 198.00306303 0 2779.93966454 0 365.29592595 0 492.82917768 0 26128
0.15650000 0.15649500 9539.61611098 0 253.48426824 0 2774.54744236 0 -190.70086482 0 389.09035199 0 26331
0.15750000 0.15749700 9470.94555245 0 232.88310068 0 2881.71647428 0 -99.20769821 0 779.83048037 0 27345
0.15850000 0.15849900 9290.43344093 0 24.66869680 0 2991.24391138 0 -176.62351104 0 772.92245692 0 26980
0.15950000 0.15949700 9363.15647034 0 108.41023953 0 3071.85043606 0 -22.71631377 0 765.42760025 0 27777
0.16050000 0.16050000 9335.24313947 0 37.60659763 0 3020.81809097 0 -69.72043636 0 461.41588493 0 28224
0.16150000 0.16150500 9135.84164181 0 209.24257996 0 3167.02814020 0 77.00048993 0 885.69519243 0 28075
0.16250000 0.16249700 9059.29866034 0 227.72118285 0 3043.13989781 0 145.23900634 0 824.38440821 0 28590
0.16350000 0.16349900 8894.71962424 0 152.76154383 0 3006.30227313 0 622.29344285 0 994.24826495 0 29163
0.16450000 0.16449100 8688.47542984 0 9.08919394 0 2549.76817621 0 397.61272040 0 928.16087981 0 28996
0.16550000 0.16550500 8663.17516763 0 121.65163278 0 2619.75634139 0 211.86561371 0 795.45463792 0 30777
0.16650000 0.16650700 8649.51191880 0 183.76958948 0 2513.99349472 0 169.36781659 0 1042.76387061 0 29211
0.16750000 0.16749900 8291.83153786 0 134.57635754 0 2191.43452811 0 135.44885674 0 1166.55799824 0 30922
0.16850000 0.16850800 8344.07076636 0 106.12535458 0 2042.74427812 0 114.11802298 0 895.83190580 0 30867
0.16950000 0.16949900 8211.63468920 0 -20.88838366 0 2113.95039903 0 81.43595253 0 474.45354741 0 30852
0.17050000 0.17049200 8288.05587510 0 173.40921515 0 1801.22365685 0 -112.65979780 0 243.61218343 0 31257
0.17150000 0.17149500 8074.28249983 0 116.89717651 0 1954.07710097 0 -95.47687836 0 321.02655686 0 32608
0.17250000 0.17250900 8063.50912778 0 -57.79011710 0 1725.95399273 0 182.25821714 0 586.31060166 0 32361
0.17350000 0.17350400 8174.50918408 0 -119.94095860 0 1804.65607754 0 303.69283236 0 86.77082008 0 32508
0.17450000 0.17449800 8254.86104529 0 -26.52043241 0 1630.34446792 0 341.54468198 0 -255.85706744 0 32791
0.17550000 0.17549800 8151.21301267 0 154.55526045 0 1652.73270870 0 -311.90406844 0 71.11145253 0 33633
0.17650000 0.17650100 8180.33322694 0 241.69667123 0 1963.96468703 0 -461.34612929 0 67.06440709 0 33984
0.17750000 0.17750300 7963.16064795 0 143.66452175 0 2091.22998850 0 -477.48182825 0 27.19529060 0 34069
0.17850000 0.17849800 7975.88274916 0 67.52534797 0 2242.17899275 0 -231.79136945 0 -151.92447607 0 34536
