### header ###
fiducial parameters:
Omega_m = 0.31
Omega_nu = 0
Omega_de = 0.69
Omega_k = 0
H_0 = 100
w_de = -1
zeff = 0
beta = 0
fgrowth = 0
b_1 = 2
gamma = 0.55
Lx = 3500 Ly = 3500 Lz = 3500
nx = 700 ny = 700 nz = 700
xoffset = -685.467585 yoffset = -31.7331281 zoffset = 572.489161
bins = 400 dk = 0.001
kx_ny = 0.628318531 ky_ny = 0.628318531 kz_ny = 0.628318531
############################
A(data) = 8.02242323 (not used)
A(ran) = 8.02060946 (used)
Ngal = 476882
weighted Ngal = 0
Nran = 23820508
weighted Nran = 0
SN(data) = 3491.83562
SN(ran) = 69.8624172
SN(data+ran) = 3561.69804
############################
13 columns: k_central k_mean P_0(k) sigma^{lin}_{P_0(k)} P^img_1(k) sigma^{lin}_{P_1(k)} P_2(k) sigma^{lin}_{P_2(k)} P^img_3(k) sigma^{lin}_{P_3(k)} P_4(k) sigma^{lin}_{P_4(k)} N_modes
### header ###
0.00050000 0 0 0 0 0 0 0 0 0 0 0 0
0.00150000 0.00179520 14636.17400802 0 1078.73342501 0 8714.25180202 0 31219.52705866 0 16291.15439867 0 3
0.00250000 0.00253879 21660.23542648 0 7703.13817191 0 36655.48492837 0 -19819.23997888 0 3138.49475914 0 6
0.00350000 0.00331552 33247.31262594 0 -4540.74933580 0 45975.94651421 0 26795.13678437 0 9321.19235928 0 7
0.00450000 0.00420575 47367.18412767 0 -17508.88868222 0 80893.18716930 0 38095.21932454 0 28173.64122429 0 24
0.00550000 0.00557378 76188.22418411 0 -1651.62547622 0 79333.53949535 0 69840.90325858 0 19695.45138741 0 45
0.00650000 0.00659388 107664.62917856 0 -1253.09928903 0 70149.59967452 0 63969.13868400 0 18054.86501903 0 40
0.00750000 0.00754703 98752.84710178 0 -3197.55453973 0 32503.69529112 0 92309.86128981 0 12358.70751608 0 57
0.00850000 0.00846663 123571.57390602 0 -27599.76262894 0 49989.66426097 0 22498.18896875 0 15321.21874455 0 75
0.00950000 0.00948925 109123.29725017 0 3977.95413760 0 26211.18237344 0 39380.27334299 0 -4479.24257143 0 112
0.01050000 0.01054430 118211.46146131 0 11937.40555673 0 8442.66981887 0 -3484.30560788 0 -5358.24122181 0 105
0.01150000 0.01145670 95766.64109819 0 13588.06774069 0 24579.56458816 0 -13349.68058735 0 11662.47973148 0 144
0.01250000 0.01249090 92508.05590406 0 14083.11138333 0 15047.51087504 0 -12975.43600848 0 3812.63325573 0 169
0.01350000 0.01339930 82313.54499704 0 10314.42418481 0 30226.33952242 0 -3229.12173779 0 13665.68473767 0 180
0.01450000 0.01448870 84023.44411878 0 -938.33745355 0 23176.70103364 0 9893.10008081 0 -17973.92632460 0 267
0.01550000 0.01550050 80601.32068708 0 -3542.36887923 0 31033.40127845 0 2309.22191953 0 1166.64657684 0 238
0.01650000 0.01653350 89349.12163330 0 541.24181071 0 30853.91889314 0 8173.55696415 0 -29676.15570218 0 315
0.01750000 0.01747870 88008.37382101 0 2488.00674837 0 36842.60721780 0 -8495.47373593 0 -7906.69179137 0 297
0.01850000 0.01844180 80767.51628261 0 4518.84827731 0 26954.79970826 0 -11135.10490037 0 -20258.25765794 0 388
0.01950000 0.01947590 80928.61860872 0 4138.11531610 0 34156.57194005 0 9101.63923045 0 -16721.20349462 0 399
0.02050000 0.02045430 75526.43132970 0 4184.48621244 0 23834.50785111 0 4946.98186107 0 -13725.25384519 0 462
0.02150000 0.02154770 72319.55389248 0 5518.75671471 0 17712.84090538 0 16253.95138728 0 -2069.90469090 0 571
0.02250000 0.02255340 67863.71821571 0 -2460.95705884 0 13087.82010538 0 10663.51244169 0 -1484.62160098 0 510
0.02350000 0.02348930 65415.84864480 0 4163.37128901 0 8034.13425003 0 18660.96407960 0 -3264.03277794 0 555
0.02450000 0.02439640 66992.76914547 0 4213.37390789 0 1235.92611323 0 4599.31086177 0 1871.15646040 0 592
0.02550000 0.02547300 60224.92132333 0 2376.16519538 0 6217.27647054 0 -2629.85430163 0 -2699.13383802 0 837
0.02650000 0.02652900 58789.61585708 0 3818.24692441 0 11147.39518092 0 -13379.13297136 0 3491.51369134 0 723
0.02750000 0.02749970 57532.68554367 0 4167.87772521 0 13101.54978816 0 -10427.97087583 0 -4607.43794818 0 826
0.02850000 0.02848090 53097.00149807 0 1588.63502033 0 16035.82658835 0 -2546.39111714 0 6715.67502760 0 831
0.02950000 0.02946900 53771.41680278 0 -2402.67234100 0 14632.74158733 0 7236.90471844 0 -750.87192204 0 996
0.03050000 0.03053250 56422.24208761 0 -2481.15297931 0 11742.75408642 0 8117.64172382 0 -4183.29040136 0 1041
0.03150000 0.03150510 56298.34277289 0 -1784.70374822 0 8423.70292645 0 12751.88577039 0 -5836.43278608 0 1036
0.03250000 0.03246190 54361.79316211 0 993.04802494 0 3599.12561625 0 -9.01380248 0 -3130.62233620 0 1059
0.03350000 0.03345080 55119.47234945 0 1881.90768780 0 2763.35332196 0 -4104.33365308 0 732.30584779 0 1302
0.03450000 0.03451200 55549.18927566 0 50.02232762 0 5599.69540913 0 -5595.44363640 0 -4500.93325575 0 1339
0.03550000 0.03553350 53051.93713606 0 982.90577541 0 11294.32493126 0 -5850.33962605 0 1991.90016255 0 1365
0.03650000 0.03647120 53900.85227991 0 3293.48516196 0 13084.27696144 0 780.90892481 0 -3260.41212772 0 1308
0.03750000 0.03744890 51075.30570944 0 1817.73249315 0 13353.44517778 0 -3787.55444001 0 -1212.70744809 0 1579
0.03850000 0.03847530 46687.78627680 0 4820.31446515 0 11187.69844326 0 898.64981247 0 -7982.30469756 0 1662
0.03950000 0.03950240 45601.59121209 0 2807.99693563 0 15319.66861908 0 -1003.19913233 0 -2683.00146076 0 1683
0.04050000 0.04050350 42755.89301045 0 1265.45600352 0 9646.15402038 0 1383.08838240 0 -2488.26141184 0 1822
0.04150000 0.04152450 43777.86859121 0 -2388.90944125 0 12371.77285936 0 596.45395842 0 -2065.66399049 0 1887
0.04250000 0.04250150 44803.05514617 0 -1066.00135870 0 10075.49448755 0 1580.79581436 0 -3664.58520058 0 1920
0.04350000 0.04349210 44996.71010725 0 1321.40446083 0 14575.82983776 0 -966.50766235 0 -7960.81331508 0 2005
0.04450000 0.04448520 45199.00148169 0 505.67418170 0 12789.75312127 0 -876.18960157 0 -2599.90366299 0 2151
0.04550000 0.04548030 45194.12965877 0 1178.85935112 0 16366.11403769 0 -2347.77575455 0 -3797.03235006 0 2274
0.04650000 0.04648670 43307.07333992 0 1679.94848311 0 17654.93264658 0 -800.11387221 0 -2482.39307969 0 2311
0.04750000 0.04749250 43772.88604504 0 1183.22184710 0 18065.93734385 0 1534.97853426 0 -337.08807124 0 2568
0.04850000 0.04851840 42845.35739499 0 82.43655853 0 19820.34721136 0 2898.38032313 0 -749.96399141 0 2493
0.04950000 0.04949480 40175.37698822 0 1183.36578732 0 14306.10800518 0 3976.93548371 0 -575.48961861 0 2644
0.05050000 0.05050630 41313.39053308 0 2859.42788442 0 14601.51763134 0 3431.57919709 0 -2461.52174741 0 2829
0.05150000 0.05149060 37251.06528036 0 444.64131283 0 10943.84156145 0 3848.72903464 0 989.43401812 0 2784
0.05250000 0.05249300 37650.33331332 0 1106.74087064 0 12625.21837446 0 2684.83946667 0 3008.87105249 0 3055
0.05350000 0.05348950 36432.70975302 0 271.18891562 0 11058.37368937 0 1541.25654243 0 6256.11818601 0 3009
0.05450000 0.05448610 36977.35741085 0 -48.88232106 0 12725.09074433 0 1512.50171488 0 5665.60895878 0 3336
0.05550000 0.05550870 37648.56174135 0 -337.46785199 0 12982.07940337 0 1787.83721614 0 9214.01225503 0 3349
0.05650000 0.05647670 37658.63755694 0 574.39456569 0 12458.13699295 0 1194.62634166 0 5386.67495195 0 3324
0.05750000 0.05747970 36830.31693726 0 1541.28975941 0 13799.43842148 0 -508.67256726 0 8469.78594235 0 3639
0.05850000 0.05849280 36348.78153089 0 1582.50095238 0 12866.70577876 0 -779.00559217 0 7341.42746473 0 3846
0.05950000 0.05951020 34332.95407441 0 589.74966575 0 14350.39730445 0 842.63713567 0 4871.14750839 0 3787
0.06050000 0.06049470 33652.55971430 0 240.01257063 0 11996.19960151 0 1231.06536264 0 4870.70461540 0 3930
0.06150000 0.06148310 33351.94609548 0 -492.58558653 0 11475.35744205 0 2747.55311445 0 -1116.01283545 0 4083
0.06250000 0.06249100 32781.38919757 0 748.22785087 0 9834.61606112 0 1284.42289594 0 -698.59615488 0 4303
0.06350000 0.06350600 32645.75321854 0 836.49753156 0 10145.68195457 0 -1864.03695554 0 -3099.58660973 0 4470
0.06450000 0.06451750 31439.31270631 0 626.02149462 0 8432.52756933 0 -1151.22282837 0 -593.26623611 0 4479
0.06550000 0.06550280 31704.71633221 0 356.08928787 0 9477.42286247 0 -357.04482950 0 -2144.21106275 0 4636
0.06650000 0.06648880 30832.77075274 0 1086.94244663 0 10100.86118371 0 94.32413862 0 -1770.11042411 0 4653
0.06750000 0.06749660 30200.54100560 0 1421.11074582 0 9451.35860985 0 2090.51028738 0 -1555.20767170 0 5220
0.06850000 0.06852730 28787.60163549 0 744.93051254 0 10441.26873793 0 -464.80955249 0 -817.16303796 0 5029
0.06950000 0.06949320 28020.95386504 0 750.11346779 0 9122.03445277 0 1508.80355839 0 -1582.01377009 0 5040
0.07050000 0.07048030 28370.39643632 0 208.61256468 0 10377.65823185 0 809.53642063 0 -721.46825625 0 5475
0.07150000 0.07148790 27914.54882354 0 141.64050078 0 9014.59968505 0 -455.35710879 0 -910.73304054 0 5509
0.07250000 0.07249820 27684.79808355 0 473.56554696 0 9516.10956539 0 188.31256435 0 -1628.35144945 0 5916
0.07350000 0.07351270 27512.40198612 0 427.81027188 0 9851.32419927 0 -1341.26821156 0 -610.11942171 0 5721
0.07450000 0.07449140 27452.83287860 0 725.07561968 0 9939.29381995 0 1389.01207617 0 -959.70261152 0 6028
0.07550000 0.07549160 26591.29528446 0 212.01951902 0 9811.26452808 0 151.54801703 0 -270.63087045 0 6183
0.07650000 0.07648840 26775.98166244 0 292.86963485 0 10516.58269135 0 1611.25577993 0 1033.71888846 0 6330
0.07750000 0.07749960 26551.76708486 0 -32.34469671 0 10033.43072556 0 412.01227883 0 2749.88937498 0 6583
0.07850000 0.07848650 27274.34700252 0 -189.19392141 0 9940.01352107 0 1497.35477452 0 2144.44358158 0 6549
0.07950000 0.07947320 27146.79382061 0 -637.73158535 0 9521.64572779 0 1285.99516606 0 1374.35231811 0 6828
0.08050000 0.08048110 27003.18576771 0 1190.05347151 0 10493.67405130 0 -406.65880978 0 999.53308559 0 7147
0.08150000 0.08149960 25439.55205683 0 1888.76145686 0 9704.21729173 0 -583.09519853 0 2244.19415587 0 7386
0.08250000 0.08250610 24483.23536224 0 1139.26471756 0 10408.04069115 0 446.10728864 0 3771.78744947 0 7227
0.08350000 0.08350160 23514.62838710 0 89.92654337 0 9154.66459401 0 2381.94494894 0 1642.41330197 0 7798
0.08450000 0.08449610 23285.54198661 0 118.06641401 0 8883.08261085 0 1792.44330327 0 1567.37615668 0 7371
0.08550000 0.08548940 23402.35501344 0 40.41387486 0 7810.67259054 0 991.27091681 0 968.34566827 0 8256
0.08650000 0.08650700 22897.34627846 0 583.69088960 0 7448.53006270 0 839.56456554 0 2162.49147103 0 8037
0.08750000 0.08749060 22611.68029814 0 550.68982548 0 6989.80364546 0 -578.51014882 0 3639.15207047 0 8155
0.08850000 0.08849210 22558.97603201 0 112.65315440 0 8015.14521297 0 422.59299242 0 3808.81330367 0 8718
0.08950000 0.08949900 21876.69937668 0 287.07327281 0 8118.36142493 0 878.81152809 0 3793.46706147 0 8571
0.09050000 0.09049190 21513.85929237 0 969.94894090 0 7768.66419018 0 496.28152856 0 3424.27146271 0 8932
0.09150000 0.09150830 20786.07538204 0 1036.64751838 0 7430.05035258 0 52.72264620 0 2690.04345934 0 9285
0.09250000 0.09250820 19649.39051616 0 668.73852377 0 6938.01838229 0 550.59571072 0 2812.04940652 0 9204
0.09350000 0.09350330 19184.68504352 0 349.78581335 0 6753.28771501 0 -660.45531757 0 2111.92416358 0 9349
0.09450000 0.09448040 18720.53318713 0 112.22908436 0 5456.54132155 0 223.16824288 0 1242.74666532 0 9564
0.09550000 0.09549270 19106.62515355 0 -26.02284213 0 6045.63329120 0 405.17954718 0 103.21986583 0 10155
0.09650000 0.09649430 18781.43097363 0 -11.64897150 0 6150.99753418 0 93.32552565 0 749.57092388 0 9913
0.09750000 0.09749140 19019.15378749 0 366.74529327 0 5879.18303220 0 136.50515653 0 114.68049708 0 10476
0.09850000 0.09850240 18471.62732520 0 665.96379917 0 6416.15756893 0 -616.50040251 0 1578.79172357 0 10575
0.09950000 0.09950330 18187.06857736 0 327.01225566 0 7588.90499675 0 178.38290346 0 1388.19272414 0 10882
0.10050000 0.10051200 17706.52968023 0 578.70280727 0 7969.48294542 0 428.51447174 0 2173.90703792 0 10875
0.10150000 0.10150300 17520.84679303 0 477.47297039 0 8374.78539540 0 156.46191478 0 2054.75775055 0 11118
0.10250000 0.10250800 17281.46313045 0 56.45346604 0 7651.41934268 0 208.81186652 0 1638.98088128 0 11575
0.10350000 0.10349800 17013.06997684 0 242.66217796 0 7519.81368988 0 623.34420648 0 1960.41047077 0 11364
0.10450000 0.10450100 16864.14720803 0 246.72461393 0 6592.71686049 0 503.13861932 0 911.13053700 0 12093
0.10550000 0.10551000 16383.94048065 0 218.53226048 0 6076.18183538 0 740.28124335 0 552.48907827 0 12067
0.10650000 0.10649700 16148.09996201 0 501.72025451 0 6014.98509611 0 441.69053827 0 -214.01918088 0 12054
0.10750000 0.10749900 15956.88091239 0 221.23390774 0 5763.18935740 0 98.25702840 0 473.18465898 0 12807
0.10850000 0.10850100 15821.13421012 0 303.79248328 0 5795.93022189 0 19.23727859 0 603.00766748 0 12736
0.10950000 0.10950300 15809.06537606 0 91.07507563 0 5916.16459710 0 570.63661864 0 1273.11805230 0 12933
0.11050000 0.11050200 15539.01137374 0 -120.44474938 0 6168.34786717 0 265.42798502 0 1763.71062036 0 13428
0.11150000 0.11150900 15738.97755996 0 141.80658565 0 5759.04830792 0 696.84783479 0 1437.51993120 0 13453
0.11250000 0.11250000 15516.20238461 0 385.59149734 0 6092.18134474 0 281.78845217 0 2071.60982892 0 13668
0.11350000 0.11349100 15130.33186468 0 355.89552218 0 5818.78350032 0 -120.28752236 0 1897.54181045 0 13791
0.11450000 0.11448600 14659.53661339 0 621.02787613 0 5884.03271048 0 -171.25675520 0 1777.47352011 0 14205
0.11550000 0.11549300 14427.46068519 0 310.27090053 0 5740.55752548 0 223.69307108 0 1097.87415293 0 14776
0.11650000 0.11649800 14010.91982552 0 44.47631084 0 5053.48655350 0 293.56054792 0 1501.98300630 0 14553
0.11750000 0.11747300 14124.85404790 0 109.05464884 0 5459.49763228 0 120.67726820 0 649.68969615 0 14568
0.11850000 0.11849100 13957.88338963 0 216.78283316 0 5662.80766060 0 228.53499872 0 88.05509903 0 16015
0.11950000 0.11950300 13723.37154997 0 392.49066294 0 5545.07563080 0 -527.89190868 0 769.27523312 0 15270
0.12050000 0.12050700 13562.49067036 0 271.20663134 0 5874.22263069 0 -4.46161543 0 738.24061389 0 15999
0.12150000 0.12150000 13158.68298422 0 56.38049942 0 5875.35200782 0 406.30117369 0 1428.41848020 0 15670
0.12250000 0.12250700 13564.48368883 0 -233.33374430 0 5291.67440500 0 950.77942494 0 1121.90331225 0 16887
0.12350000 0.12352200 13565.14802832 0 -203.43514559 0 4973.89868271 0 1180.60877844 0 828.85430574 0 16407
0.12450000 0.12449800 13874.17661400 0 42.28454414 0 4364.74366048 0 299.02584745 0 402.72592000 0 16306
0.12550000 0.12549900 13395.40928885 0 412.73087271 0 4086.29683595 0 199.02282415 0 832.05752931 0 17523
0.12650000 0.12650100 13210.05857138 0 295.50706262 0 3631.63396192 0 -328.13609663 0 779.86923351 0 17154
0.12750000 0.12750600 13109.63258528 0 -195.27594943 0 3788.42915367 0 90.25860239 0 561.27939694 0 18007
0.12850000 0.12850300 13154.25405430 0 56.42910693 0 3728.23999596 0 97.88378033 0 83.97981916 0 17496
0.12950000 0.12949900 13225.89199587 0 33.56818860 0 4168.89637909 0 -15.91823850 0 -95.71825504 0 18405
0.13050000 0.13049000 13123.14082156 0 221.90821232 0 3587.36680729 0 24.68076564 0 -249.48605174 0 18100
0.13150000 0.13148800 12766.94413214 0 252.18437730 0 4079.50950083 0 -403.36036421 0 -197.19256886 0 19059
0.13250000 0.13249300 12828.94915112 0 338.24734365 0 4227.56862831 0 12.33456985 0 -63.10106842 0 18957
0.13350000 0.13349100 12400.22873415 0 378.29040636 0 4305.46243341 0 -3.04450179 0 -100.87364020 0 19468
0.13450000 0.13450700 12181.43959573 0 421.60976998 0 4204.03993807 0 335.45158164 0 280.75318980 0 19953
0.13550000 0.13551000 11800.99451496 0 158.95208063 0 4144.76978331 0 307.16954235 0 559.01732098 0 19956
0.13650000 0.13649900 11797.34064777 0 95.42616711 0 3522.36118828 0 725.45872212 0 130.93577714 0 19723
0.13750000 0.13749600 11495.28762672 0 7.88682804 0 3454.82000689 0 712.89495515 0 667.12528604 0 20946
0.13850000 0.13851100 11579.88018833 0 112.93106976 0 2929.53784517 0 371.09007353 0 316.70392125 0 20955
0.13950000 0.13949800 11502.04174486 0 -175.06009878 0 2815.11644049 0 428.39599786 0 322.80145053 0 20506
0.14050000 0.14048300 11421.87811317 0 185.08387444 0 2569.53227601 0 154.74681167 0 -156.07881234 0 21447
0.14150000 0.14148400 11517.98589260 0 130.61689419 0 2435.50178408 0 -266.36913263 0 -34.46427185 0 21771
0.14250000 0.14249400 11249.48201574 0 86.74956121 0 2376.48629280 0 -71.11543857 0 178.32200567 0 22470
0.14350000 0.14350900 11118.60713639 0 471.13517166 0 2572.67681626 0 -276.50695323 0 129.76875411 0 22519
0.14450000 0.14449900 10716.59316687 0 361.53244275 0 2915.79709007 0 -128.15330192 0 -194.09453237 0 22218
0.14550000 0.14550500 10352.25831872 0 429.58073662 0 2979.24151128 0 423.18204010 0 192.36724970 0 23559
0.14650000 0.14650700 10227.62823056 0 67.30888402 0 2896.14371351 0 84.26271706 0 334.95221979 0 23044
0.14750000 0.14750500 10055.44250730 0 59.30259667 0 2986.26136521 0 166.19891723 0 172.38613233 0 23649
0.14850000 0.14849900 10122.95047172 0 160.60517873 0 2996.45897637 0 -82.09885262 0 503.00242972 0 23640
0.14950000 0.14949500 9906.79654661 0 79.01642811 0 2729.54951429 0 79.49419893 0 505.75722414 0 24457
0.15050000 0.15050000 9980.83718267 0 -137.21157085 0 2643.53969510 0 215.29803440 0 710.42471948 0 24591
0.15150000 0.15149900 10218.53785188 0 -77.46608119 0 2609.87982765 0 511.36092773 0 165.68073242 0 25020
0.15250000 0.15250500 10159.07946760 0 162.88497041 0 2449.22039453 0 -17.29032099 0 353.80506726 0 25297
0.15350000 0.15350100 9953.70998687 0 160.37376714 0 2564.28399405 0 23.93770192 0 591.56663425 0 25452
0.15450000 0.15450400 9981.16935242 0 -26.83610439 0 2523.07280107 0 -58.50472494 0 388.79472091 0 26061
0.15550000 0.15549900 9951.07477356 0 119.60325269 0 2962.76589195 0 -97.27015209 0 439.77059715 0 26128
0.15650000 0.15649500 9995.82911048 0 262.64108086 0 3097.41643407 0 -237.93208080 0 266.14879336 0 26331
0.15750000 0.15749700 9652.68669202 0 295.62553650 0 3206.03594054 0 -124.10415273 0 668.89132185 0 27345
0.15850000 0.15849900 9465.45367934 0 321.91012838 0 3338.63810257 0 -221.86503025 0 650.14809040 0 26980
0.15950000 0.15949700 9259.25377424 0 269.54246092 0 3353.85147687 0 321.82819318 0 779.91573727 0 27777
0.16050000 0.16050000 9032.50363428 0 154.35042244 0 3327.03430616 0 41.31095462 0 602.56366726 0 28224
0.16150000 0.16150500 8907.56352103 0 17.77528882 0 3338.58274094 0 421.63523633 0 951.02855225 0 28075
0.16250000 0.16249700 8927.83694777 0 1.87167686 0 3073.17911504 0 368.85346392 0 742.44699009 0 28590
0.16350000 0.16349900 8931.55724891 0 -17.68803890 0 2852.70698325 0 232.42470643 0 926.88091906 0 29163
0.16450000 0.16449100 8966.75616951 0 -13.76456060 0 2798.61867651 0 142.85070588 0 886.08161656 0 28996
0.16550000 0.16550500 9020.33514931 0 15.28722671 0 2719.98302565 0 86.08854342 0 957.25119880 0 30777
0.16650000 0.16650700 8882.81687506 0 178.22346198 0 2687.59647555 0 -17.13530844 0 1223.60261571 0 29211
0.16750000 0.16749900 8817.16906121 0 205.22443328 0 2737.45515421 0 43.22148427 0 1052.39679320 0 30922
0.16850000 0.16850800 8667.68160383 0 180.67708916 0 2822.36881325 0 27.46224435 0 1233.15803203 0 30867
0.16950000 0.16949900 8547.11505888 0 148.85412040 0 2851.65511239 0 130.61135803 0 1292.16245099 0 30852
0.17050000 0.17049200 8341.50198700 0 86.81300563 0 2615.13918194 0 247.82963195 0 999.49654691 0 31257
0.17150000 0.17149500 8309.68012547 0 99.03020884 0 2670.09113002 0 145.62985941 0 757.01927678 0 32608
0.17250000 0.17250900 8183.92066018 0 82.23338137 0 2368.08239826 0 59.98741996 0 527.58409805 0 32361
0.17350000 0.17350400 8013.78331702 0 138.91227994 0 2377.07312602 0 279.20417156 0 687.76520674 0 32508
0.17450000 0.17449800 8025.79678945 0 10.63274245 0 2068.09990195 0 213.45449232 0 309.37293499 0 32791
0.17550000 0.17549800 7914.97389034 0 104.41678414 0 2038.17140797 0 126.85341098 0 253.43444277 0 33633
0.17650000 0.17650100 7818.07997585 0 238.27753733 0 1827.04431832 0 -80.25863223 0 83.76025496 0 33984
0.17750000 0.17750300 7720.11204585 0 101.06109466 0 2080.79985852 0 -196.41418442 0 239.47777734 0 34069
0.17850000 0.17849800 7670.31980114 0 161.76223667 0 2045.91096302 0 -315.52361143 0 188.06011535 0 34536
