### header ###
fiducial parameters:
Omega_m = 0.31
Omega_nu = 0
Omega_de = 0.69
Omega_k = 0
H_0 = 100
w_de = -1
zeff = 0
beta = 0
fgrowth = 0
b_1 = 2
gamma = 0.55
Lx = 3500 Ly = 3500 Lz = 3500
nx = 700 ny = 700 nz = 700
xoffset = -685.467585 yoffset = -31.7331281 zoffset = 572.489161
bins = 400 dk = 0.001
kx_ny = 0.628318531 ky_ny = 0.628318531 kz_ny = 0.628318531
############################
A(data) = 8.00899191 (not used)
A(ran) = 8.01157303 (used)
Ngal = 476811
weighted Ngal = 0
Nran = 23820508
weighted Nran = 0
SN(data) = 3480.86511
SN(ran) = 69.7837066
SN(data+ran) = 3550.64881
############################
13 columns: k_central k_mean P_0(k) sigma^{lin}_{P_0(k)} P^img_1(k) sigma^{lin}_{P_1(k)} P_2(k) sigma^{lin}_{P_2(k)} P^img_3(k) sigma^{lin}_{P_3(k)} P_4(k) sigma^{lin}_{P_4(k)} N_modes
### header ###
0.00050000 0 0 0 0 0 0 0 0 0 0 0 0
0.00150000 0.00179520 11353.78331554 0 -19239.49305138 0 8350.43735313 0 -33093.29658771 0 13270.40274164 0 3
0.00250000 0.00253879 17390.30408341 0 -10202.04008790 0 -2105.75687866 0 12913.87388248 0 17891.21605821 0 6
0.00350000 0.00331552 27991.72292752 0 -10458.03223771 0 10401.91769553 0 -33884.19274951 0 -12873.34917365 0 7
0.00450000 0.00420575 31484.26634507 0 -7220.88306443 0 -432.40307221 0 -17663.12616695 0 19657.14114354 0 24
0.00550000 0.00557378 45177.07827854 0 -5540.42525438 0 6393.08284401 0 -18974.97521146 0 8660.72818385 0 45
0.00650000 0.00659388 52938.11363693 0 -10329.78149933 0 12450.16491908 0 -17211.92893059 0 38361.95162942 0 40
0.00750000 0.00754703 67372.54988675 0 -7700.33687373 0 24384.13805511 0 -1666.35166823 0 9544.78688667 0 57
0.00850000 0.00846663 68282.25209385 0 -440.81139568 0 37508.93972539 0 -2632.68881678 0 21511.97699716 0 75
0.00950000 0.00948925 80652.58555099 0 -1675.17631111 0 35605.27491932 0 29335.90316051 0 -9954.75078540 0 112
0.01050000 0.01054430 77309.51851850 0 2881.11856874 0 30055.38282722 0 19536.67424951 0 17293.86413424 0 105
0.01150000 0.01145670 71094.95476754 0 9590.51558817 0 27255.85622008 0 12833.15663456 0 7255.16298207 0 144
0.01250000 0.01249090 70724.25333261 0 241.28145905 0 13318.67807785 0 26927.45106596 0 3909.02891560 0 169
0.01350000 0.01339930 64491.30952245 0 -2654.20234390 0 7689.07631939 0 23231.39831824 0 3757.85846485 0 180
0.01450000 0.01448870 63114.24448475 0 5266.45164907 0 1561.98393449 0 1024.38713311 0 1506.51158715 0 267
0.01550000 0.01550050 58461.87504245 0 577.88788417 0 -9283.93398626 0 -1568.97057145 0 13142.07449700 0 238
0.01650000 0.01653350 61348.87301567 0 -620.03579582 0 -7313.56949549 0 271.83664662 0 -4338.15900860 0 315
0.01750000 0.01747870 59432.14286631 0 -2783.78176125 0 -4154.29198266 0 -8015.84276943 0 -9648.56778719 0 297
0.01850000 0.01844180 62599.71355043 0 886.59980137 0 563.45621600 0 -10950.51817332 0 -21406.78991138 0 388
0.01950000 0.01947590 62151.28439527 0 1819.82516254 0 6651.49983296 0 -17431.82530148 0 3577.21348543 0 399
0.02050000 0.02045430 58961.45833827 0 491.83599014 0 14559.22135053 0 -5126.14314896 0 -12719.00096568 0 462
0.02150000 0.02154770 64928.66635278 0 -3139.69057022 0 16007.59216006 0 1244.64003286 0 -13639.33260460 0 571
0.02250000 0.02255340 67313.31294897 0 -3023.43115963 0 11553.08516227 0 -6022.40355373 0 -17476.33604725 0 510
0.02350000 0.02348930 71389.47860771 0 668.63555115 0 17374.13848918 0 4206.91874252 0 -9213.52507274 0 555
0.02450000 0.02439640 72656.26329021 0 1453.33121105 0 21683.93020159 0 -5358.41837901 0 -7078.73655841 0 592
0.02550000 0.02547300 66723.82237563 0 4637.26679125 0 23667.20502310 0 4333.28718568 0 771.16970790 0 837
0.02650000 0.02652900 68922.89680786 0 3724.94044316 0 28776.97220366 0 3698.51080382 0 -278.93843576 0 723
0.02750000 0.02749970 65555.35993752 0 3567.72450306 0 26831.56473303 0 -2401.02256460 0 -2141.83051292 0 826
0.02850000 0.02848090 65270.02612694 0 705.00592371 0 35499.20204756 0 3824.56922188 0 8754.77651086 0 831
0.02950000 0.02946900 63342.55582251 0 -231.32522458 0 33120.31306027 0 3785.71643409 0 5918.58943623 0 996
0.03050000 0.03053250 63854.54012213 0 276.36079854 0 34870.73689085 0 8483.69278232 0 6303.75132738 0 1041
0.03150000 0.03150510 61461.70000557 0 1817.47782968 0 25472.87975453 0 10571.35748223 0 3014.77260162 0 1036
0.03250000 0.03246190 58898.23536356 0 2135.92896379 0 18207.55237828 0 12603.18444807 0 11202.75680501 0 1059
0.03350000 0.03345080 58063.93568847 0 1372.27072105 0 16567.96251913 0 12652.45629352 0 13887.57412704 0 1302
0.03450000 0.03451200 55593.36785169 0 1869.57311795 0 11094.13729854 0 6402.53860941 0 5228.56215354 0 1339
0.03550000 0.03553350 52334.67193431 0 3429.37580446 0 7810.76116914 0 2495.95667759 0 8000.96156488 0 1365
0.03650000 0.03647120 49692.04016984 0 1722.80945248 0 9549.65870959 0 -6476.66782407 0 3345.61366720 0 1308
0.03750000 0.03744890 48809.46515855 0 1010.07504605 0 9297.44222254 0 -2941.81705339 0 2908.00217339 0 1579
0.03850000 0.03847530 47935.74800711 0 1045.09238052 0 10349.25771869 0 -6437.83718093 0 -529.16079711 0 1662
0.03950000 0.03950240 46633.86405493 0 2154.61904808 0 11458.41678507 0 -3038.33450884 0 -4970.41090039 0 1683
0.04050000 0.04050350 45072.77697875 0 2319.22022884 0 12235.69398734 0 -2514.48067702 0 -4182.03922865 0 1822
0.04150000 0.04152450 43930.22378072 0 1056.90876556 0 13480.55546670 0 955.58924285 0 -4265.07059247 0 1887
0.04250000 0.04250150 43019.08217139 0 930.47056676 0 11548.10261610 0 1584.58254945 0 -3588.30795490 0 1920
0.04350000 0.04349210 42151.01190561 0 984.06504781 0 13593.16101011 0 123.84284586 0 -1418.53089414 0 2005
0.04450000 0.04448520 41232.34111541 0 963.13392498 0 15728.79102113 0 3680.88366271 0 136.13091195 0 2151
0.04550000 0.04548030 41337.86037093 0 720.66661994 0 17368.49160352 0 -2043.18717111 0 -44.51384602 0 2274
0.04650000 0.04648670 40224.75955691 0 2165.90174707 0 21104.73689033 0 -1703.76505379 0 1641.76003481 0 2311
0.04750000 0.04749250 40902.05366606 0 2308.51329074 0 23342.01084318 0 -3496.73982865 0 4759.11772588 0 2568
0.04850000 0.04851840 37065.82528615 0 1532.36546560 0 23536.88375999 0 -2380.30624486 0 3737.07571117 0 2493
0.04950000 0.04949480 39598.39814192 0 1054.28683905 0 25538.98153370 0 1831.06357223 0 4272.73264124 0 2644
0.05050000 0.05050630 37257.48722876 0 8.87276320 0 21824.32728029 0 4965.84910256 0 1571.49506151 0 2829
0.05150000 0.05149060 37191.60689609 0 -392.69771541 0 20019.31688835 0 5368.50526692 0 1334.94591408 0 2784
0.05250000 0.05249300 37702.26251672 0 -161.44778265 0 18012.56873822 0 3627.10538107 0 2174.00668884 0 3055
0.05350000 0.05348950 37580.24549722 0 276.25118253 0 15425.29859785 0 4787.95005970 0 2044.46048846 0 3009
0.05450000 0.05448610 36562.25595340 0 59.45096582 0 12823.41298872 0 2409.00571079 0 1935.04377461 0 3336
0.05550000 0.05550870 35980.40528418 0 889.28594737 0 10989.61455225 0 3734.11940044 0 2752.88997501 0 3349
0.05650000 0.05647670 35855.28801373 0 275.40747138 0 9686.97768199 0 1591.71312663 0 4116.32498085 0 3324
0.05750000 0.05747970 34528.04843771 0 353.22266297 0 10414.94982184 0 1789.43163092 0 1717.95977421 0 3639
0.05850000 0.05849280 34201.85774856 0 776.99707245 0 9032.84687635 0 424.37785118 0 2787.67921959 0 3846
0.05950000 0.05951020 33602.73425262 0 -88.51681498 0 8592.72196481 0 1556.49206138 0 3148.49306846 0 3787
0.06050000 0.06049470 33851.75083779 0 -406.62116387 0 7593.17891413 0 493.76146743 0 3461.37482318 0 3930
0.06150000 0.06148310 34124.01930508 0 -221.77645165 0 8373.75566920 0 1805.65258678 0 3243.25002425 0 4083
0.06250000 0.06249100 34943.70351141 0 -60.22536422 0 8505.29488804 0 316.93090391 0 3086.66520667 0 4303
0.06350000 0.06350600 34059.46765139 0 1237.62017893 0 8896.55763016 0 -1403.80470213 0 2543.37944479 0 4470
0.06450000 0.06451750 34060.90705362 0 1187.88329584 0 11273.39823735 0 -2020.84321963 0 3902.52946093 0 4479
0.06550000 0.06550280 31687.99712173 0 1067.35439680 0 11121.15377110 0 -194.52746027 0 4794.89240736 0 4636
0.06650000 0.06648880 32446.34064856 0 663.08610195 0 11782.61445576 0 -92.32458748 0 3535.71441201 0 4653
0.06750000 0.06749660 31342.76203389 0 842.49651715 0 12255.84561851 0 1098.86401877 0 4396.70946224 0 5220
0.06850000 0.06852730 31352.28423323 0 1133.87249538 0 10800.87570339 0 1324.01752949 0 6008.03167612 0 5029
0.06950000 0.06949320 29816.33133439 0 122.38129899 0 10267.67682943 0 959.23093048 0 3742.39042708 0 5040
0.07050000 0.07048030 29374.10268113 0 438.75969389 0 9893.95264982 0 2663.09342073 0 3206.52312283 0 5475
0.07150000 0.07148790 28517.65835641 0 1556.32597651 0 8323.35444662 0 1670.76952583 0 3642.72843139 0 5509
0.07250000 0.07249820 26318.91609392 0 1325.76695681 0 6637.32725719 0 1773.90823152 0 1803.02844579 0 5916
0.07350000 0.07351270 25852.10687957 0 597.54126072 0 6300.96110152 0 1418.57518344 0 3381.45478264 0 5721
0.07450000 0.07449140 25245.56492600 0 -195.30363024 0 5636.47767218 0 800.42279007 0 1872.77301983 0 6028
0.07550000 0.07549160 25746.91979379 0 -501.34933163 0 5885.05136436 0 1136.83987843 0 1413.53727565 0 6183
0.07650000 0.07648840 26270.53003446 0 -658.87197512 0 5153.60251451 0 -864.68767055 0 1942.07470087 0 6330
0.07750000 0.07749960 26279.05572458 0 1099.04781936 0 7314.07882243 0 -2556.33406483 0 1687.16763889 0 6583
0.07850000 0.07848650 26057.83067470 0 1363.77824791 0 8691.57568079 0 -2140.87829298 0 1941.34392743 0 6549
0.07950000 0.07947320 24897.78320345 0 975.66668944 0 9715.17889330 0 -1443.52113126 0 1583.05456862 0 6828
0.08050000 0.08048110 25326.61434368 0 -10.49493630 0 9913.68353265 0 -168.30265894 0 1740.14871315 0 7147
0.08150000 0.08149960 24635.81199824 0 -217.82473892 0 9644.34923144 0 1976.66464360 0 -838.89690435 0 7386
0.08250000 0.08250610 24876.85650954 0 20.97773732 0 8621.39928609 0 292.60832798 0 -1552.81604954 0 7227
0.08350000 0.08350160 24159.70203104 0 652.92613670 0 7157.25041370 0 469.62158486 0 -2173.56379585 0 7798
0.08450000 0.08449610 23762.98063279 0 503.87160722 0 7703.86894534 0 539.49016893 0 -2317.81404359 0 7371
0.08550000 0.08548940 22902.99316412 0 649.00321201 0 6551.02955755 0 311.96275177 0 -2803.21369131 0 8256
0.08650000 0.08650700 22667.70626173 0 451.63237873 0 6509.77407528 0 867.37603102 0 -3068.97163161 0 8037
0.08750000 0.08749060 22061.60720115 0 434.70943747 0 6187.34797656 0 154.24302089 0 -2391.30106341 0 8155
0.08850000 0.08849210 21649.05237841 0 1019.00376878 0 7567.52433753 0 392.43751578 0 -1485.99456926 0 8718
0.08950000 0.08949900 20884.95124268 0 918.20685979 0 7020.80615496 0 230.79707468 0 -898.33203674 0 8571
0.09050000 0.09049190 19716.93169756 0 1014.72099354 0 7012.50191134 0 854.29629371 0 1658.32423274 0 8932
0.09150000 0.09150830 19549.18597655 0 291.34386849 0 7002.40395111 0 746.13961041 0 1573.86453902 0 9285
0.09250000 0.09250820 19441.67370256 0 -71.05177270 0 7206.01293220 0 1218.63114187 0 2456.98209423 0 9204
0.09350000 0.09350330 19586.83188094 0 -161.79102472 0 6800.78798848 0 574.69130399 0 1072.03023957 0 9349
0.09450000 0.09448040 19345.56592314 0 62.33065606 0 6201.07765933 0 164.43731035 0 813.60328553 0 9564
0.09550000 0.09549270 19256.32298510 0 585.64626217 0 6649.67289936 0 -897.91682456 0 695.61769950 0 10155
0.09650000 0.09649430 18979.73631113 0 458.87589362 0 6774.32513217 0 -99.43180206 0 930.83927518 0 9913
0.09750000 0.09749140 18402.09312534 0 -113.09161847 0 6593.49192323 0 65.72210915 0 -201.65914469 0 10476
0.09850000 0.09850240 18693.29526807 0 -56.32702009 0 6097.10852929 0 759.29906846 0 -784.35020336 0 10575
0.09950000 0.09950330 18503.84779043 0 321.89019820 0 5912.02354762 0 -435.44685431 0 -1089.98955042 0 10882
0.10050000 0.10051200 18327.90854906 0 746.83052348 0 6394.53331856 0 -347.59681473 0 -1184.00798216 0 10875
0.10150000 0.10150300 17687.81745129 0 564.00761777 0 6279.72438252 0 -307.17175682 0 -499.53125589 0 11118
0.10250000 0.10250800 17341.14296122 0 420.50475196 0 6610.20006138 0 109.14964938 0 -1426.34795546 0 11575
0.10350000 0.10349800 16815.31825558 0 449.11010313 0 6636.27538633 0 617.28210864 0 -426.25682471 0 11364
0.10450000 0.10450100 16913.64049997 0 389.18335952 0 6504.64758889 0 1106.54489049 0 -1006.27059524 0 12093
0.10550000 0.10551000 16098.27450033 0 596.49714049 0 6104.74843341 0 567.94936541 0 -287.03894860 0 12067
0.10650000 0.10649700 15790.24242387 0 471.00008930 0 5335.49866663 0 895.82747687 0 150.61794174 0 12054
0.10750000 0.10749900 15264.86061123 0 -207.69356172 0 5081.84277736 0 817.84066424 0 843.67461251 0 12807
0.10850000 0.10850100 15739.64189945 0 -383.90628951 0 4857.74999536 0 767.73839444 0 85.36175602 0 12736
0.10950000 0.10950300 15561.26674662 0 6.17720573 0 4130.12109758 0 584.89555854 0 177.20812979 0 12933
0.11050000 0.11050200 15664.35009068 0 172.84341935 0 3900.01604320 0 12.56221685 0 234.30367995 0 13428
0.11150000 0.11150900 15460.61931402 0 77.00170789 0 4145.82165417 0 -45.81572997 0 576.42301559 0 13453
0.11250000 0.11250000 15418.65520296 0 277.52449988 0 3815.04702254 0 -382.15021879 0 -81.82193378 0 13668
0.11350000 0.11349100 15026.47345788 0 669.61766636 0 4349.69637106 0 -690.12804085 0 160.34608633 0 13791
0.11450000 0.11448600 14846.99107257 0 514.86088960 0 4254.38579902 0 -537.07197319 0 -245.84325688 0 14205
0.11550000 0.11549300 14280.64165810 0 212.41701548 0 4846.53373032 0 178.48255438 0 -519.84675747 0 14776
0.11650000 0.11649800 14120.86801096 0 188.86396613 0 4756.72610371 0 -218.23441494 0 -707.73746625 0 14553
0.11750000 0.11747300 14227.38377572 0 157.51046394 0 4852.60136432 0 562.34898352 0 -675.93110597 0 14568
0.11850000 0.11849100 13925.22003142 0 201.41112461 0 5031.55227804 0 366.80176213 0 -337.91849561 0 16015
0.11950000 0.11950300 13931.75270306 0 -30.64664497 0 4549.64041263 0 526.23105996 0 150.99550802 0 15270
0.12050000 0.12050700 13759.79949863 0 27.02920573 0 4691.51011053 0 213.45117062 0 -416.83538352 0 15999
0.12150000 0.12150000 13937.95320496 0 315.26894796 0 4719.77775579 0 280.38669585 0 362.17020866 0 15670
0.12250000 0.12250700 13520.85872904 0 156.25486231 0 4992.36732050 0 -183.17943457 0 -149.66018564 0 16887
0.12350000 0.12352200 13258.77680058 0 347.87915901 0 4747.34784459 0 101.45925546 0 399.58580868 0 16407
0.12450000 0.12449800 13227.88501434 0 63.48693894 0 4711.94962215 0 186.89752124 0 -4.26100705 0 16306
0.12550000 0.12549900 13325.65364249 0 1.58812569 0 4345.94285294 0 563.88250050 0 86.59100552 0 17523
0.12650000 0.12650100 13078.85152228 0 -18.43497793 0 4027.77959928 0 604.38063576 0 14.13714433 0 17154
0.12750000 0.12750600 13101.99268115 0 48.66176035 0 3593.94376823 0 736.44357557 0 18.86347690 0 18007
0.12850000 0.12850300 12830.38855335 0 352.22615374 0 3329.01625230 0 526.61637686 0 713.66669619 0 17496
0.12950000 0.12949900 12548.15499372 0 383.54201002 0 2942.56997148 0 557.28671661 0 156.60806947 0 18405
0.13050000 0.13049000 12483.71406328 0 9.62322324 0 2851.48902752 0 171.72843624 0 1055.75060039 0 18100
0.13150000 0.13148800 12215.09946318 0 207.29938695 0 2954.18484021 0 -18.81453722 0 540.53871809 0 19059
0.13250000 0.13249300 12413.07263094 0 13.11782611 0 3037.28263798 0 -534.00383198 0 983.65869349 0 18957
0.13350000 0.13349100 12178.56079128 0 111.59131845 0 3186.72580605 0 -58.27940313 0 1037.00404724 0 19468
0.13450000 0.13450700 12272.78627548 0 -10.79618104 0 3295.06850441 0 79.76536016 0 1165.63899528 0 19953
0.13550000 0.13551000 12308.21771490 0 61.68569314 0 3301.90012882 0 333.55821409 0 593.21308895 0 19956
0.13650000 0.13649900 12354.72147914 0 122.52523921 0 3521.20966650 0 6.93540531 0 662.92223154 0 19723
0.13750000 0.13749600 12085.22109306 0 276.67525257 0 3017.67355072 0 -89.20495996 0 790.88066054 0 20946
0.13850000 0.13851100 11877.28283296 0 297.70602633 0 3016.10128060 0 -49.42530786 0 1020.09107108 0 20955
0.13950000 0.13949800 11916.25741632 0 146.83452835 0 3292.73224387 0 -8.64121875 0 422.67049870 0 20506
0.14050000 0.14048300 11434.83273321 0 123.65461634 0 2865.21871030 0 249.45172754 0 230.29992730 0 21447
0.14150000 0.14148400 11471.37140511 0 230.71735394 0 2780.52649776 0 300.46303521 0 -139.81024549 0 21771
0.14250000 0.14249400 11134.21911438 0 54.87211661 0 2411.12052483 0 153.19004280 0 -761.13485992 0 22470
0.14350000 0.14350900 11028.68878654 0 167.57631443 0 2207.46725444 0 83.05184762 0 -856.86396583 0 22519
0.14450000 0.14449900 10900.39375886 0 261.11642173 0 2122.03319614 0 -118.43955135 0 -976.30224088 0 22218
0.14550000 0.14550500 10713.14967385 0 158.23348675 0 2139.08457636 0 -393.82598531 0 -751.88171806 0 23559
0.14650000 0.14650700 10554.92615220 0 233.23962954 0 2187.02774283 0 -67.42237535 0 -640.82187120 0 23044
0.14750000 0.14750500 10484.09649033 0 179.00073918 0 2679.51367844 0 -278.57637074 0 -1083.71043502 0 23649
0.14850000 0.14849900 10311.34607851 0 130.21718326 0 2650.38239184 0 -28.59660403 0 -995.11854968 0 23640
0.14950000 0.14949500 10156.51068825 0 376.66277461 0 3017.41888725 0 -42.87015940 0 -789.69481455 0 24457
0.15050000 0.15050000 10009.35949141 0 280.28815216 0 3054.66618794 0 -148.03809006 0 -804.26710125 0 24591
0.15150000 0.15149900 9896.32212733 0 -64.42055737 0 3173.63831812 0 181.61602230 0 -698.57511746 0 25020
0.15250000 0.15250500 9847.67033208 0 103.04425875 0 3043.10668083 0 -10.95500246 0 -644.18342902 0 25297
0.15350000 0.15350100 9957.76245775 0 17.04385104 0 2923.09375212 0 124.03439708 0 -835.68150122 0 25452
0.15450000 0.15450400 9868.66345994 0 1.77620020 0 3157.45057923 0 222.05658147 0 -676.34299645 0 26061
0.15550000 0.15549900 9830.79610906 0 128.88518259 0 2747.13236610 0 272.39469179 0 -404.25943699 0 26128
0.15650000 0.15649500 9600.86821187 0 229.55918877 0 2666.54798607 0 610.06516732 0 -565.84673093 0 26331
0.15750000 0.15749700 9465.30973912 0 175.62146565 0 2443.34099006 0 434.48134758 0 -130.44638039 0 27345
0.15850000 0.15849900 9315.63405222 0 146.63190481 0 2271.06668820 0 562.39991621 0 -97.79143714 0 26980
0.15950000 0.15949700 8981.39378292 0 224.50356526 0 1998.05637515 0 338.24180749 0 172.82791809 0 27777
0.16050000 0.16050000 9031.27460623 0 52.12629078 0 1794.22594756 0 14.41893500 0 186.13353083 0 28224
0.16150000 0.16150500 8881.39961748 0 21.91002707 0 1999.32969250 0 109.08155459 0 436.34371262 0 28075
0.16250000 0.16249700 8845.53635739 0 133.51895052 0 2043.80722130 0 77.59817403 0 822.49104067 0 28590
0.16350000 0.16349900 8858.61277300 0 104.12657851 0 1984.83601932 0 196.28795992 0 879.79475053 0 29163
0.16450000 0.16449100 8796.27558428 0 85.56659403 0 1924.27040256 0 237.56005068 0 862.99914101 0 28996
0.16550000 0.16550500 8712.19234960 0 89.42042741 0 2075.95018025 0 85.34171511 0 1204.86824212 0 30777
0.16650000 0.16650700 8597.92595747 0 130.91584696 0 2048.84512909 0 -41.44027938 0 975.59029040 0 29211
0.16750000 0.16749900 8660.58424362 0 91.70509091 0 2005.12051838 0 -22.35624176 0 796.38471321 0 30922
0.16850000 0.16850800 8528.42497459 0 -0.63680262 0 1946.53684777 0 -254.71551076 0 686.30144540 0 30867
0.16950000 0.16949900 8605.49942765 0 57.20261954 0 1963.24498592 0 49.29410082 0 605.90861659 0 30852
0.17050000 0.17049200 8561.81910624 0 2.83441550 0 1879.59357191 0 -106.44811285 0 356.59418588 0 31257
0.17150000 0.17149500 8438.51769706 0 127.62183032 0 1742.05315302 0 106.10464933 0 95.30470371 0 32608
0.17250000 0.17250900 8345.52124091 0 155.58830835 0 1866.66109653 0 154.18101587 0 57.38232337 0 32361
0.17350000 0.17350400 8255.39251688 0 166.47240365 0 1753.65694943 0 209.28908372 0 184.14826299 0 32508
0.17450000 0.17449800 8062.95551154 0 157.33109228 0 1729.30890715 0 140.19999132 0 266.83417027 0 32791
0.17550000 0.17549800 8037.58881538 0 165.54897176 0 1764.40817683 0 39.16746326 0 521.97264383 0 33633
0.17650000 0.17650100 8035.98332828 0 64.18538119 0 1842.85559817 0 -92.02973147 0 767.02865842 0 33984
0.17750000 0.17750300 7945.06846919 0 2.68285752 0 1975.21416905 0 -267.59705345 0 621.13859937 0 34069
0.17850000 0.17849800 8020.88067723 0 31.31120591 0 1973.94085169 0 -92.84144360 0 563.30563238 0 34536
