### header ###
fiducial parameters:
Omega_m = 0.31
Omega_nu = 0
Omega_de = 0.69
Omega_k = 0
H_0 = 100
w_de = -1
zeff = 0
beta = 0
fgrowth = 0
b_1 = 2
gamma = 0.55
Lx = 3500 Ly = 3500 Lz = 3500
nx = 700 ny = 700 nz = 700
xoffset = -685.467585 yoffset = -31.7331281 zoffset = 572.489161
bins = 400 dk = 0.001
kx_ny = 0.628318531 ky_ny = 0.628318531 kz_ny = 0.628318531
############################
A(data) = 8.03388309 (not used)
A(ran) = 8.03121197 (used)
Ngal = 477915
weighted Ngal = 0
Nran = 23820508
weighted Nran = 0
SN(data) = 3488.7506
SN(ran) = 69.9547689
SN(data+ran) = 3558.70537
############################
13 columns: k_central k_mean P_0(k) sigma^{lin}_{P_0(k)} P^img_1(k) sigma^{lin}_{P_1(k)} P_2(k) sigma^{lin}_{P_2(k)} P^img_3(k) sigma^{lin}_{P_3(k)} P_4(k) sigma^{lin}_{P_4(k)} N_modes
### header ###
0.00050000 0 0 0 0 0 0 0 0 0 0 0 0
0.00150000 0.00179520 11744.30421189 0 -21007.18970867 0 -10552.11378169 0 -3785.52820457 0 -8873.53826686 0 3
0.00250000 0.00253879 13345.91599691 0 -13189.57477047 0 -10111.86707458 0 4729.64319721 0 12681.79795428 0 6
0.00350000 0.00331552 24919.48496009 0 -7041.01314775 0 -2764.28339725 0 -13870.96563981 0 12214.32440044 0 7
0.00450000 0.00420575 29373.65978814 0 -4463.42021927 0 5383.95116004 0 -29948.97778572 0 -9708.11475007 0 24
0.00550000 0.00557378 42249.11270350 0 -6944.94965762 0 -1585.90015610 0 -30576.44643319 0 -16276.42820666 0 45
0.00650000 0.00659388 59505.33093336 0 -24121.05961742 0 -5678.82931461 0 -32029.46761914 0 -30947.92293085 0 40
0.00750000 0.00754703 65793.52564437 0 -21597.01245176 0 12329.36585531 0 -44321.29829331 0 -50141.68728073 0 57
0.00850000 0.00846663 86468.87777823 0 8261.34942764 0 37839.44862123 0 -49678.08904057 0 -54609.48106830 0 75
0.00950000 0.00948925 80205.04218182 0 3343.29955132 0 27313.87520213 0 -24966.87451032 0 -46523.03008350 0 112
0.01050000 0.01054430 78703.08132017 0 3196.98985116 0 8542.33181456 0 8015.83169711 0 -37688.53283395 0 105
0.01150000 0.01145670 87846.16426242 0 -16598.52213563 0 25784.45497493 0 6181.49071673 0 -71562.53904463 0 144
0.01250000 0.01249090 92495.98707001 0 -3259.37132919 0 21218.89255921 0 1094.12949267 0 -51011.86128823 0 169
0.01350000 0.01339930 87883.03510406 0 15400.82876000 0 16567.18745640 0 6566.79654809 0 -34458.73568435 0 180
0.01450000 0.01448870 81432.74155771 0 9829.07989871 0 29195.61680505 0 3157.06304787 0 19580.18848605 0 267
0.01550000 0.01550050 79783.29732948 0 -8259.25675825 0 34614.41257130 0 9910.14038871 0 34676.74976003 0 238
0.01650000 0.01653350 83579.55461680 0 -6683.44349006 0 36626.69688384 0 28261.99837635 0 12440.97488948 0 315
0.01750000 0.01747870 88242.88566067 0 -3698.48865917 0 30208.18090972 0 24983.59372079 0 29502.98454202 0 297
0.01850000 0.01844180 85841.85202375 0 1678.09940486 0 18036.59568308 0 10230.91671103 0 20303.10057346 0 388
0.01950000 0.01947590 91926.64812783 0 2768.55731463 0 23097.31246469 0 -5826.83308046 0 21490.27524051 0 399
0.02050000 0.02045430 82932.15578465 0 6892.06823429 0 26052.07306579 0 -10119.98308867 0 3927.70792757 0 462
0.02150000 0.02154770 78369.02928039 0 12959.49186074 0 28411.36403815 0 -16311.41675309 0 2093.68804461 0 571
0.02250000 0.02255340 70698.45481578 0 3170.43841625 0 26811.85599485 0 3057.30140125 0 8499.40441124 0 510
0.02350000 0.02348930 70329.63567607 0 -2122.86362050 0 35644.91384217 0 -3224.70388018 0 -1572.42513680 0 555
0.02450000 0.02439640 74749.26485068 0 -6296.91970296 0 39866.68057227 0 12281.09051910 0 -4380.44421708 0 592
0.02550000 0.02547300 77229.46561006 0 2743.97675353 0 41997.77093012 0 5069.38641194 0 -10075.79344032 0 837
0.02650000 0.02652900 76402.58439260 0 8605.26690883 0 36191.55451847 0 1596.67352815 0 8392.46789814 0 723
0.02750000 0.02749970 73604.38646443 0 -1821.00990130 0 40042.84126014 0 10784.01255269 0 15789.79953088 0 826
0.02850000 0.02848090 73004.70935226 0 -388.46476563 0 35670.93380550 0 12221.96430457 0 15757.35761916 0 831
0.02950000 0.02946900 77612.34660229 0 1778.25965517 0 33154.30509747 0 16353.38086415 0 10084.11982858 0 996
0.03050000 0.03053250 70689.37550943 0 1251.16163218 0 26634.69879775 0 5777.92662174 0 7615.20176820 0 1041
0.03150000 0.03150510 69418.71551324 0 5641.53772462 0 20821.83899121 0 2130.75818810 0 8606.24127341 0 1036
0.03250000 0.03246190 67455.26015315 0 3509.20726640 0 25605.52620586 0 -166.66174040 0 6391.30019972 0 1059
0.03350000 0.03345080 61030.98657012 0 4800.31784653 0 23322.96644449 0 -8101.37647866 0 6792.31766000 0 1302
0.03450000 0.03451200 58834.45877260 0 5465.83100208 0 32524.84343153 0 -4112.58253506 0 253.48758993 0 1339
0.03550000 0.03553350 55039.19799451 0 3461.64055898 0 30610.99208662 0 -901.88625301 0 2074.26718688 0 1365
0.03650000 0.03647120 53596.47407064 0 1498.93811697 0 29126.41477494 0 2817.81808775 0 -193.36597340 0 1308
0.03750000 0.03744890 52025.86479512 0 -794.45812869 0 31141.46716868 0 5304.02004718 0 2567.73855939 0 1579
0.03850000 0.03847530 51993.97649964 0 1468.32313885 0 30012.20076043 0 7729.97748727 0 -5446.49872294 0 1662
0.03950000 0.03950240 49838.52702719 0 -26.88094730 0 25943.78572907 0 5557.24411578 0 -3759.19821615 0 1683
0.04050000 0.04050350 49265.64494108 0 2063.63775505 0 21995.61614523 0 3784.42097209 0 645.54421774 0 1822
0.04150000 0.04152450 49196.33218771 0 -1564.28697805 0 19389.74449917 0 6062.20856146 0 1866.79396442 0 1887
0.04250000 0.04250150 48890.73602272 0 -8.66863382 0 22499.40692448 0 5865.66372360 0 2226.24591734 0 1920
0.04350000 0.04349210 49456.86399070 0 3488.64595921 0 19640.31120981 0 232.07039204 0 3177.60221040 0 2005
0.04450000 0.04448520 45376.38012528 0 2781.43442839 0 19483.30564388 0 -1614.20101834 0 7031.72346723 0 2151
0.04550000 0.04548030 43977.39188444 0 2984.71123974 0 20762.60205343 0 -2558.76997629 0 2966.25367427 0 2274
0.04650000 0.04648670 42333.70526512 0 1196.49756455 0 24435.29219577 0 -2764.81486884 0 3678.49204055 0 2311
0.04750000 0.04749250 43029.37943347 0 880.64067615 0 27210.68113482 0 1034.72536279 0 131.99318416 0 2568
0.04850000 0.04851840 40278.23888578 0 1636.11314915 0 24464.30168680 0 -680.47629531 0 350.65941977 0 2493
0.04950000 0.04949480 39899.01176074 0 1319.77682908 0 26678.98809702 0 4040.25810935 0 3035.56642763 0 2644
0.05050000 0.05050630 38773.17777318 0 -158.23237952 0 22459.54655513 0 9274.16819577 0 -1901.79358318 0 2829
0.05150000 0.05149060 39446.70729190 0 193.79779407 0 19170.95536075 0 6435.24625692 0 1326.35379003 0 2784
0.05250000 0.05249300 38158.33157600 0 417.31149348 0 15771.19802518 0 5287.27869205 0 -160.50884950 0 3055
0.05350000 0.05348950 37225.59893328 0 687.70984511 0 13446.23125976 0 1539.05314979 0 2895.00326406 0 3009
0.05450000 0.05448610 36300.28474819 0 1330.55020113 0 13058.25699812 0 -226.62059376 0 2616.34606535 0 3336
0.05550000 0.05550870 35423.02445281 0 -10.62395103 0 13368.94643253 0 -1738.72038325 0 4857.03029425 0 3349
0.05650000 0.05647670 36067.21231075 0 -100.29178953 0 14619.23335105 0 -171.07406184 0 2521.69983280 0 3324
0.05750000 0.05747970 36458.39754660 0 253.37686668 0 16284.28955728 0 -1914.12815302 0 3464.87367782 0 3639
0.05850000 0.05849280 35718.65552546 0 683.20451614 0 16466.54002379 0 1100.28016911 0 2861.53162613 0 3846
0.05950000 0.05951020 36664.12134173 0 37.53839211 0 17437.91508013 0 200.32382232 0 1673.75905354 0 3787
0.06050000 0.06049470 36315.12166344 0 -959.83105048 0 15825.56314004 0 2770.01886150 0 -219.23424587 0 3930
0.06150000 0.06148310 36104.30459890 0 826.75499295 0 15098.44356920 0 1530.26172389 0 707.95226935 0 4083
0.06250000 0.06249100 35157.39938041 0 804.70335084 0 14107.80266768 0 2244.30487912 0 610.24121729 0 4303
0.06350000 0.06350600 34782.71190854 0 1102.98735253 0 12038.93877531 0 722.99402261 0 386.62011632 0 4470
0.06450000 0.06451750 33709.80363362 0 825.40527656 0 12256.73140450 0 1533.67199993 0 1593.55113255 0 4479
0.06550000 0.06550280 32041.86862294 0 1911.47079507 0 11790.03291339 0 1119.68884729 0 2872.83646977 0 4636
0.06650000 0.06648880 31383.84035896 0 1853.49610232 0 13573.00937894 0 506.08607218 0 1522.35608397 0 4653
0.06750000 0.06749660 29849.32686235 0 889.22172788 0 12383.28807717 0 930.47388846 0 4087.82481677 0 5220
0.06850000 0.06852730 29144.01977140 0 88.78642609 0 12284.85510954 0 1701.04126189 0 4213.09709977 0 5029
0.06950000 0.06949320 30051.72896003 0 -1197.87053283 0 10239.86314948 0 2456.31775474 0 4077.11787867 0 5040
0.07050000 0.07048030 30404.38250551 0 -897.48721836 0 9147.63366775 0 2672.12843778 0 1647.99375368 0 5475
0.07150000 0.07148790 30350.79245338 0 480.34180975 0 7029.06610927 0 260.76875073 0 345.37902807 0 5509
0.07250000 0.07249820 29842.12985122 0 546.46130463 0 6462.15200623 0 -1046.47863558 0 -2494.53942002 0 5916
0.07350000 0.07351270 28491.30622334 0 1618.20919992 0 7387.96444594 0 -1737.26990870 0 -310.41926969 0 5721
0.07450000 0.07449140 27199.05519376 0 1667.44782839 0 7884.77966056 0 112.95985780 0 -854.50777511 0 6028
0.07550000 0.07549160 27035.84912593 0 373.74632425 0 8327.73908725 0 625.06595299 0 -1510.67478128 0 6183
0.07650000 0.07648840 25968.25556692 0 201.84183805 0 8662.52190047 0 551.34087818 0 -409.64058685 0 6330
0.07750000 0.07749960 26768.78465130 0 1075.61878004 0 9553.30150445 0 -13.82357609 0 535.59381783 0 6583
0.07850000 0.07848650 25041.94487259 0 594.86065088 0 9874.14426072 0 -125.88126086 0 2813.00162645 0 6549
0.07950000 0.07947320 25501.66779906 0 619.04371552 0 10465.20710419 0 835.85422949 0 4018.46777411 0 6828
0.08050000 0.08048110 24809.53677464 0 -165.74273744 0 10072.01777756 0 1209.51861854 0 2490.19906869 0 7147
0.08150000 0.08149960 24846.85050928 0 283.59767004 0 8983.16535489 0 1926.35199962 0 1114.41842067 0 7386
0.08250000 0.08250610 24331.32306573 0 396.67157279 0 8585.74640017 0 174.31271685 0 1179.18044854 0 7227
0.08350000 0.08350160 23903.70988123 0 498.29115551 0 7727.90696252 0 54.50130445 0 1102.58985607 0 7798
0.08450000 0.08449610 23164.63219959 0 318.07135337 0 7029.61972551 0 386.82716879 0 -45.83034544 0 7371
0.08550000 0.08548940 23151.89902604 0 259.34706423 0 6881.43880246 0 -44.68247753 0 1164.13315911 0 8256
0.08650000 0.08650700 23206.70703390 0 384.11112752 0 7797.85083840 0 469.46657231 0 -964.31312757 0 8037
0.08750000 0.08749060 22835.89487572 0 68.17540416 0 7179.17361684 0 -75.32668659 0 -199.23762725 0 8155
0.08850000 0.08849210 22384.47619286 0 821.18229187 0 8740.54857346 0 -613.73232130 0 -836.02585052 0 8718
0.08950000 0.08949900 22019.97525983 0 1182.31391646 0 8376.76734155 0 -510.12525628 0 849.58834119 0 8571
0.09050000 0.09049190 21071.29846937 0 664.93185850 0 8636.66802201 0 -536.02010233 0 1438.52751276 0 8932
0.09150000 0.09150830 21106.06556930 0 329.70393782 0 8989.78660513 0 1182.82324340 0 832.72076157 0 9285
0.09250000 0.09250820 20503.73109917 0 16.66384885 0 8061.18393957 0 1502.97951553 0 786.36315202 0 9204
0.09350000 0.09350330 20096.93388533 0 766.03436365 0 7313.56949549 0 726.91694730 0 259.12893943 0 9349
0.09450000 0.09448040 19391.62679438 0 693.73761874 0 6890.14164977 0 612.32613605 0 412.16618414 0 9564
0.09550000 0.09549270 19355.19884573 0 -80.31443675 0 6607.84165620 0 147.15451854 0 -740.21813110 0 10155
0.09650000 0.09649430 18576.59296448 0 470.32357025 0 5991.03565752 0 -153.20886575 0 -302.40622821 0 9913
0.09750000 0.09749140 18702.26385118 0 236.50485813 0 6685.41436387 0 300.49293049 0 -649.23462360 0 10476
0.09850000 0.09850240 18511.81986429 0 -41.22436904 0 6440.59418981 0 290.49905010 0 -232.95064186 0 10575
0.09950000 0.09950330 18110.22664312 0 410.44554486 0 5678.92896553 0 1196.29826271 0 85.76877468 0 10882
0.10050000 0.10051200 18377.73401074 0 56.34207846 0 5592.88592937 0 1127.05194329 0 1034.87594641 0 10875
0.10150000 0.10150300 17949.56721000 0 -134.05485104 0 5082.47389988 0 757.85080837 0 113.78696046 0 11118
0.10250000 0.10250800 18239.44067376 0 386.86592193 0 5347.81109183 0 169.86939290 0 355.30979620 0 11575
0.10350000 0.10349800 17598.35306676 0 585.20336917 0 5766.04601721 0 -1153.72517378 0 451.20720145 0 11364
0.10450000 0.10450100 17104.19521010 0 846.58441947 0 6003.90169896 0 -1292.47247608 0 1169.69146617 0 12093
0.10550000 0.10551000 16699.05884499 0 370.33272651 0 6141.10994811 0 83.32046222 0 1288.17641405 0 12067
0.10650000 0.10649700 16550.68969242 0 -168.94596101 0 6425.40296016 0 783.35037243 0 246.15106751 0 12054
0.10750000 0.10749900 16535.85277716 0 -166.90643878 0 5660.37174914 0 432.04100719 0 -1175.24977323 0 12807
0.10850000 0.10850100 16614.13411363 0 444.57377165 0 5990.38239036 0 222.81614295 0 -1290.80055503 0 12736
0.10950000 0.10950300 15858.89083775 0 610.48259397 0 5399.49670409 0 -318.73790732 0 -623.37853068 0 12933
0.11050000 0.11050200 15784.37409172 0 222.60133985 0 5596.81660468 0 31.40078102 0 -566.21765381 0 13428
0.11150000 0.11150900 15623.38248885 0 301.15505551 0 5803.35975185 0 -108.20551225 0 -1653.36383122 0 13453
0.11250000 0.11250000 15139.63261753 0 521.19204493 0 6108.95591684 0 -121.39807654 0 -1654.11674931 0 13668
0.11350000 0.11349100 14700.06132223 0 496.91597277 0 5745.81687976 0 438.82280614 0 -1366.53525679 0 13791
0.11450000 0.11448600 14476.17891439 0 12.11411986 0 5701.05147052 0 315.56900796 0 -495.37581239 0 14205
0.11550000 0.11549300 14484.81532775 0 -81.13556036 0 5754.88511379 0 919.92196291 0 -848.22090908 0 14776
0.11650000 0.11649800 14579.15153521 0 -93.34434860 0 4805.97580451 0 907.69700908 0 -221.36345394 0 14553
0.11750000 0.11747300 14608.49319598 0 -38.79089349 0 4612.56443458 0 920.05150911 0 99.41740804 0 14568
0.11850000 0.11849100 14735.82493139 0 55.21768387 0 4094.23569284 0 197.42508768 0 243.54353501 0 16015
0.11950000 0.11950300 14360.14095030 0 217.82141723 0 4304.10053745 0 741.98416691 0 637.27097663 0 15270
0.12050000 0.12050700 14623.55155773 0 365.95694374 0 4080.53922704 0 -119.70733254 0 984.74931749 0 15999
0.12150000 0.12150000 14061.63107318 0 219.16670469 0 4110.98812029 0 -309.17031145 0 1257.21819386 0 15670
0.12250000 0.12250700 13752.38104100 0 371.56175457 0 4697.06841759 0 -248.68552266 0 1263.95016735 0 16887
0.12350000 0.12352200 13729.12915888 0 392.54381010 0 4885.89584505 0 -283.78147064 0 894.03154578 0 16407
0.12450000 0.12449800 13412.57139232 0 130.58478445 0 5440.20964244 0 137.03662812 0 761.39505955 0 16306
0.12550000 0.12549900 13243.27554584 0 -59.90847428 0 5241.43926730 0 144.12180877 0 701.26458516 0 17523
0.12650000 0.12650100 13265.08802573 0 173.15344444 0 5030.82150460 0 360.15947447 0 648.46952596 0 17154
0.12750000 0.12750600 13186.91741251 0 143.81731984 0 4993.41919136 0 223.69750001 0 471.66553602 0 18007
0.12850000 0.12850300 13032.90137428 0 133.44698041 0 4655.73542904 0 563.50714869 0 1202.42125833 0 17496
0.12950000 0.12949900 12916.08834745 0 123.69890564 0 4289.54043032 0 594.09887493 0 522.50079373 0 18405
0.13050000 0.13049000 12909.22350606 0 35.87898279 0 4077.30610819 0 142.81748891 0 788.29305823 0 18100
0.13150000 0.13148800 12720.44036790 0 104.23696958 0 4072.73323804 0 307.03556722 0 286.76546218 0 19059
0.13250000 0.13249300 12558.34153256 0 171.20803697 0 3908.91819235 0 -252.11019273 0 424.24498329 0 18957
0.13350000 0.13349100 12546.38342175 0 267.07776142 0 3848.36364792 0 -307.03445999 0 -89.14062976 0 19468
0.13450000 0.13450700 12516.15597500 0 307.53492907 0 4514.47470901 0 -607.27937040 0 -79.07256480 0 19953
0.13550000 0.13551000 12259.72093220 0 263.38846279 0 4427.09192154 0 -98.72859871 0 -564.61659564 0 19956
0.13650000 0.13649900 12054.44003006 0 290.08051623 0 4798.50198526 0 -9.35402180 0 166.17566534 0 19723
0.13750000 0.13749600 11817.71372544 0 200.94165804 0 4491.71000918 0 461.90306723 0 46.54617124 0 20946
0.13850000 0.13851100 11747.62590934 0 18.13037827 0 4192.90117930 0 949.57586324 0 -271.80896581 0 20955
0.13950000 0.13949800 11700.90069860 0 -97.27867778 0 3888.61154863 0 752.93137446 0 186.70486279 0 20506
0.14050000 0.14048300 11656.16850633 0 147.35492762 0 3771.20061626 0 243.07074674 0 -45.71984364 0 21447
0.14150000 0.14148400 11610.99342107 0 105.46832283 0 3521.82971669 0 126.57771009 0 443.33477851 0 21771
0.14250000 0.14249400 11421.10305043 0 18.78154170 0 3357.68250125 0 -47.92135398 0 335.13491315 0 22470
0.14350000 0.14350900 11430.84669627 0 74.08658621 0 3211.12920995 0 271.44579356 0 255.40974552 0 22519
0.14450000 0.14449900 11265.42616348 0 116.73219887 0 3027.71614933 0 383.56747637 0 381.79701163 0 22218
0.14550000 0.14550500 11265.31544024 0 152.65082058 0 2779.55213317 0 309.44047617 0 406.11405140 0 23559
0.14650000 0.14650700 10976.51599199 0 122.84522940 0 2795.42984696 0 70.94780357 0 275.91901278 0 23044
0.14750000 0.14750500 10881.83654247 0 241.00907986 0 2701.89084690 0 -104.57677923 0 -104.25202795 0 23649
0.14850000 0.14849900 10626.86304654 0 417.62705474 0 2861.46519218 0 -104.48742557 0 383.88082316 0 23640
0.14950000 0.14949500 10477.37558917 0 163.75857684 0 2753.57645915 0 -443.38349674 0 -69.47983475 0 24457
0.15050000 0.15050000 10462.50545693 0 96.71819669 0 3167.11671880 0 -241.78524983 0 511.40853872 0 24591
0.15150000 0.15149900 10262.43961979 0 227.39565650 0 3390.03583437 0 -99.54573628 0 -245.08480263 0 25020
0.15250000 0.15250500 10177.54810540 0 246.53638441 0 3243.32753053 0 145.72286694 0 97.90980029 0 25297
0.15350000 0.15350100 10067.94316202 0 174.09569929 0 3510.38093283 0 14.37099183 0 46.38960857 0 25452
0.15450000 0.15450400 9860.39243330 0 37.79316630 0 3318.55290535 0 89.33007723 0 -340.88255696 0 26061
0.15550000 0.15549900 9982.39838047 0 -17.48087570 0 3497.06092607 0 295.23246896 0 -35.60128888 0 26128
0.15650000 0.15649500 9891.88212508 0 149.25050963 0 3223.81809420 0 266.57397064 0 -326.57046990 0 26331
0.15750000 0.15749700 9786.67289465 0 212.17010264 0 3177.71293365 0 -48.24200851 0 170.51048051 0 27345
0.15850000 0.15849900 9541.95237151 0 161.16876006 0 3143.02334000 0 -0.40329393 0 -0.70650401 0 26980
0.15950000 0.15949700 9437.81715659 0 207.20416496 0 3330.77675195 0 227.34140211 0 133.91423252 0 27777
0.16050000 0.16050000 9236.83231648 0 155.98137588 0 3160.93836155 0 321.35983384 0 192.08601265 0 28224
0.16150000 0.16150500 9126.05370667 0 131.92785745 0 3057.84394517 0 309.55562835 0 83.50370919 0 28075
0.16250000 0.16249700 8992.14501032 0 120.12143749 0 2860.93372059 0 148.90837479 0 172.64965366 0 28590
0.16350000 0.16349900 8903.02386785 0 164.82484172 0 2710.00686099 0 291.20878613 0 383.44457356 0 29163
0.16450000 0.16449100 8795.99877616 0 127.16565054 0 2532.84966389 0 -30.10277238 0 359.85055661 0 28996
0.16550000 0.16550500 8693.91194133 0 90.59542251 0 2485.23866717 0 52.31463103 0 289.39624655 0 30777
0.16650000 0.16650700 8619.46162925 0 79.92900912 0 2550.47680500 0 -19.96273731 0 116.44542565 0 29211
0.16750000 0.16749900 8387.97253426 0 230.05965785 0 2527.12527196 0 -54.97719298 0 178.33307799 0 30922
0.16850000 0.16850800 8395.40206422 0 22.86911185 0 2371.93556730 0 121.86865035 0 6.23289952 0 30867
0.16950000 0.16949900 8433.83410366 0 -47.81395243 0 2393.74804719 0 340.10749422 0 11.95966093 0 30852
0.17050000 0.17049200 8336.65230873 0 -0.45903423 0 2357.71870223 0 -7.83509814 0 -45.23554015 0 31257
0.17150000 0.17149500 8444.06493179 0 184.80042292 0 2436.90796934 0 35.01080180 0 -96.67767198 0 32608
0.17250000 0.17250900 8288.52091274 0 167.19099753 0 2593.33777437 0 -297.68166721 0 174.98702143 0 32361
0.17350000 0.17350400 8097.93298564 0 251.99282608 0 2490.84126353 0 -141.82540860 0 225.99943634 0 32508
0.17450000 0.17449800 8021.35678719 0 137.79065344 0 2839.35375952 0 -192.99283605 0 -123.08328438 0 32791
0.17550000 0.17549800 7923.01239815 0 169.77970707 0 2841.83396028 0 -77.29335292 0 85.60136113 0 33633
0.17650000 0.17650100 7823.56077663 0 55.84415601 0 2797.26785288 0 202.03781820 0 -39.55366595 0 33984
0.17750000 0.17750300 7795.64744577 0 -20.05851292 0 2719.61763893 0 268.14291906 0 -236.02542646 0 34069
0.17850000 0.17849800 7783.92185378 0 -45.03070214 0 2355.09456125 0 464.05441994 0 -195.64244338 0 34536
