### header ###
fiducial parameters:
Omega_m = 0.31
Omega_nu = 0
Omega_de = 0.69
Omega_k = 0
H_0 = 100
w_de = -1
zeff = 0
beta = 0
fgrowth = 0
b_1 = 2
gamma = 0.55
Lx = 3500 Ly = 3500 Lz = 3500
nx = 700 ny = 700 nz = 700
xoffset = -685.467585 yoffset = -31.7331281 zoffset = 572.489161
bins = 400 dk = 0.001
kx_ny = 0.628318531 ky_ny = 0.628318531 kz_ny = 0.628318531
############################
A(data) = 8.08958337 (not used)
A(ran) = 8.0818304 (used)
Ngal = 480096
weighted Ngal = 0
Nran = 23820508
weighted Nran = 0
SN(data) = 3497.94872
SN(ran) = 70.3956738
SN(data+ran) = 3568.3444
############################
13 columns: k_central k_mean P_0(k) sigma^{lin}_{P_0(k)} P^img_1(k) sigma^{lin}_{P_1(k)} P_2(k) sigma^{lin}_{P_2(k)} P^img_3(k) sigma^{lin}_{P_3(k)} P_4(k) sigma^{lin}_{P_4(k)} N_modes
### header ###
0.00050000 0 0 0 0 0 0 0 0 0 0 0 0
0.00150000 0.00179520 10047.71402458 0 -12905.45891562 0 12253.74187680 0 -12062.74427367 0 7717.57648347 0 3
0.00250000 0.00253879 15314.02173342 0 -10073.70077093 0 6886.77566303 0 7254.41006398 0 10293.24282743 0 6
0.00350000 0.00331552 22929.34529719 0 -6416.09113499 0 14764.83442242 0 -3785.05209460 0 -34274.27075287 0 7
0.00450000 0.00420575 30559.94866921 0 -6295.52459004 0 8826.61375428 0 5605.97341730 0 -1362.99211285 0 24
0.00550000 0.00557378 48765.50802902 0 -9297.37578859 0 12235.14037110 0 -5034.15427437 0 -26055.83765623 0 45
0.00650000 0.00659388 55582.40625012 0 -952.46795448 0 22742.44445425 0 -34619.94873371 0 -11671.78048433 0 40
0.00750000 0.00754703 69296.47704724 0 -4049.01631828 0 17838.29034558 0 -7321.71872655 0 -39600.39116038 0 57
0.00850000 0.00846663 69681.01888819 0 -6857.10183251 0 46262.16611077 0 -35800.36928263 0 -27503.87629601 0 75
0.00950000 0.00948925 92129.38239526 0 -7251.17694513 0 30716.73278864 0 -2612.88042768 0 -44387.28934923 0 112
0.01050000 0.01054430 82059.10297270 0 -7609.63238881 0 43799.57034786 0 793.23795850 0 -15225.44313487 0 105
0.01150000 0.01145670 96749.42064909 0 6293.59800552 0 30186.36842983 0 6916.63772306 0 -24651.86686923 0 144
0.01250000 0.01249090 90853.18623667 0 6531.80800167 0 21291.19484027 0 6269.93644738 0 -5471.48896006 0 169
0.01350000 0.01339930 75962.68092756 0 11806.97357036 0 28844.40266181 0 20812.53823836 0 -22094.49200586 0 180
0.01450000 0.01448870 77971.20064966 0 451.62241363 0 25131.18781063 0 5440.02141292 0 8129.20123093 0 267
0.01550000 0.01550050 75129.37776171 0 -10930.49941004 0 27999.03066190 0 23779.47839677 0 9497.55234899 0 238
0.01650000 0.01653350 87028.36235131 0 -9074.93278299 0 23098.08752743 0 13156.46851926 0 4126.89905106 0 315
0.01750000 0.01747870 85719.83500424 0 4451.59497636 0 28456.20695367 0 16334.66863520 0 18956.70587551 0 297
0.01850000 0.01844180 83640.12023356 0 10659.52640476 0 16859.16466186 0 -1453.56372987 0 24624.07533393 0 388
0.01950000 0.01947590 75117.97326714 0 12705.71417589 0 19163.42617987 0 -1321.39338851 0 36557.05196073 0 399
0.02050000 0.02045430 72037.09888635 0 -1918.66780620 0 27908.01615189 0 3064.07766404 0 26387.45378455 0 462
0.02150000 0.02154770 71077.90338731 0 -3038.82169113 0 25306.90560550 0 -2108.44745359 0 -7677.88219899 0 571
0.02250000 0.02255340 70134.31986627 0 2397.21368486 0 23321.19487252 0 -7408.24894501 0 -8280.07272891 0 510
0.02350000 0.02348930 71593.87372386 0 4243.49063140 0 26645.88184582 0 -16951.50785085 0 -6567.95914220 0 555
0.02450000 0.02439640 68194.22711155 0 3998.39364921 0 27108.81574648 0 -9618.45106368 0 -4728.65776030 0 592
0.02550000 0.02547300 65306.89696859 0 4036.69282076 0 35603.06045436 0 4491.03459737 0 -10153.29971405 0 837
0.02650000 0.02652900 61493.25613130 0 3670.16565229 0 27325.16897344 0 9927.77860214 0 -14139.91240965 0 723
0.02750000 0.02749970 60397.31742075 0 -1553.21465323 0 27648.48085815 0 18368.21181140 0 5225.22938377 0 826
0.02850000 0.02848090 62926.23640933 0 -481.96501257 0 28345.15153573 0 5842.89902377 0 -5336.19622310 0 831
0.02950000 0.02946900 65020.67737203 0 1911.84725411 0 28604.68682948 0 4733.91711459 0 4117.58722588 0 996
0.03050000 0.03053250 62438.83267081 0 3246.35027520 0 33796.72138344 0 -1936.94821447 0 16756.41348755 0 1041
0.03150000 0.03150510 59587.26613702 0 2137.58981251 0 28350.46625165 0 -2091.75038776 0 23658.56860975 0 1036
0.03250000 0.03246190 58514.02569235 0 1263.61799760 0 36090.57491612 0 13344.47659468 0 16742.79452802 0 1059
0.03350000 0.03345080 57781.48068235 0 964.34855901 0 27754.22156016 0 13845.27784623 0 18828.26690761 0 1302
0.03450000 0.03451200 53753.36891332 0 2446.27515613 0 23389.62183990 0 10676.64421893 0 11832.88281044 0 1339
0.03550000 0.03553350 50473.63557879 0 5240.09951600 0 18391.68514001 0 6350.19972999 0 15298.52047868 0 1365
0.03650000 0.03647120 46821.20779087 0 3816.84073916 0 20586.21991907 0 -2183.32958634 0 14168.70045418 0 1308
0.03750000 0.03744890 45353.12824316 0 840.87774326 0 18821.95568247 0 -1523.82870317 0 14316.73743701 0 1579
0.03850000 0.03847530 42507.54076477 0 1453.33121105 0 17432.93253397 0 -1126.99658167 0 8150.06149089 0 1662
0.03950000 0.03950240 44077.92859380 0 -234.50741073 0 18662.40348183 0 -1087.02770354 0 8031.87549577 0 1683
0.04050000 0.04050350 44998.92457221 0 -876.78861434 0 19802.63149165 0 -1521.80246772 0 5134.62454977 0 1822
0.04150000 0.04152450 44235.26632947 0 1829.30307259 0 18050.87898209 0 2094.77313244 0 6584.84443755 0 1887
0.04250000 0.04250150 44013.15549361 0 -41.13711912 0 18271.32896923 0 3989.82366980 0 5428.35118256 0 1920
0.04350000 0.04349210 43623.63110649 0 -1609.98246258 0 13378.57935512 0 6693.55252262 0 598.84779505 0 2005
0.04450000 0.04448520 44372.67388047 0 26.13101874 0 14719.77006040 0 2537.82113773 0 -580.43673334 0 2151
0.04550000 0.04548030 44168.83238056 0 1464.03814915 0 13592.93956361 0 -2225.71444575 0 -1897.69682299 0 2274
0.04650000 0.04648670 42752.57131301 0 1180.34304264 0 14772.80649629 0 -4614.56852537 0 -1312.75697515 0 2311
0.04750000 0.04749250 42670.08249311 0 1058.26401812 0 17023.14579243 0 -3253.53621401 0 2589.60640091 0 2568
0.04850000 0.04851840 42906.14445824 0 363.59410963 0 19425.06521534 0 1760.78752661 0 -2669.78110492 0 2493
0.04950000 0.04949480 41131.58295956 0 1115.70281035 0 15128.67101596 0 5712.41167579 0 2358.40518637 0 2644
0.05050000 0.05050630 42068.41236246 0 -289.74613202 0 16763.83194518 0 4215.65480680 0 -2094.28595015 0 2829
0.05150000 0.05149060 39033.70957617 0 1562.94722675 0 12110.46599364 0 3816.26497827 0 2532.11889045 0 2784
0.05250000 0.05249300 39279.84735689 0 2429.57809031 0 15404.03973420 0 3255.82818525 0 3075.13891653 0 3055
0.05350000 0.05348950 36508.44445478 0 1164.74213697 0 12761.96158597 0 850.21614201 0 6318.80968913 0 3009
0.05450000 0.05448610 36267.51066672 0 889.47639135 0 11536.03378205 0 -296.31755680 0 3392.05099749 0 3336
0.05550000 0.05550870 35867.91046402 0 369.57759396 0 11797.89426401 0 -646.03804343 0 6709.17557294 0 3349
0.05650000 0.05647670 36217.13158880 0 -88.49013067 0 13463.83625623 0 -828.37044514 0 1369.69086937 0 3324
0.05750000 0.05747970 35721.53432992 0 194.62600396 0 10906.62747774 0 -313.24381975 0 1136.82880610 0 3639
0.05850000 0.05849280 35501.85940551 0 790.97588253 0 12759.85784426 0 -690.69383665 0 -158.62433982 0 3846
0.05950000 0.05951020 34783.92986427 0 1810.80121782 0 11326.54539648 0 830.25716929 0 -2506.88506219 0 3787
0.06050000 0.06049470 32646.08538829 0 1573.42164603 0 11592.83480837 0 -146.23662281 0 -1130.97154628 0 3930
0.06150000 0.06148310 32004.99778129 0 293.83403434 0 10387.70083046 0 500.82007450 0 -1362.73744938 0 4083
0.06250000 0.06249100 31966.57681417 0 284.92856349 0 12316.74340501 0 432.15837383 0 -296.55782625 0 4303
0.06350000 0.06350600 32561.04993368 0 -57.27060362 0 12249.64511661 0 820.72057593 0 -348.12607186 0 4470
0.06450000 0.06451750 31529.10926058 0 41.66482612 0 13071.65451115 0 93.46049728 0 -1407.93467929 0 4479
0.06550000 0.06550280 32197.21334014 0 1631.01987974 0 14667.95158025 0 -827.77807577 0 1127.08516026 0 4636
0.06650000 0.06648880 30629.59359232 0 1243.98676570 0 15161.99871366 0 1521.69174448 0 2352.94653024 0 4653
0.06750000 0.06749660 29996.69950568 0 769.26416080 0 13360.08857268 0 1316.90909696 0 1824.22087550 0 5220
0.06850000 0.06852730 29622.78709656 0 581.90049468 0 12986.39761005 0 565.46473572 0 -146.81570540 0 5029
0.06950000 0.06949320 29618.46888988 0 -65.64903181 0 12579.71111946 0 1018.19881077 0 -60.73900936 0 5040
0.07050000 0.07048030 29318.85178029 0 -103.26448730 0 11993.43152031 0 -641.75083926 0 -1408.31113833 0 5475
0.07150000 0.07148790 29672.39111175 0 -117.81728670 0 12000.96070119 0 -2057.02757713 0 -2984.43443162 0 5509
0.07250000 0.07249820 29440.64735329 0 -112.74616193 0 12107.58718919 0 573.43459513 0 -4886.23908712 0 5916
0.07350000 0.07351270 29043.70450854 0 652.33487455 0 11123.03606632 0 482.24292792 0 -1962.69136968 0 5721
0.07450000 0.07449140 29315.30863634 0 -119.02195564 0 10767.32655919 0 2283.79986174 0 -2373.16459535 0 6028
0.07550000 0.07549160 28901.42513462 0 656.48478189 0 11166.88247260 0 3037.73660329 0 -947.63709916 0 6183
0.07650000 0.07648840 27612.93869548 0 1484.45551611 0 10130.18069983 0 1848.92323217 0 194.95595924 0 6330
0.07750000 0.07749960 26658.39357286 0 1659.96293681 0 10682.26895994 0 1078.08458678 0 1817.02386436 0 6583
0.07850000 0.07848650 25417.07523744 0 958.94526450 0 11811.07033055 0 -38.64972135 0 5057.39508416 0 6549
0.07950000 0.07947320 24618.87134127 0 873.88766524 0 11553.08516227 0 925.23335712 0 3204.02077742 0 6828
0.08050000 0.08048110 24336.30561190 0 142.86288544 0 11587.40936921 0 589.10304198 0 5631.70550018 0 7147
0.08150000 0.08149960 24454.66876421 0 119.94649476 0 10930.00115543 0 172.89656651 0 4747.51392947 0 7386
0.08250000 0.08250610 24290.13401740 0 189.85051027 0 11244.38874633 0 285.78777589 0 5431.28534864 0 7227
0.08350000 0.08350160 24426.10216617 0 -138.15714739 0 10602.58143822 0 1778.47002935 0 3575.96231273 0 7798
0.08450000 0.08449610 23730.09582807 0 152.66632183 0 9346.34868127 0 1566.65645556 0 1912.57802755 0 7371
0.08550000 0.08548940 23797.19411648 0 660.94471433 0 8852.77765783 0 1124.71568275 0 892.71836806 0 8256
0.08650000 0.08650700 22632.49626880 0 567.16876651 0 7026.17623249 0 789.09026562 0 -19.12478377 0 8037
0.08750000 0.08749060 22340.62978658 0 496.13426664 0 7110.24839484 0 533.58529810 0 -331.14998344 0 8155
0.08850000 0.08849210 21543.64384614 0 450.92485717 0 5366.92192447 0 509.90713148 0 -1399.85188217 0 8718
0.08950000 0.08949900 21210.69903884 0 469.90171468 0 5932.79522898 0 253.74778957 0 -1539.61783836 0 8571
0.09050000 0.09049190 20532.96203669 0 583.81047071 0 5489.83580228 0 -181.92051124 0 -1176.00269131 0 8932
0.09150000 0.09150830 20384.14999113 0 635.14398304 0 5902.85566267 0 366.19056980 0 -59.20372081 0 9285
0.09250000 0.09250820 19491.05627126 0 300.58925971 0 5773.80771691 0 200.26956792 0 -258.11914340 0 9204
0.09350000 0.09350330 19683.38255336 0 514.79334842 0 6446.66182381 0 727.33105224 0 204.54127084 0 9349
0.09450000 0.09448040 19002.98819325 0 390.55411333 0 6525.57428279 0 569.09535103 0 841.76574371 0 9564
0.09550000 0.09549270 19043.95579508 0 505.42726886 0 6712.85158478 0 -420.26891144 0 1113.98660000 0 10155
0.09650000 0.09649430 18333.44471147 0 684.57748442 0 7448.27539923 0 -870.70880079 0 1917.82630951 0 9913
0.09750000 0.09749140 18357.13948658 0 635.38425249 0 6743.11224850 0 -490.28697190 0 1136.57414263 0 10476
0.09850000 0.09850240 17207.83217040 0 350.77125025 0 7906.24889838 0 130.30576186 0 2398.46485757 0 10575
0.09950000 0.09950330 17760.56262535 0 115.95713613 0 7958.21131875 0 785.81285747 0 1419.06236573 0 10882
0.10050000 0.10051200 17088.58323211 0 384.68799564 0 7752.59824687 0 465.18711877 0 881.80327025 0 10875
0.10150000 0.10150300 16897.36418249 0 522.11326236 0 7718.30725691 0 114.86540490 0 1231.95114862 0 11118
0.10250000 0.10250800 16231.14239815 0 339.81186315 0 7053.69095967 0 440.41611368 0 2296.42231204 0 11575
0.10350000 0.10349800 16387.26217809 0 178.77486375 0 6988.62997903 0 744.38021800 0 2590.24859575 0 11364
0.10450000 0.10450100 16051.43856634 0 -8.49424471 0 6340.55573507 0 1266.37500648 0 2029.83394738 0 12093
0.10550000 0.10551000 16004.49190911 0 295.96767133 0 6345.02895430 0 739.36556209 0 1555.53984145 0 12067
0.10650000 0.10649700 15608.21340385 0 147.66273825 0 5404.78927535 0 312.79649782 0 2160.22164444 0 12054
0.10750000 0.10749900 15788.69229840 0 4.26631069 0 6081.77335941 0 410.81203882 0 2504.94740535 0 12807
0.10850000 0.10850100 15792.12471909 0 -315.84470885 0 5543.00510606 0 53.50800620 0 2348.89405935 0 12736
0.10950000 0.10950300 16185.63514315 0 -207.44111271 0 6218.68265579 0 61.94091022 0 1922.95279590 0 12933
0.11050000 0.11050200 15996.51983524 0 274.14854804 0 6084.57465759 0 -159.29642993 0 2208.96201829 0 13428
0.11150000 0.11150900 15944.25846210 0 427.54785778 0 6221.98220859 0 -111.83380237 0 1478.02249539 0 13453
0.11250000 0.11250000 15423.96991887 0 344.40023455 0 5808.92913123 0 430.68243294 0 1882.85990774 0 13668
0.11350000 0.11349100 15225.55385812 0 332.77761519 0 5666.26222594 0 980.65809347 0 1803.68171296 0 13791
0.11450000 0.11448600 14847.87685856 0 84.09773942 0 4986.69829020 0 669.86125751 0 1812.34027097 0 14205
0.11550000 0.11549300 14868.24993622 0 138.58232466 0 4628.54179929 0 947.32043067 0 717.58519194 0 14776
0.11650000 0.11649800 14546.15600725 0 77.12328202 0 3940.43002878 0 421.27981470 0 355.42273391 0 14553
0.11750000 0.11747300 14338.88208664 0 276.98859936 0 3678.85742727 0 2.71418113 0 563.60458515 0 14568
0.11850000 0.11849100 14176.89397455 0 373.76293274 0 3874.21752637 0 -478.28457180 0 -146.97182518 0 16015
0.11950000 0.11950300 13906.28635598 0 225.73812947 0 3336.92189222 0 -477.75199297 0 161.02260537 0 15270
0.12050000 0.12050700 13713.51718089 0 223.57348997 0 3817.37221075 0 -147.85982563 0 -269.77830144 0 15999
0.12150000 0.12150000 13921.12327124 0 -53.05348726 0 3956.25238095 0 23.67805590 0 492.87678867 0 15670
0.12250000 0.12250700 13943.71081387 0 -120.57429558 0 4903.67799871 0 270.44706986 0 270.82685060 0 16887
0.12350000 0.12352200 14240.44911901 0 157.55032431 0 5167.15504009 0 385.33129771 0 1068.05084603 0 16407
0.12450000 0.12449800 14118.98571575 0 327.92018629 0 5416.27127619 0 35.76792737 0 1547.57883990 0 16306
0.12550000 0.12549900 13884.69532258 0 194.08788898 0 5105.96937314 0 234.46865759 0 3030.31814567 0 17523
0.12650000 0.12650100 13814.27533674 0 60.56351302 0 5390.92672468 0 717.34824419 0 2596.95842459 0 17154
0.12750000 0.12750600 13927.21304989 0 -98.67534083 0 4868.52336741 0 429.03708547 0 2421.89389688 0 18007
0.12850000 0.12850300 13661.92014723 0 13.55961187 0 4647.73013820 0 110.78525321 0 1510.19867131 0 17496
0.12950000 0.12949900 13694.14061245 0 404.86287869 0 4083.68376729 0 -192.97290587 0 556.07429704 0 18405
0.13050000 0.13049000 13164.10842338 0 327.19162732 0 3917.11171272 0 -805.13406428 0 382.00184964 0 18100
0.13150000 0.13148800 12962.81355818 0 358.61709962 0 4074.88126906 0 -475.42680476 0 64.60922978 0 19059
0.13250000 0.13249300 12588.56897931 0 396.22314364 0 4250.20046024 0 -104.92201432 0 287.53941768 0 18957
0.13350000 0.13349100 12577.71810099 0 30.18503975 0 4839.86819078 0 254.49074256 0 283.94201935 0 19468
0.13450000 0.13450700 12477.07066839 0 32.11561031 0 4987.77230571 0 547.91731535 0 450.26716108 0 19953
0.13550000 0.13551000 12620.90016778 0 47.83355045 0 4736.41946000 0 375.65297859 0 418.71103534 0 19956
0.13650000 0.13649900 12304.89601746 0 -23.96981166 0 4544.72430041 0 361.74060245 0 465.52039575 0 19723
0.13750000 0.13749600 12374.65166382 0 178.22789091 0 4208.64602519 0 215.03119137 0 962.34668268 0 20946
0.13850000 0.13851100 12142.02211938 0 87.51432669 0 3895.54282397 0 343.08927130 0 432.04100719 0 20955
0.13950000 0.13949800 12100.94379430 0 168.24176115 0 3640.58040037 0 571.46815024 0 547.30501579 0 20506
0.14050000 0.14048300 11684.51365787 0 132.96865598 0 3050.96803145 0 459.32653724 0 -56.15705991 0 21447
0.14150000 0.14148400 11713.08025590 0 336.86662475 0 3275.99088874 0 215.03119137 0 152.41719452 0 21771
0.14250000 0.14249400 11355.77633400 0 263.77267246 0 3005.30576390 0 78.12222716 0 494.17889407 0 22470
0.14350000 0.14350900 11222.90843618 0 124.31452690 0 3257.42260002 0 113.38724954 0 982.56142610 0 22519
0.14450000 0.14449900 11215.04708556 0 127.44467313 0 3315.71839019 0 74.73088479 0 1208.04599934 0 22218
0.14550000 0.14550500 10979.22871157 0 135.05689644 0 3370.10564970 0 144.87804855 0 1081.80931685 0 23559
0.14650000 0.14650700 10927.47666537 0 222.60576878 0 3418.36991359 0 -56.62431202 0 1302.98011233 0 23044
0.14750000 0.14750500 10733.51167920 0 212.47902050 0 3247.13641027 0 -38.07783577 0 629.58346151 0 23649
0.14850000 0.14849900 10720.74528868 0 75.19149350 0 3398.40651194 0 179.70272457 0 602.88808638 0 23640
0.14950000 0.14949500 10508.09021821 0 88.12009358 0 3157.24020506 0 -89.90661319 0 218.57765701 0 24457
0.15050000 0.15050000 10468.61738023 0 167.78447414 0 3357.32818686 0 -104.05870515 0 -32.92532942 0 24591
0.15150000 0.15149900 10418.20508534 0 209.02666962 0 3036.91725126 0 178.18581607 0 274.68334133 0 25020
0.15250000 0.15250500 10166.25433409 0 218.23773664 0 3060.81132822 0 177.95883342 0 320.31017745 0 25297
0.15350000 0.15350100 10008.81694749 0 185.17466750 0 2933.63460535 0 393.55582059 0 445.78065506 0 25452
0.15450000 0.15450400 9884.29758258 0 173.69488113 0 3198.98286963 0 55.60632247 0 364.40792550 0 26061
0.15550000 0.15549900 9776.92924881 0 151.14387717 0 3025.00342975 0 161.77995239 0 626.49096119 0 26128
0.15650000 0.15649500 9589.33084941 0 154.53090133 0 3208.53828595 0 39.57414975 0 802.20654160 0 26331
0.15750000 0.15749700 9640.90573842 0 79.57004435 0 2642.11136520 0 296.86452964 0 1098.10002835 0 27345
0.15850000 0.15849900 9517.34966577 0 -11.31381222 0 2949.78912726 0 205.82898222 0 926.70708356 0 26980
0.15950000 0.15949700 9476.68101671 0 192.14801767 0 2681.06380391 0 302.95984446 0 1013.34913249 0 27777
0.16050000 0.16050000 9301.01858346 0 236.34652388 0 2754.55082373 0 -65.46999231 0 684.55201808 0 28224
0.16150000 0.16150500 9044.76069786 0 303.37505664 0 2802.78187064 0 -6.49699661 0 859.71287501 0 28075
0.16250000 0.16249700 8823.36956311 0 195.78195468 0 2975.32190829 0 -225.60526157 0 721.77938858 0 28590
0.16350000 0.16349900 8719.95404930 0 138.91560164 0 3109.13095373 0 -127.41920678 0 431.85499213 0 29163
0.16450000 0.16449100 8692.09608006 0 141.57628129 0 3266.88943774 0 -252.04597324 0 -20.19248805 0 28996
0.16550000 0.16550500 8474.01557043 0 210.29666528 0 3051.02339308 0 -206.66383551 0 231.18571328 0 30777
0.16650000 0.16650700 8462.56678657 0 57.08979255 0 3001.49688416 0 51.66136386 0 -1.87719088 0 29211
0.16750000 0.16749900 8373.88853709 0 -90.90090796 0 2779.36390365 0 323.44253814 0 -11.59881386 0 30922
0.16850000 0.16850800 8522.45699151 0 -70.68339645 0 2566.55382064 0 298.55195195 0 -534.08908888 0 30867
0.16950000 0.16949900 8574.07616982 0 -4.66233453 0 2538.28617538 0 361.44497138 0 -122.21299965 0 30852
0.17050000 0.17049200 8400.07458529 0 172.92092562 0 2264.56723353 0 305.48212005 0 -193.25967908 0 31257
0.17150000 0.17149500 8357.26897754 0 113.35735426 0 2207.30116957 0 344.13228429 0 179.11035520 0 32608
0.17250000 0.17250900 8374.75217843 0 35.44439404 0 2292.25911791 0 288.21593673 0 140.84107893 0 32361
0.17350000 0.17350400 8284.87811788 0 25.07527257 0 2227.75175351 0 138.86356171 0 199.64730327 0 32508
0.17450000 0.17449800 8188.39387941 0 187.05917718 0 2060.68144432 0 74.55018445 0 702.43382266 0 32791
0.17550000 0.17549800 8101.55363585 0 193.99709592 0 2205.97249059 0 -102.77409403 0 523.13745240 0 33633
0.17650000 0.17650100 8016.48496427 0 37.12162980 0 1873.61451651 0 -8.28039383 0 666.96252287 0 33984
0.17750000 0.17750300 7830.52526894 0 167.40580063 0 2101.73762475 0 -13.99907244 0 122.86073065 0 34069
0.17850000 0.17849800 7831.96467117 0 159.76700374 0 2095.44854425 0 -11.44457638 0 360.45178384 0 34536
