### header ###
fiducial parameters:
Omega_m = 0.31
Omega_nu = 0
Omega_de = 0.69
Omega_k = 0
H_0 = 100
w_de = -1
zeff = 0
beta = 0
fgrowth = 0
b_1 = 2
gamma = 0.55
Lx = 3500 Ly = 3500 Lz = 3500
nx = 700 ny = 700 nz = 700
xoffset = -685.467585 yoffset = -31.7331281 zoffset = 572.489161
bins = 400 dk = 0.001
kx_ny = 0.628318531 ky_ny = 0.628318531 kz_ny = 0.628318531
############################
A(data) = 8.01538181 (not used)
A(ran) = 8.01236506 (used)
Ngal = 475936
weighted Ngal = 0
Nran = 23820508
weighted Nran = 0
SN(data) = 3488.31309
SN(ran) = 69.7906055
SN(data+ran) = 3558.10369
############################
13 columns: k_central k_mean P_0(k) sigma^{lin}_{P_0(k)} P^img_1(k) sigma^{lin}_{P_1(k)} P_2(k) sigma^{lin}_{P_2(k)} P^img_3(k) sigma^{lin}_{P_3(k)} P_4(k) sigma^{lin}_{P_4(k)} N_modes
### header ###
0.00050000 0 0 0 0 0 0 0 0 0 0 0 0
0.00150000 0.00179520 8054.38553213 0 -17720.03791651 0 -3337.22084499 0 -9625.20518182 0 4954.27852313 0 3
0.00250000 0.00253879 9130.68193845 0 -8842.42503412 0 -3849.20514460 0 2621.22896059 0 17757.01948141 0 6
0.00350000 0.00331552 18933.78616313 0 -11760.24835963 0 -13238.84661591 0 857.28471418 0 386.96889455 0 7
0.00450000 0.00420575 23429.37148600 0 -15773.63393664 0 -22633.27133154 0 -4892.24028717 0 -7483.76220027 0 24
0.00550000 0.00557378 49673.54938740 0 -22561.19049697 0 -40391.61949193 0 -14793.95463669 0 -18781.65242013 0 45
0.00650000 0.00659388 52588.00672616 0 -17906.82803620 0 -37971.87362606 0 -26856.03457087 0 -524.67539832 0 40
0.00750000 0.00754703 74792.88981047 0 -3750.22963305 0 -23877.91136440 0 -67549.70708385 0 -45039.11711130 0 57
0.00850000 0.00846663 79993.56077778 0 1076.66400751 0 -6454.95499510 0 -51001.45330290 0 13445.34547378 0 75
0.00950000 0.00948925 65835.48975543 0 11173.41514424 0 8843.49904963 0 -34792.34483114 0 -19805.17812636 0 112
0.01050000 0.01054430 70667.56302954 0 -206.68044399 0 26881.05802496 0 -1049.50580919 0 -8656.55391739 0 105
0.01150000 0.01145670 72138.41065844 0 -546.17453142 0 48573.84608641 0 1089.74817374 0 -26993.77429162 0 144
0.01250000 0.01249090 65759.42288393 0 9907.31694588 0 37360.90274257 0 2717.51389721 0 -3199.09359288 0 169
0.01350000 0.01339930 60224.03553734 0 4723.24339346 0 37166.36199550 0 22831.90883879 0 -8318.10616466 0 180
0.01450000 0.01448870 62749.41138198 0 -861.50769886 0 47456.09489597 0 16505.62533040 0 10149.40225571 0 267
0.01550000 0.01550050 65804.37652269 0 1192.30115345 0 36461.49779755 0 23490.37999575 0 11226.34085687 0 238
0.01650000 0.01653350 64688.28618097 0 -3138.79371191 0 29833.05054486 0 7026.38660666 0 540.70148126 0 315
0.01750000 0.01747870 67702.28371985 0 -3033.38517964 0 18705.36410212 0 1662.16632945 0 20353.03675839 0 297
0.01850000 0.01844180 68465.05617661 0 116.85953060 0 32951.68155328 0 -4695.09754377 0 6154.19743605 0 388
0.01950000 0.01947590 66485.65666878 0 8783.95208675 0 29763.95923800 0 1683.05980638 0 9688.10705912 0 399
0.02050000 0.02045430 63241.13332717 0 1637.19823698 0 35250.18546239 0 2381.16988620 0 3218.94627128 0 462
0.02150000 0.02154770 63246.33731984 0 -4356.02974085 0 33797.60716943 0 1697.69741979 0 -1557.98682523 0 571
0.02250000 0.02255340 71139.68695980 0 -3641.27795683 0 47364.52676972 0 -4305.09704669 0 -5720.48340058 0 510
0.02350000 0.02348930 67658.76948332 0 966.32164729 0 41349.92920498 0 3223.50806910 0 -7382.04075216 0 555
0.02450000 0.02439640 76774.28233676 0 3673.80844715 0 40055.46371043 0 -931.04300596 0 13874.17661400 0 592
0.02550000 0.02547300 71199.36679058 0 539.22664760 0 33016.23320698 0 7463.15660379 0 1257.63894220 0 837
0.02650000 0.02652900 72666.78199879 0 993.14103247 0 33118.98438129 0 11040.39223387 0 9022.49425265 0 723
0.02750000 0.02749970 67217.09444630 0 5429.70200619 0 32138.86218835 0 7200.78679488 0 -12890.51127712 0 826
0.02850000 0.02848090 62702.46472475 0 9888.79294646 0 29294.27121919 0 4561.66495738 0 4403.35285713 0 831
0.02950000 0.02946900 56324.58418271 0 4276.88476305 0 26595.94566088 0 6218.51657092 0 -98.05772655 0 996
0.03050000 0.03053250 51998.95904581 0 -1312.54660098 0 22457.77498316 0 9479.60411046 0 4548.57746945 0 1041
0.03150000 0.03150510 53679.84867653 0 -35.62985548 0 21445.65377149 0 9371.21712281 0 7017.17443242 0 1036
0.03250000 0.03246190 53140.95862760 0 -680.32903339 0 12084.99964656 0 7714.31014765 0 1631.08631368 0 1059
0.03350000 0.03345080 53600.23866108 0 -527.88747975 0 15637.33361813 0 953.59843884 0 12379.08059374 0 1302
0.03450000 0.03451200 53600.01721458 0 2210.33498657 0 11936.74121724 0 -1564.47520758 0 7940.55096067 0 1339
0.03550000 0.03553350 51703.66014290 0 1550.19190856 0 13261.21271204 0 433.93658920 0 8539.17620199 0 1365
0.03650000 0.03647120 50283.30231516 0 825.15504202 0 6651.65484550 0 -2852.86199580 0 1756.61326015 0 1308
0.03750000 0.03744890 48858.73700399 0 -178.31757674 0 11181.83011110 0 923.07978995 0 -4165.13178865 0 1579
0.03850000 0.03847530 49336.95071291 0 405.12086386 0 10730.67716404 0 -651.29186155 0 -5347.29069257 0 1662
0.03950000 0.03950240 47825.68909841 0 2223.79893355 0 10567.65932574 0 -2431.27215600 0 -9069.38554825 0 1683
0.04050000 0.04050350 45242.73716472 0 3180.87961855 0 11124.58619179 0 -2385.17806778 0 -1951.46403231 0 1822
0.04150000 0.04152450 43602.48296608 0 1666.19665568 0 14626.31963894 0 2461.49960276 0 -556.79731985 0 1887
0.04250000 0.04250150 45215.16707592 0 -353.31345603 0 16867.57962873 0 3673.36555416 0 3849.73661620 0 1920
0.04350000 0.04349210 45915.04872771 0 -1539.67319998 0 18043.57124771 0 1696.42410244 0 8630.39001384 0 2005
0.04450000 0.04448520 45815.95142058 0 960.00488598 0 16968.44850782 0 1493.68983501 0 7136.32371979 0 2151
0.04550000 0.04548030 45353.23896641 0 659.26172096 0 18547.25130371 0 2282.03936210 0 11616.97247648 0 2274
0.04650000 0.04648670 45565.05254019 0 960.93606850 0 17065.55279648 0 2944.91730434 0 12145.67598657 0 2311
0.04750000 0.04749250 43454.00309027 0 1061.31222914 0 17972.04402939 0 241.10430186 0 7708.00999483 0 2568
0.04850000 0.04851840 42242.24786211 0 2125.04486849 0 14677.58450285 0 1300.92065992 0 3162.88709072 0 2493
0.04950000 0.04949480 40623.25252713 0 2492.08136391 0 16678.02142783 0 -4021.25799996 0 995.88364733 0 2644
0.05050000 0.05050630 38217.67923703 0 3525.95969385 0 14440.85819822 0 -3118.79709329 0 -557.26900089 0 2829
0.05150000 0.05149060 36052.70756524 0 1672.97291847 0 16904.78264012 0 -50.92582932 0 -551.13714741 0 2784
0.05250000 0.05249300 34957.32247093 0 327.33999647 0 13323.99279377 0 1880.92225089 0 -3123.55819296 0 3055
0.05350000 0.05348950 35841.89050070 0 -1639.25768940 0 14986.39164204 0 37.00714196 0 -4967.65389151 0 3009
0.05450000 0.05448610 36274.26478486 0 616.27563431 0 14004.27643062 0 1619.78147004 0 -10880.61858674 0 3336
0.05550000 0.05550870 34339.92963905 0 1441.06307515 0 16524.66972909 0 -1699.40255782 0 -6248.21254609 0 3349
0.05650000 0.05647670 34895.20672870 0 1224.90915004 0 15349.01027985 0 -1657.06198771 0 -6693.75182446 0 3324
0.05750000 0.05747970 33360.80395533 0 -62.95646386 0 15970.16770217 0 1890.48873954 0 -261.09095539 0 3639
0.05850000 0.05849280 34782.37973880 0 -762.88760893 0 14832.59705031 0 5640.80695118 0 -1734.86721421 0 3846
0.05950000 0.05951020 34610.75870411 0 -120.84335307 0 12833.59952755 0 5047.60714903 0 -297.31185157 0 3787
0.06050000 0.06049470 34363.84586065 0 560.47001000 0 12120.20963948 0 4157.99013915 0 -1553.50253368 0 3930
0.06150000 0.06148310 32392.30770345 0 1464.42568051 0 9991.13444476 0 1064.56195648 0 608.75641853 0 4083
0.06250000 0.06249100 31435.32666937 0 867.05382636 0 10150.26589705 0 2139.17315496 0 4015.62218663 0 4303
0.06350000 0.06350600 30809.40814737 0 1091.74672837 0 9305.91255103 0 1510.22081596 0 1732.61953227 0 4470
0.06450000 0.06451750 30871.30244311 0 -502.62043452 0 8347.83535680 0 402.53879771 0 3643.84673619 0 4479
0.06550000 0.06550280 31046.02372875 0 -469.07350478 0 9385.44506020 0 -11.07542507 0 1712.04715276 0 4636
0.06650000 0.06648880 31405.76356210 0 817.55056933 0 9193.73882829 0 -1810.98944734 0 4527.72828182 0 4653
0.06750000 0.06749660 30677.42603553 0 606.83979910 0 9894.67235094 0 -342.64748554 0 4473.67319205 0 5220
0.06850000 0.06852730 30657.60657411 0 -270.21897997 0 9347.27875655 0 1040.97236845 0 2790.69089194 0 5029
0.06950000 0.06949320 30229.99338961 0 452.75289800 0 9611.37584813 0 1087.58907040 0 2618.13978197 0 5040
0.07050000 0.07048030 30522.63493457 0 692.24839106 0 9471.84241076 0 144.94337527 0 3419.61001397 0 5475
0.07150000 0.07148790 29352.51164774 0 1057.88534461 0 8826.65804358 0 479.42723572 0 2700.63967419 0 5509
0.07250000 0.07249820 29290.72807525 0 1484.38908216 0 11111.18867876 0 -1347.11439906 0 3636.67186971 0 5916
0.07350000 0.07351270 27504.98352850 0 1230.82177149 0 11740.98251444 0 -602.07980666 0 3094.58191891 0 5721
0.07450000 0.07449140 26748.74374338 0 1362.50493056 0 13371.27162074 0 -228.10649975 0 3895.60925792 0 6028
0.07550000 0.07549160 26990.23114768 0 -186.68050367 0 13049.62058476 0 -160.67825607 0 3988.32890595 0 6183
0.07650000 0.07648840 26574.90824373 0 260.70231678 0 14542.05924707 0 1383.36519052 0 3944.84788639 0 6330
0.07750000 0.07749960 26139.76587836 0 774.08172933 0 13015.84999406 0 1131.01583558 0 1868.97521241 0 6583
0.07850000 0.07848650 25315.09912586 0 624.40493520 0 12385.28109564 0 2059.46348859 0 3425.72193727 0 6549
0.07950000 0.07947320 24586.98304579 0 25.26217341 0 9826.42254075 0 1014.22384616 0 1900.94101416 0 6828
0.08050000 0.08048110 24690.06638985 0 36.99529458 0 9906.47544919 0 2083.42399950 0 815.21209433 0 7147
0.08150000 0.08149960 24802.89337975 0 359.62357395 0 7874.53776010 0 517.38316520 0 -183.81387878 0 7386
0.08250000 0.08250610 23336.80685052 0 602.87037066 0 7381.79716102 0 766.11297715 0 243.96539059 0 7227
0.08350000 0.08350160 23564.01095579 0 425.58252012 0 8013.28506240 0 90.62210682 0 615.02446161 0 7798
0.08450000 0.08449610 23027.55681833 0 129.92708835 0 7267.78543236 0 1116.40036681 0 -110.73985667 0 7371
0.08550000 0.08548940 22739.34420330 0 303.12482210 0 7985.67068430 0 -353.73752607 0 -55.68648610 0 8256
0.08650000 0.08650700 22654.64091844 0 815.06815411 0 6975.06638113 0 -177.42514736 0 -436.28060036 0 8037
0.08750000 0.08749060 22066.03613108 0 733.89029747 0 7693.68240651 0 -548.14872694 0 -11.91094270 0 8155
0.08850000 0.08849210 21660.67831947 0 433.71292824 0 6818.93552886 0 183.03992327 0 179.58978686 0 8718
0.08950000 0.08949900 21015.27250579 0 172.21008237 0 7790.52095937 0 1811.08909826 0 -10.09559076 0 8571
0.09050000 0.09049190 21246.57337125 0 15.39728562 0 6115.88719218 0 966.20870958 0 -751.50525902 0 8932
0.09150000 0.09150830 20532.40842045 0 221.74655638 0 6365.70098474 0 1277.23695713 0 -742.64629193 0 9285
0.09250000 0.09250820 20584.00545410 0 359.55160384 0 5726.83891503 0 134.97496124 0 -356.01288882 0 9204
0.09350000 0.09350330 20276.85916364 0 392.95459335 0 6027.96186079 0 -473.89550224 0 -63.86373015 0 9349
0.09450000 0.09448040 19916.01209780 0 782.31953899 0 7530.98566562 0 -956.81716367 0 142.19854595 0 9564
0.09550000 0.09549270 19199.63268203 0 1032.76334683 0 7959.26318961 0 -1403.78255748 0 122.31154334 0 10155
0.09650000 0.09649430 18689.19850789 0 853.90211894 0 8072.03481789 0 -208.07887862 0 752.68556885 0 9913
0.09750000 0.09749140 18313.51452679 0 141.55635111 0 8751.44374109 0 40.87813744 0 554.59503445 0 10476
0.09850000 0.09850240 18157.17330035 0 197.12502768 0 8055.37096904 0 1318.47029475 0 258.03388650 0 10575
0.09950000 0.09950330 18040.36027352 0 66.11307294 0 7778.50748695 0 1528.23548844 0 713.49286069 0 10882
0.10050000 0.10051200 17675.63789399 0 45.62428948 0 6273.10313228 0 1958.45066927 0 1984.18275215 0 10875
0.10150000 0.10150300 17762.22347407 0 -66.71108920 0 5866.09554427 0 2127.45863530 0 1947.68836955 0 11118
0.10250000 0.10250800 17368.71305002 0 52.88396997 0 4605.57779762 0 1974.43910631 0 1102.27097311 0 11575
0.10350000 0.10349800 17289.87809731 0 436.59726885 0 4713.26722880 0 961.55279699 0 3118.68637004 0 11364
0.10450000 0.10450100 16970.55224954 0 442.11682278 0 4532.27900732 0 -722.62309973 0 3240.37121980 0 12093
0.10550000 0.10551000 16648.56904381 0 466.19691479 0 5249.69922162 0 -287.44308845 0 3698.11220013 0 12067
0.10650000 0.10649700 16597.52562640 0 130.67336304 0 5777.39515015 0 -763.40690097 0 3821.24752444 0 12054
0.10750000 0.10749900 16369.54645838 0 189.67335307 0 5865.76337452 0 -79.28426765 0 3423.02029001 0 12807
0.10850000 0.10850100 16375.74696028 0 2.51182332 0 5549.83673047 0 289.26116419 0 2565.39122653 0 12736
0.10950000 0.10950300 16272.66361622 0 154.06918539 0 5096.27001660 0 441.77358071 0 2633.69639834 0 12933
0.11050000 0.11050200 15993.41958429 0 363.27411944 0 5079.46222753 0 502.75773134 0 1153.59230588 0 13428
0.11150000 0.11150900 15547.20489410 0 428.26866613 0 4597.81609792 0 15.06378719 0 1031.89527657 0 13453
0.11250000 0.11250000 15169.74934103 0 582.15183645 0 4467.72735362 0 84.00395683 0 582.10422546 0 13668
0.11350000 0.11349100 14444.84423516 0 437.83072584 0 3860.49891592 0 29.69630733 0 188.02800561 0 13791
0.11450000 0.11448600 14467.09960804 0 4.43602729 0 3883.20825412 0 340.97999342 0 659.47873852 0 14205
0.11550000 0.11549300 14309.31897938 0 113.18241153 0 3876.27697879 0 30.34082736 0 639.62163119 0 14776
0.11650000 0.11649800 14266.13691258 0 231.59538930 0 4276.35329146 0 315.87460412 0 546.80233224 0 14553
0.11750000 0.11747300 14176.11891181 0 252.23973893 0 3805.38088297 0 22.39909166 0 1007.35679030 0 14568
0.11850000 0.11849100 13972.16668865 0 71.69540694 0 4020.88154092 0 170.62673992 0 799.78834586 0 16015
0.11950000 0.11950300 14170.69347265 0 -129.50744724 0 3896.60576715 0 -100.75106956 0 579.95287275 0 15270
0.12050000 0.12050700 14040.37220953 0 -58.61777338 0 3712.68337959 0 -219.86093946 0 -219.30621599 0 15999
0.12150000 0.12150000 14244.32443269 0 326.76977175 0 4344.78025884 0 -540.51546621 0 -224.12378451 0 15670
0.12250000 0.12250700 13923.44845945 0 335.14709270 0 4236.99117673 0 -499.49360999 0 -692.02362286 0 16887
0.12350000 0.12352200 13641.54706957 0 95.23428372 0 4318.21775160 0 -258.13685912 0 -275.18491765 0 16407
0.12450000 0.12449800 13621.83833139 0 60.55664817 0 4503.03699747 0 533.00067935 0 -688.16934659 0 16306
0.12550000 0.12549900 13912.81902762 0 -219.06926823 0 4180.38945225 0 696.80908165 0 -490.88709190 0 17523
0.12650000 0.12650100 13736.10472352 0 169.39992633 0 4050.25641866 0 749.46352232 0 -445.39423092 0 17154
0.12750000 0.12750600 13681.29671566 0 114.89197848 0 3729.42473472 0 516.93916497 0 -49.32831430 0 18007
0.12850000 0.12850300 13481.88414568 0 196.50165579 0 3633.60483574 0 381.04741524 0 -306.13870891 0 17496
0.12950000 0.12949900 13237.51793693 0 386.82827603 0 3912.99280788 0 -776.52649865 0 189.11530790 0 18405
0.13050000 0.13049000 13022.05049596 0 513.68390147 0 4136.01157438 0 -345.99797103 0 214.20519594 0 18100
0.13150000 0.13148800 12438.87114776 0 424.55722285 0 4655.94580322 0 -531.75836451 0 546.86544449 0 19059
0.13250000 0.13249300 12317.73991425 0 351.10563446 0 4732.54414631 0 11.06550427 0 412.56146614 0 18957
0.13350000 0.13349100 12009.59711454 0 140.89311885 0 4762.24012147 0 224.91656297 0 657.07936574 0 19468
0.13450000 0.13450700 12081.01360962 0 77.42090611 0 4655.02680026 0 455.90408164 0 409.21540958 0 19953
0.13550000 0.13551000 12001.62504068 0 -30.59150479 0 4636.24813736 0 628.31125139 0 933.43462812 0 19956
0.13650000 0.13649900 11964.97564553 0 61.12576567 0 4326.48877824 0 465.70308910 0 113.27874075 0 19723
0.13750000 0.13749600 11769.21694273 0 253.56952514 0 4084.30381748 0 394.33752672 0 449.55631782 0 20946
0.13850000 0.13851100 11903.74568928 0 118.57574095 0 3644.04603804 0 -145.00759475 0 -23.02788899 0 20955
0.13950000 0.13949800 11537.14101453 0 249.69642592 0 3919.43690093 0 -159.39054469 0 -263.11719083 0 20506
0.14050000 0.14048300 11345.14690218 0 550.32111707 0 4109.94732176 0 -642.05532819 0 -18.74987485 0 21447
0.14150000 0.14148400 10929.41432221 0 215.76085758 0 4121.58433514 0 -95.25255306 0 138.66536710 0 21771
0.14250000 0.14249400 11103.88094438 0 -115.08131524 0 4263.04435703 0 580.36144153 0 12.44850407 0 22470
0.14350000 0.14350900 10956.61902429 0 107.40287942 0 4208.08133663 0 577.06963936 0 260.57166335 0 22519
0.14450000 0.14449900 10949.13413271 0 272.27732515 0 4212.74278537 0 585.18011729 0 125.92112123 0 22218
0.14550000 0.14550500 10591.75270454 0 368.58551366 0 3771.73208785 0 220.83308958 0 942.48293196 0 23559
0.14650000 0.14650700 10305.40024008 0 153.05053150 0 3619.11116255 0 485.10623112 0 1569.04807773 0 23044
0.14750000 0.14750500 10371.62381482 0 -215.22274259 0 3292.45543575 0 764.60603375 0 1323.62999812 0 23649
0.14850000 0.14849900 10328.77391777 0 27.93636130 0 3183.19373444 0 537.30892094 0 1482.32962975 0 23640
0.14950000 0.14949500 10229.20050068 0 211.94976338 0 3023.42008730 0 52.43221912 0 1192.78833574 0 24457
0.15050000 0.15050000 10051.73327849 0 169.75091903 0 3022.82218176 0 78.63642592 0 1332.64287052 0 24591
0.15150000 0.15149900 10018.39450846 0 -47.48167197 0 3031.24822095 0 -218.69059473 0 1206.20799342 0 25020
0.15250000 0.15250500 10103.03135937 0 -55.38277223 0 3522.06223551 0 -17.75602297 0 1169.06034365 0 25297
0.15350000 0.15350100 10243.90454804 0 -24.74144198 0 3299.07668599 0 -284.26976016 0 929.95791812 0 25452
0.15450000 0.15450400 10122.59615733 0 195.25601925 0 3415.14786706 0 -65.57473651 0 1057.21104003 0 26061
0.15550000 0.15549900 9877.17807772 0 311.05925006 0 3081.11797193 0 -103.58857424 0 813.31651232 0 26128
0.15650000 0.15649500 9736.52633555 0 174.42122564 0 3263.04734103 0 80.08335733 0 349.82013755 0 26331
0.15750000 0.15749700 9490.64321830 0 173.28741957 0 2978.02355555 0 292.46328053 0 368.09611690 0 27345
0.15850000 0.15849900 9394.44686028 0 194.10228300 0 2891.21652897 0 150.75191687 0 62.76989518 0 26980
0.15950000 0.15949700 9169.34649672 0 182.74982836 0 2818.39384864 0 -3.81564493 0 19.50046775 0 27777
0.16050000 0.16050000 9051.73626249 0 252.00057671 0 2655.53102288 0 5.12514664 0 142.00588750 0 28224
0.16150000 0.16150500 8872.51961298 0 84.40178546 0 2409.99114770 0 82.12011148 0 207.43557655 0 28075
0.16250000 0.16249700 8814.29025676 0 -62.67013354 0 2499.85413593 0 331.94497637 0 209.51053022 0 28590
0.16350000 0.16349900 9135.78628019 0 -106.15237105 0 2529.78262991 0 21.64329477 0 -167.83097790 0 29163
0.16450000 0.16449100 8966.82260346 0 93.76365754 0 2334.48896476 0 330.12136447 0 -160.53763755 0 28996
0.16550000 0.16550500 8870.80340263 0 242.25028747 0 2299.10181464 0 -157.03767567 0 -90.23723281 0 30777
0.16650000 0.16650700 8760.36803489 0 74.45263727 0 2329.04138095 0 -80.89285500 0 51.03234509 0 29211
0.16750000 0.16749900 8631.35330610 0 100.74907654 0 2470.12494379 0 173.92518548 0 28.73323652 0 30922
0.16850000 0.16850800 8767.26609325 0 64.53914197 0 2347.13355971 0 173.93072165 0 275.44511728 0 30867
0.16950000 0.16949900 8564.97471881 0 69.83204540 0 2420.13339724 0 245.18888248 0 707.47173045 0 30852
0.17050000 0.17049200 8664.53706358 0 104.29443495 0 2363.95242111 0 297.73259991 0 846.91658922 0 31257
0.17150000 0.17149500 8570.12334985 0 118.85697800 0 2515.46611392 0 155.76768001 0 967.48534863 0 32608
0.17250000 0.17250900 8328.69130718 0 230.58670051 0 2317.26042735 0 185.60427370 0 920.97604823 0 32361
0.17350000 0.17350400 8249.49096776 0 157.41413471 0 2421.73888433 0 8.16893980 0 1081.54579552 0 32508
0.17450000 0.17449800 8063.81915287 0 136.64356059 0 2266.09521436 0 -4.88338243 0 949.23594286 0 32791
0.17550000 0.17549800 7979.06050639 0 52.41616424 0 2229.60083176 0 226.80550159 0 750.18654514 0 33633
0.17650000 0.17650100 7879.64210184 0 45.77177284 0 1886.49163028 0 -118.56356139 0 524.00884437 0 33984
0.17750000 0.17750300 7856.96598061 0 85.49517753 0 1973.99621332 0 96.04987117 0 269.92999229 0 34069
0.17850000 0.17849800 7842.89305577 0 40.71249547 0 1734.32467029 0 24.50681941 0 227.21407037 0 34536
