### header ###
fiducial parameters:
Omega_m = 0.31
Omega_nu = 0
Omega_de = 0.69
Omega_k = 0
H_0 = 100
w_de = -1
zeff = 0
beta = 0
fgrowth = 0
b_1 = 2
gamma = 0.55
Lx = 3500 Ly = 3500 Lz = 3500
nx = 700 ny = 700 nz = 700
xoffset = -685.467585 yoffset = -31.7331281 zoffset = 572.489161
bins = 400 dk = 0.001
kx_ny = 0.628318531 ky_ny = 0.628318531 kz_ny = 0.628318531
############################
A(data) = 8.05444142 (not used)
A(ran) = 8.05506312 (used)
Ngal = 478372
weighted Ngal = 0
Nran = 23820508
weighted Nran = 0
SN(data) = 3485.32216
SN(ran) = 70.1625211
SN(data+ran) = 3555.48469
############################
13 columns: k_central k_mean P_0(k) sigma^{lin}_{P_0(k)} P^img_1(k) sigma^{lin}_{P_1(k)} P_2(k) sigma^{lin}_{P_2(k)} P^img_3(k) sigma^{lin}_{P_3(k)} P_4(k) sigma^{lin}_{P_4(k)} N_modes
### header ###
0.00050000 0 0 0 0 0 0 0 0 0 0 0 0
0.00150000 0.00179520 25702.96266426 0 -35309.31167692 0 -14056.20563402 0 54245.42302826 0 -79108.54985503 0 3
0.00250000 0.00253879 44384.85343777 0 -33988.60477255 0 -6488.11660793 0 9565.41462780 0 79291.57538428 0 6
0.00350000 0.00331552 54813.54401471 0 -22630.94614333 0 -11912.38210264 0 -31404.10271338 0 18594.97302368 0 7
0.00450000 0.00420575 59712.27268422 0 -4785.18197850 0 -22770.56815929 0 -20567.61841337 0 783.28393848 0 24
0.00550000 0.00557378 61104.06391393 0 3780.68959863 0 -19756.68134366 0 -27276.67219074 0 -1075.82361805 0 45
0.00650000 0.00659388 56738.35696118 0 5732.55223463 0 -13775.85436962 0 -33418.49076764 0 -5883.93305955 0 40
0.00750000 0.00754703 43144.97450458 0 -4309.31560244 0 -21880.35324387 0 -18778.55216918 0 -12316.18978877 0 57
0.00850000 0.00846663 50521.35729876 0 1036.99518938 0 -18725.40501005 0 -16188.73539409 0 -27843.02160521 0 75
0.00950000 0.00948925 66057.48986804 0 -10497.09539967 0 -15743.07432014 0 -38074.73552362 0 -41753.40472137 0 112
0.01050000 0.01054430 61961.61547113 0 -11026.29716438 0 -6306.25367278 0 -24223.14645225 0 -25850.66747734 0 105
0.01150000 0.01145670 86873.46052710 0 -14609.93259820 0 -2273.54688896 0 -23122.11447228 0 -40572.43055621 0 144
0.01250000 0.01249090 88616.68734655 0 -12600.19492037 0 867.97836549 0 -18510.60190856 0 -30833.54581548 0 169
0.01350000 0.01339930 99375.66537283 0 2812.69160136 0 31852.97476153 0 3112.34192792 0 -49121.48327194 0 180
0.01450000 0.01448870 105843.45319239 0 1107.86360438 0 16115.99022004 0 -6370.98248367 0 -5160.73309170 0 267
0.01550000 0.01550050 102216.71319804 0 13376.14344366 0 29685.23500854 0 -330.69269643 0 2726.92537331 0 238
0.01650000 0.01653350 86543.83741725 0 15334.06264134 0 29240.57044382 0 -690.94850012 0 4205.75614841 0 315
0.01750000 0.01747870 73545.92458939 0 15474.23827355 0 49243.38956819 0 8480.54824207 0 -1278.12274312 0 297
0.01850000 0.01844180 66261.66353770 0 5884.91849646 0 46769.94292695 0 6525.09817283 0 4732.78773746 0 388
0.01950000 0.01947590 64707.55202615 0 -572.64070944 0 55174.39108055 0 1022.94551642 0 355.60653450 0 399
0.02050000 0.02045430 66167.88094649 0 -1144.28048071 0 55981.89572957 0 3589.44840436 0 2311.30351659 0 462
0.02150000 0.02154770 70082.94427911 0 170.10412619 0 58348.16226657 0 3459.97971025 0 4728.94564074 0 571
0.02250000 0.02255340 71679.35207146 0 997.00195213 0 46750.23418878 0 9114.68242909 0 630.02635451 0 510
0.02350000 0.02348930 73360.13097893 0 -6383.98139301 0 51363.40760122 0 5393.06368337 0 2947.43072207 0 555
0.02450000 0.02439640 79266.88409994 0 -5754.71902892 0 41829.36086963 0 15800.98257895 0 1579.31212283 0 592
0.02550000 0.02547300 78435.35250606 0 2991.44321323 0 40755.34536222 0 1601.25747062 0 -1066.76424188 0 837
0.02650000 0.02652900 78725.44741631 0 7492.29896271 0 41213.18599347 0 -2542.22792301 0 2028.58277467 0 723
0.02750000 0.02749970 70329.41422957 0 4973.54436831 0 40385.97260627 0 -4246.93412441 0 -221.50407246 0 826
0.02850000 0.02848090 67982.85643076 0 3108.07908287 0 37999.11154511 0 4070.97273840 0 -6993.84504402 0 831
0.02950000 0.02946900 64029.26140776 0 -563.78174235 0 26353.46174736 0 6705.52170575 0 -7527.54217261 0 996
0.03050000 0.03053250 63349.97428014 0 1091.62382557 0 22863.24351802 0 10449.60619852 0 -17428.83577378 0 1041
0.03150000 0.03150510 61253.20812923 0 -804.92701181 0 10910.07097075 0 15831.76364194 0 -17714.83392385 0 1036
0.03250000 0.03246190 62518.77485600 0 82.14280975 0 3743.36479166 0 6364.39445041 0 -28218.15197006 0 1059
0.03350000 0.03345080 55497.59224200 0 3498.06850763 0 123.50181826 0 -852.70741510 0 -14146.55580454 0 1302
0.03450000 0.03451200 56457.23063404 0 3969.09627774 0 1901.68285993 0 -2154.76298831 0 -15132.43560640 0 1339
0.03550000 0.03553350 52524.78375145 0 3401.73928171 0 3765.64230920 0 -4102.98282945 0 -2127.72437110 0 1365
0.03650000 0.03647120 52279.64247996 0 2221.52910696 0 12607.94554774 0 -2834.40443033 0 -2214.54247000 0 1308
0.03750000 0.03744890 50335.67441155 0 3435.19984731 0 20905.54576684 0 1589.07791332 0 3830.09431197 0 1579
0.03850000 0.03847530 49352.67341415 0 2131.06821320 0 20386.25373284 0 4038.48653738 0 12865.59854627 0 1662
0.03950000 0.03950240 48693.31647120 0 321.05866660 0 25970.80220162 0 4056.03617222 0 15162.99522290 0 1683
0.04050000 0.04050350 49152.15361169 0 -1474.19147100 0 25071.84014960 0 4454.85023986 0 12931.92177194 0 1822
0.04150000 0.04152450 49125.02641588 0 355.67961185 0 22029.16528943 0 3582.76072017 0 10585.75150449 0 1887
0.04250000 0.04250150 46641.94685205 0 2388.03472759 0 20575.70121049 0 -128.80546185 0 10774.25783453 0 1920
0.04350000 0.04349210 47138.09772717 0 1888.81681849 0 19248.90452747 0 1999.65078992 0 7447.48926417 0 2005
0.04450000 0.04448520 43496.07792458 0 1920.53902909 0 18112.99472433 0 -1639.61200379 0 2882.44724771 0 2151
0.04550000 0.04548030 40790.11246215 0 3517.04647237 0 13477.45521575 0 1602.08789498 0 -1415.40849854 0 2274
0.04650000 0.04648670 39442.72125497 0 -117.94794013 0 11711.75157692 0 470.98790974 0 -3116.83729180 0 2311
0.04750000 0.04749250 40325.07481977 0 -949.08425201 0 10959.90750476 0 1035.06749763 0 -2406.02725542 0 2568
0.04850000 0.04851840 40632.66400323 0 754.58336532 0 9826.62184260 0 2774.85746745 0 -4578.33987856 0 2493
0.04950000 0.04949480 38763.21268085 0 1471.24623260 0 6453.07269988 0 604.84678064 0 -4737.69277735 0 2644
0.05050000 0.05050630 38368.37357781 0 1534.04845897 0 6181.21390861 0 3696.09703701 0 -1666.32952358 0 2829
0.05150000 0.05149060 36080.72054703 0 87.96231295 0 6591.34389222 0 1200.78255426 0 -640.32804552 0 2784
0.05250000 0.05249300 37245.86128770 0 -860.90979332 0 3440.34847835 0 5132.16649367 0 -453.93652952 0 3055
0.05350000 0.05348950 37231.46726544 0 -1178.64897694 0 4910.48747847 0 -444.75203608 0 -1755.12956863 0 3009
0.05450000 0.05448610 37691.74380815 0 2094.86171104 0 4051.19756627 0 -1417.58974653 0 -918.46484496 0 3336
0.05550000 0.05550870 35883.74388851 0 1808.99642887 0 5873.17075983 0 -3677.91627966 0 3556.99542031 0 3349
0.05650000 0.05647670 34790.01964292 0 1302.40435144 0 6542.97997741 0 -984.95304826 0 3108.52197586 0 3324
0.05750000 0.05747970 34580.30981086 0 461.99828922 0 8720.02048325 0 1289.27257421 0 176.41756580 0 3639
0.05850000 0.05849280 33323.49022069 0 744.85079181 0 9305.20392224 0 1417.42366166 0 1217.03672709 0 3846
0.05950000 0.05951020 33197.59788751 0 1298.03078314 0 9156.51367225 0 334.98543676 0 1832.04900914 0 3787
0.06050000 0.06049470 31814.00017817 0 799.89353294 0 10291.13908572 0 1012.50320688 0 5907.56140072 0 3930
0.06150000 0.06148310 31935.46358143 0 -136.37339586 0 9798.37634199 0 341.14497106 0 2103.39847347 0 4083
0.06250000 0.06249100 31960.59775877 0 407.03637605 0 11194.34183815 0 49.08472315 0 4652.72375669 0 4303
0.06350000 0.06350600 32207.17843248 0 247.17415032 0 10908.65371318 0 -961.22948511 0 4676.23030228 0 4470
0.06450000 0.06451750 31424.47579105 0 497.78847196 0 11914.37512110 0 -1061.96660354 0 3040.85899889 0 4479
0.06550000 0.06550280 31681.46445009 0 603.41623627 0 12341.76685910 0 628.25810423 0 2834.92482959 0 4636
0.06650000 0.06648880 30985.56883524 0 225.49675279 0 10725.73890717 0 32.13166518 0 1954.61964489 0 4653
0.06750000 0.06749660 30797.11786682 0 349.70830707 0 12156.52686489 0 728.22126716 0 1638.63763921 0 5220
0.06850000 0.06852730 30069.22323325 0 1072.91270386 0 10238.24659006 0 1982.45546948 0 -170.19713372 0 5029
0.06950000 0.06949320 29778.35326026 0 647.57156041 0 10649.92669914 0 1000.62260235 0 1033.75764160 0 5040
0.07050000 0.07048030 28449.56355877 0 550.30229411 0 9637.51760702 0 524.55581721 0 384.93269402 0 5475
0.07150000 0.07148790 28636.90729471 0 428.45911011 0 9885.30516414 0 1173.66643078 0 678.90734688 0 5509
0.07250000 0.07249820 27884.21065353 0 463.87615551 0 9808.85076127 0 630.75712794 0 82.56599400 0 5916
0.07350000 0.07351270 27008.61120688 0 469.14547489 0 9323.46218587 0 -223.80268709 0 911.73730040 0 5721
0.07450000 0.07449140 27759.75772257 0 616.02097084 0 10365.37902363 0 -959.59631720 0 -445.41416111 0 6028
0.07550000 0.07549160 25927.84158133 0 974.98241977 0 9495.63683680 0 267.65352231 0 693.48849144 0 6183
0.07650000 0.07648840 26310.94402005 0 657.28641821 0 9539.58289400 0 926.76465965 0 464.50174186 0 6330
0.07750000 0.07749960 25187.32449746 0 329.31862092 0 9779.87448722 0 995.46511345 0 282.03093608 0 6583
0.07850000 0.07848650 24919.48496009 0 846.12270353 0 9893.22187638 0 1039.19526032 0 -321.04205812 0 6549
0.07950000 0.07947320 24009.33986000 0 915.74216029 0 9251.60279779 0 -1006.13329841 0 1351.93086036 0 6828
0.08050000 0.08048110 23817.89936389 0 173.09143942 0 10790.50093504 0 239.74129867 0 1640.74138093 0 7147
0.08150000 0.08149960 23539.09822495 0 121.22313381 0 9668.33188699 0 482.14881316 0 3410.61928621 0 7386
0.08250000 0.08250610 24036.57777905 0 -313.02237325 0 9299.93349563 0 2101.59368453 0 3423.49639998 0 7227
0.08350000 0.08350160 24270.42527922 0 -805.50166546 0 8283.85946399 0 2455.48733038 0 3678.56954682 0 7798
0.08450000 0.08449610 24922.58521104 0 -195.83399460 0 8280.93637024 0 1930.73664025 0 2050.81600291 0 7371
0.08550000 0.08548940 24466.62687501 0 481.63284282 0 6588.56473869 0 1026.17752803 0 3303.99279821 0 8256
0.08650000 0.08650700 23445.64780348 0 1460.82717495 0 6404.43197695 0 -401.43599416 0 2608.56222100 0 8037
0.08750000 0.08749060 22898.12134120 0 986.07910370 0 6784.79955145 0 -240.85185285 0 2857.46808292 0 8155
0.08850000 0.08849210 21854.66545029 0 142.38013208 0 6792.99307181 0 -435.76463003 0 1885.57262732 0 8718
0.08950000 0.08949900 21651.82045961 0 695.89229315 0 6677.76338742 0 -634.82177838 0 730.70146792 0 8571
0.09050000 0.09049190 20864.57816501 0 818.17726292 0 7145.04871175 0 -1291.95207681 0 -44.19773115 0 8932
0.09150000 0.09150830 20622.20497473 0 429.60177403 0 7775.76155039 0 -4.15721508 0 -239.29397675 0 9285
0.09250000 0.09250820 20128.93290406 0 606.62610323 0 8685.74056561 0 -812.28900058 0 -780.37745322 0 9204
0.09350000 0.09350330 19694.78704792 0 870.82948913 0 8135.25779260 0 516.17296009 0 -1842.87774282 0 9349
0.09450000 0.09448040 19153.57181078 0 652.13667994 0 9398.57683744 0 -50.28263798 0 393.93227963 0 9564
0.09550000 0.09549270 18856.39061265 0 223.40408340 0 7948.84413196 0 1238.93778558 0 395.74481920 0 10155
0.09650000 0.09649430 18586.89022657 0 -242.50827264 0 8279.66305289 0 1425.82755620 0 849.69795721 0 9913
0.09750000 0.09749140 18591.31915649 0 177.41850396 0 7541.46008490 0 1666.72812728 0 655.32108055 0 10476
0.09850000 0.09850240 18311.30006183 0 434.87220065 0 6787.52334335 0 1157.65584909 0 1278.52134681 0 10575
0.09950000 0.09950330 17431.27168524 0 786.93337674 0 6172.00173436 0 1032.93164617 0 2002.18635231 0 10882
0.10050000 0.10051200 16925.04499453 0 116.26826846 0 5156.53668059 0 1494.06629405 0 2475.60574458 0 10875
0.10150000 0.10150300 17145.93787467 0 -226.72245915 0 5055.41313802 0 943.90794016 0 1338.06830968 0 11118
0.10250000 0.10250800 17302.94344059 0 -281.78955940 0 4070.88415980 0 48.70051348 0 606.46223283 0 11575
0.10350000 0.10349800 16975.75624220 0 478.86365438 0 4996.64123788 0 -1084.42681444 0 623.72398722 0 11364
0.10450000 0.10450100 16820.63297149 0 896.70329776 0 5248.71378471 0 -1593.37397535 0 441.94077281 0 12093
0.10550000 0.10551000 16159.83662632 0 629.24021944 0 6210.22339963 0 -1122.82231521 0 308.12065505 0 12067
0.10650000 0.10649700 15808.17959008 0 400.72736537 0 6116.81726746 0 -26.10411299 0 -111.70757786 0 12054
0.10750000 0.10749900 15501.58691585 0 -65.42869254 0 6694.75940602 0 279.86851105 0 66.05250732 0 12807
0.10850000 0.10850100 15962.63852130 0 -57.20284099 0 6555.11524541 0 1183.75331869 0 -743.59961910 0 12736
0.10950000 0.10950300 15869.63099282 0 96.33498353 0 5975.42367953 0 926.73808607 0 408.26208241 0 12933
0.11050000 0.11050200 15885.24297082 0 150.41974713 0 5795.46518425 0 941.01141999 0 1306.65612417 0 13428
0.11150000 0.11150900 15688.59848204 0 77.24950652 0 5616.83536795 0 136.45311660 0 1646.89759353 0 13453
0.11250000 0.11250000 15746.94963383 0 84.11279778 0 5850.33962605 0 571.01307769 0 1887.29990999 0 13668
0.11350000 0.11349100 15557.61287943 0 372.61362542 0 5703.33236944 0 105.16449823 0 1644.84921343 0 13791
0.11450000 0.11448600 15089.14281635 0 366.94570235 0 5257.13982389 0 82.47520094 0 2111.44805362 0 14205
0.11550000 0.11549300 14727.74213427 0 194.30601378 0 5177.90626749 0 648.31672787 0 1898.19507761 0 14776
0.11650000 0.11649800 14612.47923291 0 245.00397466 0 5154.06755216 0 220.89288013 0 1706.40026710 0 14553
0.11750000 0.11747300 14591.22036926 0 110.47057773 0 4778.04032899 0 431.72876763 0 1668.14538485 0 14568
0.11850000 0.11849100 14518.91808819 0 -51.72480828 0 4350.61537402 0 890.16287549 0 1896.83318166 0 16015
0.11950000 0.11950300 14474.62878892 0 44.03098194 0 4171.75303890 0 42.07029466 0 2046.70817040 0 15270
0.12050000 0.12050700 14400.99782888 0 20.58854511 0 4195.94606862 0 506.97075094 0 1699.53542571 0 15999
0.12150000 0.12150000 14204.24261685 0 332.69900169 0 3817.02896868 0 284.94517198 0 1733.56067988 0 15670
0.12250000 0.12250700 13763.78553556 0 424.37231502 0 3646.93591482 0 641.21272427 0 1734.81185259 0 16887
0.12350000 0.12352200 13561.71560762 0 349.93418250 0 3428.98827309 0 380.67981405 0 1865.14418803 0 16407
0.12450000 0.12449800 13191.23561919 0 137.65114215 0 3016.03484665 0 504.68099416 0 1554.96408056 0 16306
0.12550000 0.12549900 13170.97326477 0 -75.48302782 0 2936.40268655 0 143.89925504 0 1421.36540929 0 17523
0.12650000 0.12650100 13235.19274872 0 -9.26990535 0 2999.80281847 0 -689.17249922 0 870.04889023 0 17154
0.12750000 0.12750600 13127.79119798 0 211.85564862 0 3530.70972120 0 -672.38353310 0 476.87285038 0 18007
0.12850000 0.12850300 12928.60007449 0 405.53939774 0 3866.89871966 0 -638.55868801 0 868.33267988 0 17496
0.12950000 0.12949900 12725.97653031 0 423.27061870 0 3905.86223070 0 -103.90446767 0 603.60003686 0 18405
0.13050000 0.13049000 12186.42214190 0 412.27469292 0 3971.56540617 0 255.02553585 0 846.63978110 0 18100
0.13150000 0.13148800 12193.95132278 0 69.73560545 0 3622.89789764 0 674.15289061 0 426.60228124 0 19059
0.13250000 0.13249300 12029.19512947 0 25.35418443 0 3676.05612909 0 172.28426695 0 229.92789718 0 18957
0.13350000 0.13349100 11869.31075909 0 290.12037660 0 3340.49825314 0 55.79433055 0 54.27155371 0 19468
0.13450000 0.13450700 11782.50373251 0 336.57431537 0 3522.16188644 0 -41.79359726 0 415.01177162 0 19953
0.13550000 0.13551000 11521.63975979 0 109.15374614 0 3515.57385317 0 -63.70129915 0 1154.95420183 0 19956
0.13650000 0.13649900 11648.63932546 0 24.52984985 0 3541.88169694 0 190.30890452 0 673.28814204 0 19723
0.13750000 0.13749600 11609.00040261 0 81.94073982 0 3562.31013623 0 264.72378516 0 1423.28092149 0 20946
0.13850000 0.13851100 11539.46620275 0 150.50278956 0 3877.93782751 0 220.12999695 0 1344.73384922 0 20955
0.13950000 0.13949800 11297.86807520 0 32.24205626 0 3361.79033376 0 297.09594123 0 1692.77023525 0 20506
0.14050000 0.14048300 11369.61674003 0 9.18023059 0 3515.54063619 0 458.70427259 0 1024.56096861 0 21447
0.14150000 0.14148400 11297.31445896 0 1.95686733 0 3203.29000398 0 -104.15747029 0 1107.01435707 0 21771
0.14250000 0.14249400 11233.98076100 0 294.55262822 0 2880.32136135 0 -332.67132087 0 698.46328698 0 22470
0.14350000 0.14350900 10975.08766209 0 211.92540426 0 3223.27555028 0 -248.46850509 0 568.28042792 0 22519
0.14450000 0.14449900 10694.08313052 0 214.61930089 0 3229.94108982 0 258.42363234 0 671.13678932 0 22218
0.14550000 0.14550500 10763.18550971 0 76.16508303 0 2867.07886087 0 645.62615294 0 371.03249744 0 23559
0.14650000 0.14650700 10545.94649677 0 -70.17041565 0 2609.74695975 0 837.86828537 0 982.57471289 0 23044
0.14750000 0.14750500 10799.92348346 0 -24.27142179 0 2624.88282778 0 443.27166625 0 481.69816954 0 23649
0.14850000 0.14849900 10579.27419447 0 269.51699457 0 2540.52278499 0 148.22853404 0 1541.34512103 0 23640
0.14950000 0.14949500 10418.54832740 0 391.28156507 0 2677.34350277 0 -380.02322519 0 1189.68808479 0 24457
0.15050000 0.15050000 10061.23333318 0 281.57364907 0 2854.64464009 0 -76.46846473 0 1885.90479706 0 24591
0.15150000 0.15149900 9983.54990225 0 98.36365488 0 3118.59779145 0 -163.49837720 0 1344.89993410 0 25020
0.15250000 0.15250500 9865.99502965 0 178.70178641 0 3307.41414658 0 -206.14343624 0 1314.31817295 0 25297
0.15350000 0.15350100 9834.73785669 0 108.86741582 0 3178.45477942 0 -225.13025884 0 953.27180526 0 25452
0.15450000 0.15450400 9724.60144172 0 19.24259330 0 3132.90323511 0 -110.79632553 0 1259.22228465 0 26061
0.15550000 0.15549900 9868.75203853 0 26.60845739 0 3297.90301956 0 195.63912169 0 539.21003911 0 26128
0.15650000 0.15649500 9778.21363849 0 58.71819936 0 3049.27396576 0 196.65556110 0 242.02994821 0 26331
0.15750000 0.15749700 9574.61572973 0 159.80907857 0 3159.23322353 0 -236.00881797 0 -80.25719283 0 27345
0.15850000 0.15849900 9516.46387978 0 244.04621856 0 2925.46322963 0 204.65974472 0 144.98655734 0 26980
0.15950000 0.15949700 9241.77057335 0 148.25067869 0 2973.29567285 0 138.52585581 0 374.62768131 0 27777
0.16050000 0.16050000 9315.37938875 0 14.77269577 0 2880.52066319 0 379.19501530 0 87.78271984 0 28224
0.16150000 0.16150500 9211.25524615 0 42.52824601 0 2811.76152607 0 206.27630414 0 76.33913997 0 28075
0.16250000 0.16249700 9190.89324081 0 182.44755390 0 2759.79910570 0 67.88597359 0 394.64865905 0 28590
0.16350000 0.16349900 8995.74351588 0 270.37288528 0 2845.78678024 0 -184.98643798 0 422.62731663 0 29163
0.16450000 0.16449100 8819.35030920 0 169.64794641 0 2667.97631598 0 68.44833697 0 688.31217958 0 28996
0.16550000 0.16550500 8727.46108553 0 55.96041542 0 2845.18887470 0 203.85146500 0 496.27377793 0 30777
0.16650000 0.16650700 8812.09793644 0 -83.68330230 0 2621.26217757 0 328.50369781 0 493.53337754 0 29211
0.16750000 0.16749900 8705.99184770 0 -52.41826799 0 2492.20315948 0 582.00236007 0 256.35864376 0 30922
0.16850000 0.16850800 8722.09100799 0 152.96970353 0 2263.08354201 0 197.64874864 0 596.16607798 0 30867
0.16950000 0.16949900 8729.36552540 0 85.25081132 0 2020.63284545 0 197.13942170 0 385.36783638 0 30852
0.17050000 0.17049200 8507.50935301 0 106.53392337 0 2287.14370384 0 9.61171909 0 926.30405093 0 31257
0.17150000 0.17149500 8497.79892414 0 90.61967091 0 2125.63170171 0 92.85960222 0 724.79438263 0 32608
0.17250000 0.17250900 8560.35755936 0 -3.46195058 0 2299.31218881 0 -10.26400082 0 420.51914598 0 32361
0.17350000 0.17350400 8444.58533106 0 102.39220955 0 2215.78257038 0 -149.55610579 0 811.40432183 0 32508
0.17450000 0.17449800 8413.20636253 0 233.20751980 0 2292.90131274 0 -211.63752382 0 510.68883761 0 32791
0.17550000 0.17549800 8203.99478508 0 149.16303826 0 2242.94298316 0 2.33020398 0 635.91904577 0 33633
0.17650000 0.17650100 8061.43860304 0 208.11763176 0 2255.57650578 0 33.76018271 0 423.18536180 0 33984
0.17750000 0.17750300 7956.40652981 0 173.03939950 0 2335.50761865 0 107.05410119 0 509.91488211 0 34069
0.17850000 0.17849800 7743.36392797 0 207.87625508 0 2185.02365204 0 134.52763931 0 338.30381251 0 34536
