### header ###
fiducial parameters:
Omega_m = 0.31
Omega_nu = 0
Omega_de = 0.69
Omega_k = 0
H_0 = 100
w_de = -1
zeff = 0
beta = 0
fgrowth = 0
b_1 = 2
gamma = 0.55
Lx = 3500 Ly = 3500 Lz = 3500
nx = 700 ny = 700 nz = 700
xoffset = -685.467585 yoffset = -31.7331281 zoffset = 572.489161
bins = 400 dk = 0.001
kx_ny = 0.628318531 ky_ny = 0.628318531 kz_ny = 0.628318531
############################
A(data) = 8.04097523 (not used)
A(ran) = 8.03699025 (used)
Ngal = 477558
weighted Ngal = 0
Nran = 23820508
weighted Nran = 0
SN(data) = 3491.46064
SN(ran) = 70.0050998
SN(data+ran) = 3561.46574
############################
13 columns: k_central k_mean P_0(k) sigma^{lin}_{P_0(k)} P^img_1(k) sigma^{lin}_{P_1(k)} P_2(k) sigma^{lin}_{P_2(k)} P^img_3(k) sigma^{lin}_{P_3(k)} P_4(k) sigma^{lin}_{P_4(k)} N_modes
### header ###
0.00050000 0 0 0 0 0 0 0 0 0 0 0 0
0.00150000 0.00179520 10813.83032343 0 -14629.41988988 0 -1004.50013050 0 1235.79324533 0 24633.92970302 0 3
0.00250000 0.00253879 13303.73043935 0 -5877.65505138 0 3967.36899507 0 -23796.19760724 0 -2737.34443097 0 6
0.00350000 0.00331552 18252.06312405 0 2402.39553288 0 2382.68679470 0 7489.39801361 0 19797.31677574 0 7
0.00450000 0.00420575 21364.82580032 0 -2029.55713926 0 9989.36287278 0 -15393.63174887 0 4359.71682502 0 24
0.00550000 0.00557378 31260.93755348 0 -11218.25805976 0 6104.56020389 0 2965.13536946 0 6143.52371493 0 45
0.00650000 0.00659388 50707.04018597 0 -16234.24264910 0 18484.24977550 0 1894.89552481 0 13442.35594608 0 40
0.00750000 0.00754703 55695.23324002 0 -10423.11012523 0 -2409.65897796 0 2999.04990038 0 -12523.46370938 0 57
0.00850000 0.00846663 65444.63668933 0 -3482.27937244 0 27348.42085556 0 -14106.36326545 0 -7837.89943727 0 75
0.00950000 0.00948925 67632.86024324 0 -861.36818757 0 -14580.70166068 0 15196.76581359 0 4376.05957645 0 112
0.01050000 0.01054430 68665.57597908 0 -1198.33557047 0 15032.00962029 0 2568.58005608 0 12981.30434063 0 105
0.01150000 0.01145670 68687.27773572 0 1985.91003482 0 5123.14254894 0 5462.35429208 0 -13427.40830757 0 144
0.01250000 0.01249090 72097.11088687 0 900.36380835 0 11247.71044377 0 -5276.09564398 0 -12769.15859710 0 169
0.01350000 0.01339930 58344.17622963 0 11069.36850792 0 10880.85110556 0 -36170.95999431 0 -12957.38811902 0 180
0.01450000 0.01448870 64210.84753479 0 9487.02256809 0 31269.68469008 0 -15316.01475189 0 -13776.18653936 0 267
0.01550000 0.01550050 54062.17605252 0 -5458.54541234 0 33265.80340839 0 -8082.96320248 0 -8663.66234992 0 238
0.01650000 0.01653350 70823.46136298 0 -9264.60170713 0 39738.02015788 0 6990.94409492 0 -27263.93901719 0 315
0.01750000 0.01747870 71547.14851313 0 -10120.51456026 0 26731.69236316 0 -81.17099180 0 -39946.06914122 0 297
0.01850000 0.01844180 77674.24089802 0 4382.71404367 0 39077.33453595 0 2908.58900661 0 -34611.97665984 0 388
0.01950000 0.01947590 77514.24580439 0 6993.44644033 0 28942.83562945 0 -3991.91633919 0 -20329.89559952 0 399
0.02050000 0.02045430 69150.21163639 0 4591.19484768 0 34287.88971240 0 -7692.70804193 0 -26614.87933632 0 462
0.02150000 0.02154770 65641.72407110 0 7830.59170289 0 36605.43802019 0 -4702.00667446 0 -24744.21005821 0 571
0.02250000 0.02255340 65378.09201717 0 906.62188634 0 45516.33431099 0 1066.47636144 0 -23019.80619096 0 510
0.02350000 0.02348930 57926.52813747 0 1797.92410405 0 40412.10329284 0 -548.61155011 0 -15985.77968017 0 555
0.02450000 0.02439640 63777.14457164 0 61.25298668 0 40703.08398907 0 13128.67698397 0 -7353.07555044 0 592
0.02550000 0.02547300 63834.72066070 0 -3027.68293236 0 36688.14828658 0 16977.52781417 0 -6063.52616811 0 837
0.02650000 0.02652900 67601.63628725 0 -4292.61853662 0 29914.98574852 0 17842.49782901 0 -604.44485524 0 723
0.02750000 0.02749970 67784.32964676 0 -1987.60410052 0 20481.91861928 0 15248.47357050 0 -6754.79355119 0 826
0.02850000 0.02848090 72869.18409648 0 268.20049515 0 18751.64641987 0 7780.73302423 0 -454.36392126 0 831
0.02950000 0.02946900 65010.15866345 0 7629.78401998 0 18557.65928904 0 160.18221592 0 2890.57433413 0 996
0.03050000 0.03053250 61523.70502455 0 3635.15496121 0 15571.45328546 0 -2208.25338951 0 1618.98426266 0 1041
0.03150000 0.03150510 59426.49598065 0 -2553.05665668 0 13479.78040396 0 518.33206343 0 -5464.81234819 0 1036
0.03250000 0.03246190 57822.44828418 0 -1925.96446825 0 13234.30696274 0 -1411.16779814 0 -8617.52397240 0 1059
0.03350000 0.03345080 62787.94307235 0 1137.65923047 0 14791.74017173 0 2424.97200318 0 -11585.30562749 0 1302
0.03450000 0.03451200 60084.30279813 0 1665.98628151 0 11605.90015166 0 495.02481969 0 -8666.33078020 0 1339
0.03550000 0.03553350 57485.96033294 0 3179.22984215 0 13375.70055067 0 2261.48912723 0 -6582.48603236 0 1365
0.03650000 0.03647120 54048.11420000 0 3530.84258909 0 14585.35203711 0 2002.05348441 0 -5222.02948189 0 1308
0.03750000 0.03744890 53052.82292205 0 4577.76411767 0 14334.45315672 0 1425.71683295 0 -2610.77668596 0 1579
0.03850000 0.03847530 49611.65509166 0 2600.33548366 0 16526.88419406 0 -2381.07023528 0 92.72241611 0 1662
0.03950000 0.03950240 48008.16101142 0 2241.92432928 0 18716.54715019 0 -890.21602265 0 6462.49524830 0 1683
0.04050000 0.04050350 46924.18041168 0 752.92030213 0 19506.11463301 0 857.05994598 0 8677.32559875 0 1822
0.04150000 0.04152450 47268.97260653 0 -458.63008801 0 20714.43744047 0 1614.05707811 0 3576.25019317 0 1887
0.04250000 0.04250150 45694.04512433 0 1862.70827657 0 20822.50333070 0 4129.74463853 0 4001.01779019 0 1920
0.04350000 0.04349210 45854.04021796 0 928.77760830 0 23045.38326129 0 416.26737325 0 4279.30960218 0 2005
0.04450000 0.04448520 42004.74649475 0 1739.19649321 0 22156.60774810 0 1626.57987748 0 4391.81549467 0 2151
0.04550000 0.04548030 42952.09460624 0 3382.51772582 0 22157.93642708 0 1629.75763471 0 3473.34400631 0 2274
0.04650000 0.04648670 40094.43829379 0 2440.63934280 0 21703.86038626 0 -1929.87299892 0 2328.43240309 0 2311
0.04750000 0.04749250 38104.07718439 0 1706.63278592 0 21800.41105868 0 -496.50961845 0 7745.08013832 0 2568
0.04850000 0.04851840 37232.57449792 0 996.20806644 0 22985.14981428 0 2134.11310252 0 5967.92771563 0 2493
0.04950000 0.04949480 37022.97538910 0 -996.57234593 0 20091.95133916 0 5846.54181864 0 3598.99274835 0 2644
0.05050000 0.05050630 37544.14971831 0 -1223.33687991 0 17880.36517989 0 4520.61984928 0 -374.55349673 0 2829
0.05150000 0.05149060 36611.52779884 0 273.00588412 0 14763.28429694 0 6531.42047030 0 630.39395569 0 2784
0.05250000 0.05249300 37678.12484862 0 35.02143123 0 12139.25403817 0 3030.69460471 0 1748.34223351 0 3055
0.05350000 0.05348950 37040.13749257 0 -545.54008721 0 10176.54052384 0 1027.01016686 0 130.93245545 0 3009
0.05450000 0.05448610 36362.62193692 0 552.16465915 0 9659.18614669 0 279.82532898 0 -244.18019369 0 3336
0.05550000 0.05550870 35312.41192787 0 2493.87508053 0 10899.71834705 0 952.44691706 0 1274.52423755 0 3349
0.05650000 0.05647670 34181.37394764 0 1306.10250793 0 9907.44981378 0 -124.19273133 0 828.22429046 0 3324
0.05750000 0.05747970 33472.41298951 0 -455.48554776 0 10525.71735932 0 872.30653726 0 2760.65167471 0 3639
0.05850000 0.05849280 35187.18393417 0 -1109.30300661 0 10967.84636166 0 -842.97262712 0 1116.15677567 0 3846
0.05950000 0.05951020 35212.42883476 0 19.91579065 0 11824.68929007 0 -944.22682312 0 1283.66997785 0 3787
0.06050000 0.06049470 35780.32837470 0 46.38374024 0 11952.57464173 0 -1733.22851014 0 1112.04894316 0 3930
0.06150000 0.06148310 36227.87174387 0 442.52096263 0 14532.42632447 0 -828.81776707 0 927.84310408 0 4083
0.06250000 0.06249100 36285.78000267 0 337.04821087 0 13042.31285038 0 949.74305534 0 -1048.18266637 0 4303
0.06350000 0.06350600 35730.39218977 0 819.23577717 0 13697.01941691 0 952.18007403 0 -1521.61423820 0 4470
0.06450000 0.06451750 35275.65180947 0 310.98727995 0 12527.78191606 0 2322.30940746 0 1182.66823085 0 4479
0.06550000 0.06550280 34857.67154757 0 807.13704784 0 11684.18148812 0 2275.47347348 0 53.39894380 0 4636
0.06650000 0.06648880 32820.47450418 0 1833.51055602 0 11375.59579543 0 2827.01918967 0 454.58758222 0 4653
0.06750000 0.06749660 31732.50786750 0 2106.97483439 0 9888.85938041 0 1996.92699802 0 2612.88042768 0 5220
0.06850000 0.06852730 29928.71543130 0 1199.15492251 0 9667.19143754 0 393.44620457 0 2107.49523366 0 5029
0.06950000 0.06949320 29353.95104996 0 -245.36493245 0 9466.73806902 0 -304.93403997 0 3091.78062073 0 5040
0.07050000 0.07048030 29479.06832041 0 -2.37960869 0 10802.03829750 0 -571.74606559 0 2573.25257715 0 5475
0.07150000 0.07148790 29031.63567449 0 1056.59652600 0 11790.14363664 0 -1661.42448369 0 2731.18821837 0 5509
0.07250000 0.07249820 28824.14030739 0 803.67473187 0 12335.34491071 0 -959.94620266 0 1728.12416840 0 5916
0.07350000 0.07351270 27856.97273448 0 927.58290445 0 12883.09281949 0 43.18328475 0 2718.99758874 0 5721
0.07450000 0.07449140 27377.09817684 0 1176.20199316 0 12655.44582122 0 1054.91353263 0 1927.13813469 0 6028
0.07550000 0.07549160 26941.51291847 0 719.15414037 0 13136.64905783 0 1636.46746355 0 969.75406799 0 6183
0.07650000 0.07648840 26514.01045723 0 -121.89190223 0 13266.74887445 0 732.33906476 0 1529.16556373 0 6330
0.07750000 0.07749960 26608.01449494 0 -774.89000904 0 11203.19969800 0 1773.39890458 0 1686.56973335 0 6583
0.07850000 0.07848650 26922.91141278 0 -542.91926793 0 10382.90651381 0 1896.52315656 0 2268.74149999 0 6549
0.07950000 0.07947320 27258.07068504 0 231.90098547 0 9601.89793808 0 2706.80695912 0 819.73735348 0 6828
0.08050000 0.08048110 26735.89984659 0 163.93019787 0 8311.11952770 0 1093.38321798 0 2007.25747707 0 7147
0.08150000 0.08149960 25795.63802299 0 1267.41580502 0 7487.32748887 0 148.30382585 0 18.25106661 0 7386
0.08250000 0.08250610 24744.76367446 0 1594.10474879 0 7347.77190685 0 -515.34032127 0 784.73219857 0 7227
0.08350000 0.08350160 23023.68150464 0 964.23894299 0 6372.64333240 0 931.92879194 0 1260.92742267 0 7798
0.08450000 0.08449610 22892.69590204 0 311.15004312 0 5920.85926282 0 919.07382283 0 1027.07327911 0 7371
0.08550000 0.08548940 22527.19845978 0 -463.29928739 0 4774.46396807 0 1956.51301243 0 618.99389006 0 8256
0.08650000 0.08650700 22743.55168673 0 -673.35125429 0 4629.29471738 0 673.20952853 0 -1335.57703660 0 8037
0.08750000 0.08749060 22966.10541559 0 978.06052607 0 5001.60163940 0 -651.05159210 0 -496.27488516 0 8155
0.08850000 0.08849210 22231.56738712 0 1309.01452936 0 6170.42946423 0 -1185.73526483 0 -345.60601073 0 8718
0.08950000 0.08949900 21222.98931939 0 888.44445068 0 6819.35627721 0 -1328.51289337 0 1577.75092503 0 8571
0.09050000 0.09049190 20760.16614197 0 684.41915018 0 7238.74272436 0 390.03482129 0 2590.39253597 0 8932
0.09150000 0.09150830 20647.11770557 0 164.97985426 0 8093.38226014 0 1018.62066634 0 2114.05004995 0 9285
0.09250000 0.09250820 20421.90661876 0 394.24341196 0 8033.15988545 0 684.23977852 0 1292.39496981 0 9204
0.09350000 0.09350330 19671.86733554 0 850.59038659 0 7963.85820441 0 168.87399090 0 2320.64855874 0 9349
0.09450000 0.09448040 18790.62100323 0 919.86549405 0 7684.01626694 0 -392.89037386 0 3652.63816210 0 9564
0.09550000 0.09549270 18607.81692047 0 258.80562754 0 7792.70220736 0 627.53508142 0 3292.99797966 0 10155
0.09650000 0.09649430 18662.51420508 0 -277.74926808 0 8278.58903738 0 941.68683180 0 1866.00782936 0 9913
0.09750000 0.09749140 18358.80033530 0 71.68865282 0 7089.07810979 0 705.11000357 0 1331.12596202 0 10476
0.09850000 0.09850240 18336.54496242 0 464.95017102 0 7011.68255931 0 -140.00511840 0 1865.29920057 0 10575
0.09950000 0.09950330 18010.02210351 0 -3.45112185 0 6401.22100275 0 213.53199859 0 545.38396743 0 10882
0.10050000 0.10051200 17966.17569723 0 239.46227609 0 6299.75421812 0 310.92195323 0 939.42475584 0 10875
0.10150000 0.10150300 17566.90766427 0 654.77078601 0 6120.99153392 0 -18.04467848 0 0.13507793 0 11118
0.10250000 0.10250800 16969.11284731 0 558.67186444 0 5627.12155771 0 -173.50111544 0 -1025.71249039 0 11575
0.10350000 0.10349800 16515.59042274 0 397.63154335 0 5685.74951762 0 579.92297747 0 -584.55453094 0 11364
0.10450000 0.10450100 16117.42962226 0 274.36224391 0 5240.96315733 0 393.04870811 0 -845.28231407 0 12093
0.10550000 0.10551000 15839.95716231 0 70.79600200 0 4604.06088912 0 1051.05039850 0 -875.54297780 0 12067
0.10650000 0.10649700 15921.11730323 0 -148.97813043 0 4011.95724711 0 1042.44055872 0 -1451.19425236 0 12054
0.10750000 0.10749900 15637.22289488 0 97.84093043 0 3736.98713257 0 -102.35124194 0 -1178.01785443 0 12807
0.10850000 0.10850100 15705.20696926 0 546.12581319 0 4124.29705472 0 47.74563619 0 -879.71060086 0 12736
0.10950000 0.10950300 15412.89759405 0 105.97045276 0 4140.96090358 0 -315.79931232 0 -301.30010297 0 12933
0.11050000 0.11050200 15227.32543009 0 164.45170437 0 3962.92899282 0 441.66617916 0 -281.68215785 0 13428
0.11150000 0.11150900 15200.86257377 0 340.53599319 0 4801.58009155 0 -40.68747201 0 -237.59658935 0 13453
0.11250000 0.11250000 14889.95169287 0 616.11287114 0 4584.95005648 0 456.56509943 0 358.73557350 0 13668
0.11350000 0.11349100 14934.57316189 0 72.44843575 0 4873.25125011 0 -530.67992007 0 330.66612285 0 13791
0.11450000 0.11448600 14342.75740033 0 88.92837329 0 5121.90244856 0 -346.85496897 0 905.45154160 0 14205
0.11550000 0.11549300 14672.15906368 0 320.10423220 0 5668.88636692 0 -74.96074625 0 811.17844640 0 14776
0.11650000 0.11649800 14322.82721566 0 12.53575399 0 5645.56805086 0 69.36578980 0 976.81378229 0 14553
0.11750000 0.11747300 14702.16506394 0 -88.60063248 0 5450.58441080 0 659.70461395 0 953.08800467 0 14568
0.11850000 0.11849100 14486.14400673 0 -243.72844284 0 5527.83602106 0 471.72643381 0 1541.09045756 0 16015
0.11950000 0.11950300 14820.30676976 0 62.84075806 0 5257.39448736 0 1044.32949734 0 1533.72736155 0 15270
0.12050000 0.12050700 14589.22735079 0 141.81322904 0 4874.42491654 0 785.85050338 0 1870.30389139 0 15999
0.12150000 0.12150000 14622.22287875 0 197.76390082 0 4340.12988241 0 764.03470179 0 2303.16535785 0 15670
0.12250000 0.12250700 14370.88110537 0 164.80491153 0 4171.66446030 0 139.78920807 0 1773.50962783 0 16887
0.12350000 0.12352200 14079.45751614 0 395.90758238 0 4407.39425569 0 -295.96988580 0 2227.60781329 0 16407
0.12450000 0.12449800 13921.78761072 0 399.73971400 0 4546.93876538 0 -314.39866323 0 1841.51584686 0 16306
0.12550000 0.12549900 13478.23027849 0 321.35540491 0 4642.73651971 0 -123.75316003 0 1964.38543538 0 17523
0.12650000 0.12650100 13310.15238774 0 189.38879433 0 4349.08739319 0 -116.62036838 0 1489.77023202 0 17154
0.12750000 0.12750600 13283.35736168 0 110.32840908 0 4794.79275644 0 -19.31744222 0 1107.77502578 0 18007
0.12850000 0.12850300 12914.53822197 0 427.62536405 0 4883.96926053 0 29.00362269 0 1172.52598132 0 17496
0.12950000 0.12949900 12877.44593383 0 279.87736891 0 4882.38591808 0 -60.62009260 0 1029.86904112 0 18405
0.13050000 0.13049000 12712.57901728 0 -2.35152927 0 4420.38209270 0 269.77940867 0 1412.72899594 0 18100
0.13150000 0.13148800 12747.89973345 0 -189.96234075 0 4716.72179414 0 400.58563961 0 959.12906509 0 19059
0.13250000 0.13249300 13037.66247396 0 -103.34110778 0 4088.68845811 0 344.42680813 0 552.97736779 0 18957
0.13350000 0.13349100 12778.90224294 0 220.56735378 0 4041.32105253 0 567.19423286 0 1042.21800499 0 19468
0.13450000 0.13450700 12679.02987308 0 186.46791504 0 3424.55934316 0 291.93955956 0 856.39117756 0 19953
0.13550000 0.13551000 12473.08463145 0 -19.23074591 0 3653.08105509 0 555.37784781 0 867.03611064 0 19956
0.13650000 0.13649900 12555.13055836 0 48.27234668 0 3429.76333582 0 185.62309665 0 109.43874778 0 19723
0.13750000 0.13749600 12256.62068125 0 300.81956407 0 3473.87547790 0 -260.36239641 0 276.54902807 0 20946
0.13850000 0.13851100 12111.90539587 0 522.11104789 0 3459.33751541 0 -384.04358633 0 458.97111562 0 20955
0.13950000 0.13949800 11586.74502972 0 475.07249037 0 3660.85382711 0 -19.16165461 0 760.70193202 0 20506
0.14050000 0.14048300 11443.46914657 0 62.23831287 0 3453.88993160 0 86.05588006 0 285.25076814 0 21447
0.14150000 0.14148400 11215.04708556 0 96.67999717 0 3635.86359000 0 303.83234365 0 37.74145855 0 21771
0.14250000 0.14249400 11295.65361024 0 237.00754167 0 3300.72646239 0 50.03207127 0 -498.47606334 0 22470
0.14350000 0.14350900 10913.91306747 0 263.41392913 0 3348.39282073 0 2.42419694 0 -125.81371968 0 22519
0.14450000 0.14449900 10703.36173871 0 142.21626167 0 2964.03920930 0 9.56115178 0 -162.36678561 0 22218
0.14550000 0.14550500 10820.62873087 0 73.26136584 0 3256.49252474 0 317.67828584 0 -259.70802202 0 23559
0.14650000 0.14650700 10536.29142953 0 170.08862493 0 3079.63428041 0 324.14673800 0 64.08174423 0 23044
0.14750000 0.14750500 10472.96880389 0 122.63264076 0 2805.66067510 0 427.25554840 0 -253.72564492 0 23649
0.14850000 0.14849900 10358.91278593 0 121.11462503 0 2704.24925208 0 118.81822486 0 81.67533619 0 23640
0.14950000 0.14949500 10324.11246903 0 151.32657053 0 2734.68707301 0 195.03457275 0 90.88086705 0 24457
0.15050000 0.15050000 9951.79447467 0 202.43974359 0 2528.48716791 0 53.50579173 0 374.45495304 0 24591
0.15150000 0.15149900 9934.18947821 0 144.64552973 0 2536.86891780 0 166.98837398 0 69.65588471 0 25020
0.15250000 0.15250500 10025.97905096 0 -98.77997430 0 2756.98673519 0 117.44525658 0 380.27788866 0 25297
0.15350000 0.15350100 9867.95483115 0 47.61055383 0 2885.58071564 0 80.12576434 0 159.74928802 0 25452
0.15450000 0.15450400 9962.09173676 0 168.99025031 0 2672.87028355 0 -56.82306025 0 475.65600188 0 26061
0.15550000 0.15549900 9640.14174800 0 226.38696771 0 2663.21521630 0 446.16929366 0 852.94436285 0 26128
0.15650000 0.15649500 9678.70665535 0 65.17856872 0 2617.68581665 0 202.61800802 0 904.25462329 0 26331
0.15750000 0.15749700 9523.19585327 0 104.17751120 0 2410.25688350 0 364.33263369 0 945.68394106 0 27345
0.15850000 0.15849900 9479.01727724 0 112.98310968 0 2473.74559401 0 48.96868519 0 486.26771799 0 26980
0.15950000 0.15949700 9441.79212120 0 146.85667300 0 2358.95880261 0 45.00833605 0 816.55295287 0 27777
0.16050000 0.16050000 9283.97827556 0 25.46501840 0 2288.76026326 0 -147.24309714 0 604.08832639 0 28224
0.16150000 0.16150500 9212.50641886 0 219.99823629 0 2219.99005381 0 22.31117740 0 397.41563302 0 28075
0.16250000 0.16249700 9122.87594945 0 196.91243904 0 2508.43518766 0 -356.15129288 0 273.94813897 0 28590
0.16350000 0.16349900 8949.50548744 0 171.68303971 0 2375.25726475 0 -63.26272436 0 291.41473137 0 29163
0.16450000 0.16449100 8919.02337722 0 119.04963645 0 2725.07629507 0 -419.79944487 0 77.63958452 0 28996
0.16550000 0.16550500 8763.65651536 0 195.05228847 0 2717.94571788 0 -236.79606027 0 -138.39520237 0 30777
0.16650000 0.16650700 8658.24798309 0 196.20270302 0 2863.52464460 0 -167.88744676 0 -34.03743373 0 29211
0.16750000 0.16749900 8541.81141529 0 49.07985133 0 2692.00326083 0 93.47500203 0 -74.16143513 0 30922
0.16850000 0.16850800 8619.00766393 0 -49.17806285 0 2576.69607017 0 374.10063865 0 -229.85592707 0 30867
0.16950000 0.16949900 8544.69021975 0 112.94103485 0 2540.17954292 0 502.02142174 0 -435.63286936 0 30852
0.17050000 0.17049200 8429.74841580 0 136.42322132 0 2319.49703696 0 205.55660303 0 -191.60215206 0 31257
0.17150000 0.17149500 8223.62601698 0 239.90406185 0 2316.36356904 0 239.36483963 0 196.87700760 0 32608
0.17250000 0.17250900 8072.84309760 0 174.95048276 0 2421.76102898 0 184.13719066 0 291.46344960 0 32361
0.17350000 0.17350400 7986.30180682 0 47.27849481 0 2414.61937948 0 313.49405429 0 668.27459336 0 32508
0.17450000 0.17449800 8052.39251366 0 -29.84976976 0 2351.99431030 0 51.09545734 0 734.58231777 0 32791
0.17550000 0.17549800 8020.14990379 0 125.49483673 0 2386.26315562 0 -30.01718331 0 781.90986297 0 33633
0.17650000 0.17650100 8014.60266905 0 136.24163520 0 2499.09014552 0 -176.18615421 0 751.10776256 0 33984
0.17750000 0.17750300 7896.69348206 0 130.82505389 0 2440.93829557 0 -188.52072406 0 973.10233901 0 34069
0.17850000 0.17849800 7744.73689625 0 99.82331947 0 2379.25437401 0 74.96927194 0 610.38737197 0 34536
