### header ###
fiducial parameters:
Omega_m = 0.31
Omega_nu = 0
Omega_de = 0.69
Omega_k = 0
H_0 = 100
w_de = -1
zeff = 0
beta = 0
fgrowth = 0
b_1 = 2
gamma = 0.55
Lx = 3500 Ly = 3500 Lz = 3500
nx = 700 ny = 700 nz = 700
xoffset = -685.467585 yoffset = -31.7331281 zoffset = 572.489161
bins = 400 dk = 0.001
kx_ny = 0.628318531 ky_ny = 0.628318531 kz_ny = 0.628318531
############################
A(data) = 8.06955373 (not used)
A(ran) = 8.06984183 (used)
Ngal = 479214
weighted Ngal = 0
Nran = 23820508
weighted Nran = 0
SN(data) = 3488.9471
SN(ran) = 70.291249
SN(data+ran) = 3559.23835
############################
13 columns: k_central k_mean P_0(k) sigma^{lin}_{P_0(k)} P^img_1(k) sigma^{lin}_{P_1(k)} P_2(k) sigma^{lin}_{P_2(k)} P^img_3(k) sigma^{lin}_{P_3(k)} P_4(k) sigma^{lin}_{P_4(k)} N_modes
### header ###
0.00050000 0 0 0 0 0 0 0 0 0 0 0 0
0.00150000 0.00179520 29564.98956100 0 -22228.24568967 0 13672.88174880 0 -47487.54029845 0 -32143.73401127 0 3
0.00250000 0.00253879 46263.05189676 0 -14895.82002502 0 11000.39899662 0 18322.48310990 0 8562.36165016 0 6
0.00350000 0.00331552 51674.87209837 0 -1216.81528059 0 37473.06539298 0 -24549.11569491 0 80592.90572022 0 7
0.00450000 0.00420575 55311.02356881 0 6758.05988701 0 39641.69093196 0 13178.28099915 0 25825.42257676 0 24
0.00550000 0.00557378 66965.97411941 0 -8544.91166624 0 54067.04787544 0 33456.35811852 0 -6892.33397009 0 45
0.00650000 0.00659388 88090.97336416 0 -12769.82293659 0 29778.35326026 0 55451.64209401 0 43888.37039290 0 40
0.00750000 0.00754703 80042.61117673 0 -7750.25091401 0 27445.19297448 0 35497.43047559 0 7059.83609994 0 57
0.00850000 0.00846663 87422.64783810 0 10024.42892548 0 2428.33798993 0 25341.00836594 0 -326.81627551 0 75
0.00950000 0.00948925 86246.54549587 0 -5780.58397969 0 15701.88527182 0 -4690.23679318 0 -20919.49689611 0 112
0.01050000 0.01054430 78995.94431162 0 -1082.13041427 0 -23243.68859879 0 1125.49074549 0 7158.18048898 0 105
0.01150000 0.01145670 78764.42199967 0 -4997.13949250 0 -15437.47815515 0 -8775.06100992 0 -11456.09159686 0 144
0.01250000 0.01249090 87538.02146271 0 -9276.42695004 0 -26636.47036972 0 3381.42156567 0 -30625.16466239 0 169
0.01350000 0.01339930 93619.16369961 0 -1876.72583979 0 -17217.24364650 0 -20044.45106569 0 -39993.45869145 0 180
0.01450000 0.01448870 75985.48991668 0 17743.06835214 0 -21352.64624301 0 -21515.29869460 0 -10723.29192339 0 267
0.01550000 0.01550050 69988.27590191 0 4025.90837638 0 -12901.25143219 0 -22068.36131929 0 764.26168444 0 238
0.01650000 0.01653350 71193.49845842 0 -2917.14791370 0 11230.54834030 0 -5761.69459355 0 -20268.00130378 0 315
0.01750000 0.01747870 74008.19415057 0 7745.17978924 0 22396.10213392 0 -24118.18081297 0 10727.21152637 0 297
0.01850000 0.01844180 70612.09068219 0 11374.59928620 0 31342.87275713 0 -7408.74719963 0 -2456.14059755 0 388
0.01950000 0.01947590 64198.77870074 0 -2774.70245490 0 32910.82467470 0 -6844.03648923 0 12031.63104093 0 399
0.02050000 0.02045430 72504.90460994 0 -1126.91907539 0 44772.60625292 0 12610.04928946 0 -2079.82549393 0 462
0.02150000 0.02154770 72784.25936512 0 -2878.64944030 0 36644.85549654 0 18035.70989709 0 5102.84697755 0 571
0.02250000 0.02255340 74522.61436164 0 218.72934786 0 36634.11534147 0 16765.93568689 0 9439.41157137 0 510
0.02350000 0.02348930 76036.64405735 0 278.89414646 0 15007.87195219 0 9964.92625191 0 4063.10031545 0 555
0.02450000 0.02439640 73386.70455850 0 -2579.27592185 0 21795.98212875 0 7428.87668615 0 5645.86700363 0 592
0.02550000 0.02547300 71981.40509252 0 3757.09447444 0 17720.59153275 0 -4782.43604194 0 4873.88237262 0 837
0.02650000 0.02652900 72068.65501209 0 3367.10504968 0 23087.01520261 0 -1279.11925235 0 16541.27821632 0 723
0.02750000 0.02749970 65431.34989955 0 5189.38826833 0 30577.55366567 0 983.79377586 0 1108.46150992 0 826
0.02850000 0.02848090 65439.98631291 0 906.54216560 0 22399.86672436 0 4005.65709429 0 7805.80076762 0 831
0.02950000 0.02946900 66148.06148506 0 4108.04288189 0 23066.08850870 0 3259.17202734 0 -1492.50509625 0 996
0.03050000 0.03053250 60431.75235094 0 3991.03055321 0 24212.51702042 0 -4102.15240509 0 8852.89945340 0 1041
0.03150000 0.03150510 58137.34520202 0 1844.74896571 0 29533.65488177 0 -4282.87489078 0 813.71622325 0 1036
0.03250000 0.03246190 58234.89238367 0 1179.39082271 0 31785.32285689 0 -879.00529377 0 4227.12573531 0 1059
0.03350000 0.03345080 53300.28938174 0 2317.53723547 0 27841.13930999 0 4881.19010700 0 1397.67063418 0 1302
0.03450000 0.03451200 55627.58133538 0 -1400.95911465 0 31230.71010672 0 8004.94760181 0 3838.62000208 0 1339
0.03550000 0.03553350 56262.91133347 0 -4084.69134885 0 23500.89870433 0 12327.70500658 0 2671.95128059 0 1365
0.03650000 0.03647120 58510.37182516 0 1527.49364268 0 24551.55160637 0 7808.42490861 0 1092.72220019 0 1308
0.03750000 0.03744890 56316.94427858 0 4678.89873256 0 21823.99511054 0 -565.40494517 0 -217.32980601 0 1579
0.03850000 0.03847530 51326.42603632 0 5036.12514819 0 20315.83374700 0 -5307.68498669 0 3506.79349959 0 1662
0.03950000 0.03950240 46306.12324030 0 4741.84489916 0 21144.37581318 0 2962.05726316 0 5256.87408810 0 1683
0.04050000 0.04050350 44676.60919674 0 747.38856865 0 17701.43641082 0 4031.22309230 0 1024.91417577 0 1822
0.04150000 0.04152450 43337.96512617 0 -896.85388138 0 15662.02490247 0 3949.45397351 0 -4811.86628131 0 1887
0.04250000 0.04250150 44055.78394416 0 1472.01022301 0 14531.87270823 0 -3188.55273965 0 -3846.49242502 0 1920
0.04350000 0.04349210 42083.47072421 0 2541.27570308 0 17524.16849047 0 -659.24400524 0 -4697.10163457 0 2005
0.04450000 0.04448520 38814.14537501 0 2601.49807777 0 15856.12275654 0 -2276.55856131 0 -2424.61768879 0 2151
0.04550000 0.04548030 38388.41448574 0 1217.86715145 0 16573.27723505 0 1584.23930738 0 319.13761825 0 2274
0.04650000 0.04648670 39141.66474315 0 -566.96725020 0 19346.56243237 0 3812.17929041 0 -263.53793917 0 2311
0.04750000 0.04749250 38236.83435897 0 -301.16612783 0 18607.37402748 0 2743.32348637 0 -622.45731326 0 2568
0.04850000 0.04851840 39483.57813355 0 1353.60278140 0 18579.36104569 0 117.57812448 0 90.76516125 0 2493
0.04950000 0.04949480 36118.80934441 0 2888.63667729 0 16194.60372625 0 3008.02955581 0 533.23984157 0 2644
0.05050000 0.05050630 37028.62227476 0 285.22419456 0 16706.92019561 0 -1517.94929869 0 1396.13158103 0 2829
0.05150000 0.05149060 35203.01735866 0 -453.41059409 0 14269.23716353 0 2852.91735742 0 -3021.13918839 0 2784
0.05250000 0.05249300 34823.90095687 0 1120.80715209 0 13414.78585728 0 1152.72866454 0 -2482.82490036 0 3055
0.05350000 0.05348950 33867.69498553 0 906.50009076 0 12351.06761195 0 308.56576251 0 -4884.94362511 0 3009
0.05450000 0.05448610 33961.69902324 0 -292.38134532 0 12010.48290053 0 2547.49834962 0 -3238.68822643 0 3336
0.05550000 0.05550870 33665.07144135 0 -1248.53749120 0 11628.70914078 0 430.59385434 0 -4229.53950212 0 3349
0.05650000 0.05647670 35056.64122456 0 -1118.95807385 0 10487.10816268 0 2597.50096851 0 -3907.71130895 0 3324
0.05750000 0.05747970 36608.98116413 0 -1073.01346201 0 13886.79906430 0 1361.04338368 0 -1295.36235286 0 3639
0.05850000 0.05849280 37055.97091706 0 181.26281514 0 11900.20254534 0 137.19053343 0 -1078.21634744 0 3846
0.05950000 0.05951020 36238.61189895 0 1711.84785091 0 12195.72289475 0 1400.87053606 0 2782.99562619 0 3787
0.06050000 0.06049470 35106.57740949 0 1571.77186963 0 11293.54986852 0 -127.18890242 0 2741.52976975 0 3930
0.06150000 0.06148310 34218.35551254 0 1059.40003865 0 12919.52076814 0 1550.93375432 0 4717.85117128 0 4083
0.06250000 0.06249100 33084.10655812 0 1462.26657717 0 13516.98341536 0 -625.30843690 0 2448.10208973 0 4303
0.06350000 0.06350600 31921.84462190 0 667.62686236 0 12388.04917685 0 289.97090021 0 3402.07145145 0 4470
0.06450000 0.06451750 31347.19096381 0 -126.06838315 0 12991.15870972 0 405.27366194 0 3243.19466263 0 4479
0.06550000 0.06550280 32285.34904570 0 29.40322290 0 13468.70807915 0 1549.81544952 0 3104.56915590 0 4636
0.06650000 0.06648880 33643.59113120 0 -563.97772250 0 12939.45095281 0 359.76640694 0 969.22702533 0 4653
0.06750000 0.06749660 31299.57996709 0 1269.37560651 0 14157.73885261 0 -1201.46903840 0 4208.09240895 0 5220
0.06850000 0.06852730 32015.84865961 0 2257.01590801 0 13798.44191225 0 -1203.67243104 0 3167.84749224 0 5029
0.06950000 0.06949320 29321.50913824 0 579.95730168 0 14840.67984742 0 1349.20706845 0 4842.68056128 0 5040
0.07050000 0.07048030 28929.88100941 0 1017.77584796 0 12548.93005646 0 2895.34650613 0 2623.94168017 0 5475
0.07150000 0.07148790 27978.21469124 0 390.49321554 0 11290.44961757 0 3329.47021762 0 1783.03182717 0 5509
0.07250000 0.07249820 27635.30479161 0 -408.32519466 0 10217.82922309 0 2534.27799379 0 727.07417431 0 5916
0.07350000 0.07351270 27837.15327306 0 -3.63522140 0 8487.70096390 0 2316.88396830 0 2298.96894675 0 5721
0.07450000 0.07449140 27625.89331552 0 -58.17089435 0 8049.54692618 0 -762.37717476 0 1572.33655820 0 6028
0.07550000 0.07549160 28399.73809709 0 23.80106943 0 8789.21144104 0 -429.45008318 0 3274.04215957 0 6183
0.07650000 0.07648840 28176.74147524 0 395.59534282 0 11160.12835446 0 -218.11040491 0 2661.80903105 0 6330
0.07750000 0.07749960 28326.66075329 0 1079.25936044 0 11027.84728985 0 -1435.72621458 0 4577.76411767 0 6583
0.07850000 0.07848650 26711.09783900 0 717.36374544 0 11230.43761706 0 1739.31828879 0 4211.32552780 0 6549
0.07950000 0.07947320 27380.97349053 0 142.28933901 0 11617.85826246 0 956.29565717 0 6731.29807792 0 6828
0.08050000 0.08048110 26776.64600193 0 444.58927291 0 11630.36998951 0 1341.71110455 0 2999.44850407 0 7147
0.08150000 0.08149960 25431.24781321 0 1544.65574615 0 11175.62960920 0 -193.59074159 0 4525.35880430 0 7386
0.08250000 0.08250610 24091.82867990 0 2440.49540258 0 10908.70907480 0 356.63847518 0 5328.06913668 0 7227
0.08350000 0.08350160 22492.43135985 0 587.04912572 0 9469.62794580 0 1131.13763115 0 6003.99027756 0 7798
0.08450000 0.08449610 21762.98660079 0 -57.68614797 0 9850.95881255 0 2380.19552161 0 3788.27414113 0 7371
0.08550000 0.08548940 22173.32695857 0 -237.05847437 0 8479.89497491 0 1436.76701312 0 3506.00736453 0 8256
0.08650000 0.08650700 21244.35890629 0 810.92489016 0 7403.70929183 0 434.14253444 0 1937.19180562 0 8037
0.08750000 0.08749060 21581.62192026 0 586.90075657 0 6947.03125469 0 -580.21528684 0 1977.06324729 0 8155
0.08850000 0.08849210 20378.72455197 0 381.30318594 0 6997.18888612 0 -866.49245950 0 1462.99735061 0 8718
0.08950000 0.08949900 20076.11791467 0 662.13388201 0 7158.63445430 0 -516.79633198 0 992.65052848 0 8571
0.09050000 0.09049190 20132.69749450 0 96.99234746 0 7481.87990505 0 -67.40266661 0 342.46922111 0 8932
0.09150000 0.09150830 19949.22907225 0 -432.49054358 0 7656.45725047 0 299.20743357 0 150.83717377 0 9285
0.09250000 0.09250820 19899.62505706 0 508.57180911 0 7067.66423359 0 283.47366001 0 -1626.45808191 0 9204
0.09350000 0.09350330 19937.27096145 0 536.33455636 0 7933.58646836 0 -477.23270094 0 -735.16915098 0 9349
0.09450000 0.09448040 19261.63770101 0 532.26658422 0 7525.67094971 0 -134.67490123 0 -212.24650168 0 9564
0.09550000 0.09549270 18761.39006571 0 413.27673832 0 7340.97349941 0 -93.71117472 0 -616.29999343 0 10155
0.09650000 0.09649430 18969.43904905 0 152.68625202 0 7275.83501250 0 476.67908470 0 -1195.56748927 0 9913
0.09750000 0.09749140 18689.75212413 0 -166.89979539 0 7177.42418952 0 293.14755020 0 -2046.25420508 0 10476
0.09850000 0.09850240 18398.66070465 0 726.89701711 0 7091.95691424 0 -303.19347051 0 -2059.66279044 0 10575
0.09950000 0.09950330 18137.35383893 0 529.05561002 0 7304.81128655 0 -534.41904416 0 -1760.56608011 0 10882
0.10050000 0.10051200 17383.66068852 0 387.93993744 0 7406.26699887 0 241.42539928 0 -1384.22883185 0 10875
0.10150000 0.10150300 17370.92751498 0 205.31965527 0 7544.00671961 0 1143.78222609 0 -1578.42633685 0 11118
0.10250000 0.10250800 17032.77871502 0 272.46001851 0 7119.89238976 0 581.62700826 0 -1533.38411948 0 11575
0.10350000 0.10349800 17180.48352810 0 356.99168234 0 6981.14508746 0 329.73383310 0 -881.83648723 0 11364
0.10450000 0.10450100 16381.28312269 0 282.64766458 0 6686.32229451 0 -119.95313816 0 -895.72561148 0 12093
0.10550000 0.10551000 16264.35937261 0 456.75554342 0 6904.63532296 0 800.81253590 0 -402.41921660 0 12067
0.10650000 0.10649700 15725.69077018 0 -7.40540336 0 6254.06980591 0 1022.95548151 0 -1045.56406155 0 12054
0.10750000 0.10749900 15656.26729357 0 108.42629440 0 5767.59614268 0 1344.19130531 0 -489.80754023 0 12807
0.10850000 0.10850100 15476.45273851 0 218.22112815 0 5453.46321525 0 1055.36196179 0 -269.16157295 0 12736
0.10950000 0.10950300 15165.32041111 0 281.80063173 0 5357.15613398 0 152.86783814 0 360.36652694 0 12933
0.11050000 0.11050200 15278.36884751 0 367.34209158 0 5716.16519390 0 -306.43212552 0 1051.33938618 0 13428
0.11150000 0.11150900 14664.07626657 0 182.81072615 0 5380.95056002 0 -463.04573115 0 535.47312948 0 13453
0.11250000 0.11250000 14817.64941180 0 257.72939757 0 6474.37585283 0 -588.13753525 0 776.76012470 0 13668
0.11350000 0.11349100 14826.17510191 0 100.94948562 0 6462.43988668 0 -427.01417172 0 390.41792373 0 13791
0.11450000 0.11448600 14888.06939765 0 248.08208096 0 6900.80429857 0 -163.31679108 0 208.35125781 0 14205
0.11550000 0.11549300 14642.37450992 0 125.00543997 0 6492.60089948 0 -3.95327393 0 713.63015751 0 14776
0.11650000 0.11649800 14527.66522480 0 105.70637781 0 6683.27740518 0 677.52552075 0 872.80811357 0 14553
0.11750000 0.11747300 14398.67264066 0 42.45217914 0 6532.79343857 0 713.34006260 0 1002.36427904 0 14568
0.11850000 0.11849100 14512.60686305 0 189.21274436 0 5734.70026565 0 1285.26439262 0 896.38884374 0 16015
0.11950000 0.11950300 14268.12993105 0 -205.10485217 0 5767.43005781 0 474.65063479 0 637.46031339 0 15270
0.12050000 0.12050700 14119.20716224 0 59.29285302 0 4818.16643413 0 871.47389843 0 674.25586323 0 15999
0.12150000 0.12150000 14388.59682508 0 65.82685334 0 4540.74933580 0 265.27297247 0 398.05672063 0 15670
0.12250000 0.12250700 14092.52285943 0 170.48833586 0 4265.01523084 0 -348.73394249 0 65.76263386 0 16887
0.12350000 0.12352200 13757.58503366 0 461.35498715 0 4378.49548791 0 -65.17624354 0 -352.77755551 0 16407
0.12450000 0.12449800 13477.01232276 0 420.74723588 0 3966.73787255 0 -14.39601528 0 -727.28565571 0 16306
0.12550000 0.12549900 13100.99617192 0 177.31885304 0 4227.41361576 0 281.75634243 0 -664.89421259 0 17523
0.12650000 0.12650100 13136.09544159 0 187.80434464 0 4527.99401761 0 248.20941269 0 -432.25802476 0 17154
0.12750000 0.12750600 12977.98264318 0 203.11847710 0 4253.92076138 0 176.28137621 0 275.23142141 0 18007
0.12850000 0.12850300 12798.94315087 0 298.00940803 0 3994.20831043 0 768.20121762 0 1034.66667947 0 17496
0.12950000 0.12949900 12769.15859710 0 32.87428600 0 3937.81696013 0 631.25538256 0 1569.46882607 0 18405
0.13050000 0.13049000 12779.23441269 0 -97.75445557 0 4086.54042709 0 636.46491139 0 1315.11538033 0 18100
0.13150000 0.13148800 12719.11168892 0 170.36543305 0 3696.06382004 0 156.13860290 0 1227.47792940 0 19059
0.13250000 0.13249300 12573.62134081 0 161.34259556 0 3442.13112265 0 83.79967243 0 1601.48998944 0 18957
0.13350000 0.13349100 12379.52348674 0 173.93182888 0 3461.54090805 0 -449.69472188 0 1502.64734579 0 19468
0.13450000 0.13450700 12250.75234909 0 84.30844576 0 3741.24997762 0 -401.86006420 0 1025.33381688 0 19953
0.13550000 0.13551000 12382.84518418 0 127.18336626 0 3984.17678414 0 -142.95478573 0 1082.21456394 0 19956
0.13650000 0.13649900 12103.93332200 0 97.99140332 0 3883.47398992 0 45.45499363 0 923.42746095 0 19723
0.13750000 0.13749600 12238.24062205 0 148.55295316 0 4011.81330689 0 355.23007546 0 1034.22600094 0 20946
0.13850000 0.13851100 12007.27192633 0 85.97184112 0 4181.00950244 0 250.96642157 0 724.12561421 0 20955
0.13950000 0.13949800 11813.72768850 0 409.73580884 0 3737.90613553 0 118.17935172 0 762.15462103 0 20506
0.14050000 0.14048300 11585.08418100 0 210.36199200 0 3818.67874508 0 346.38993132 0 725.83185946 0 21447
0.14150000 0.14148400 11360.31598718 0 134.47227769 0 3261.34220301 0 433.77382603 0 1060.63792456 0 21771
0.14250000 0.14249400 11414.34893229 0 183.63007819 0 3345.66902883 0 228.34012581 0 894.80550129 0 22470
0.14350000 0.14350900 10944.22909282 0 98.36155114 0 3066.10389948 0 354.80268372 0 814.07496657 0 22519
0.14450000 0.14449900 11059.96810415 0 197.88569639 0 3109.21953232 0 43.53837421 0 1095.81802221 0 22218
0.14550000 0.14550500 10910.97890139 0 190.41519884 0 3197.18915301 0 -96.12759889 0 1185.42523973 0 23559
0.14650000 0.14650700 10663.39064612 0 235.63789509 0 3400.36631343 0 -74.37878486 0 1522.76575998 0 23044
0.14750000 0.14750500 10622.53376754 0 196.18830900 0 3494.15997697 0 -211.18355850 0 1158.22053765 0 23649
0.14850000 0.14849900 10436.69586778 0 204.26114102 0 3876.28805111 0 81.50460095 0 1445.01589511 0 23640
0.14950000 0.14949500 10368.77822734 0 43.64046104 0 3530.54363632 0 144.34436250 0 1290.91127828 0 24457
0.15050000 0.15050000 10294.33898759 0 -23.96228248 0 3348.66962885 0 326.42985137 0 846.19910257 0 24591
0.15150000 0.15149900 10285.27075356 0 42.91478087 0 3077.26480290 0 322.74165998 0 381.82469244 0 25020
0.15250000 0.15250500 10011.68467962 0 177.22141658 0 2633.69639834 0 483.22504313 0 343.17009927 0 25297
0.15350000 0.15350100 9974.58131915 0 239.43570251 0 2537.63290821 0 -93.37346881 0 152.73497025 0 25452
0.15450000 0.15450400 9505.45798891 0 292.03035263 0 2517.48127704 0 46.33646141 0 103.58049145 0 26061
0.15550000 0.15549900 9604.82103183 0 207.71238467 0 2630.89510016 0 -90.27089267 0 520.80562080 0 26128
0.15650000 0.15649500 9347.92095139 0 72.84006388 0 2526.49414944 0 -70.32254939 0 912.71277222 0 26331
0.15750000 0.15749700 9556.51247865 0 -125.66867223 0 2745.83690410 0 160.86094943 0 743.13236699 0 27345
0.15850000 0.15849900 9512.46677052 0 -67.78820496 0 2810.74287219 0 301.64555950 0 469.36027799 0 26980
0.15950000 0.15949700 9499.09140214 0 125.34868204 0 2905.05693499 0 -30.87595282 0 543.39980682 0 27777
0.16050000 0.16050000 9406.05065669 0 285.73352150 0 2668.66280011 0 16.27997135 0 424.80967185 0 28224
0.16150000 0.16150500 9198.03489032 0 206.07257336 0 2819.52322577 0 35.38338553 0 704.58406814 0 28075
0.16250000 0.16249700 9010.02681490 0 102.47724500 0 2543.53445734 0 187.30276833 0 685.12113557 0 28590
0.16350000 0.16349900 8974.77253268 0 111.18717860 0 2545.39460791 0 238.63738789 0 250.06070540 0 29163
0.16450000 0.16449100 8888.80700279 0 51.21725291 0 2441.53620111 0 123.56382328 0 318.22525868 0 28996
0.16550000 0.16550500 8719.44472236 0 105.33180106 0 2019.96850596 0 229.71641578 0 152.17028168 0 30777
0.16650000 0.16650700 8749.72753074 0 83.58531223 0 2014.50984983 0 101.09564031 0 282.42178915 0 29211
0.16750000 0.16749900 8646.84348852 0 64.45864616 0 2054.85740147 0 115.41459221 0 266.94157182 0 30922
0.16850000 0.16850800 8651.90354097 0 88.88895581 0 2089.85702022 0 166.04279745 0 580.48212987 0 30867
0.16950000 0.16949900 8548.87555853 0 102.11108322 0 2095.75856935 0 126.06063253 0 320.80289590 0 30852
0.17050000 0.17049200 8529.05609710 0 210.17708417 0 2255.97510947 0 -247.12764656 0 621.48627037 0 31257
0.17150000 0.17149500 8396.42071810 0 237.03632972 0 2399.95962142 0 -242.25028747 0 531.76168621 0 32608
0.17250000 0.17250900 8198.11538060 0 222.14737453 0 2750.54264215 0 -333.10203431 0 894.78003494 0 32361
0.17350000 0.17350400 8145.57719933 0 148.49648431 0 2666.34868423 0 -157.34216460 0 749.97063480 0 32508
0.17450000 0.17449800 7980.90958463 0 12.42879533 0 2865.52873539 0 161.16654560 0 513.59532288 0 32791
0.17550000 0.17549800 8047.85286048 0 98.23045482 0 2555.47042349 0 420.63651263 0 638.74802477 0 33633
0.17650000 0.17650100 7905.49598029 0 22.80699611 0 2465.54100132 0 338.51086498 0 423.11117722 0 33984
0.17750000 0.17750300 7990.96325557 0 30.52307783 0 2188.35642181 0 298.38808154 0 371.70901649 0 34069
