### header ###
fiducial parameters:
Omega_m = 0.31
Omega_nu = 0
Omega_de = 0.69
Omega_k = 0
H_0 = 100
w_de = -1
zeff = 0
beta = 0
fgrowth = 0
b_1 = 2
gamma = 0.55
Lx = 3500 Ly = 3500 Lz = 3500
nx = 700 ny = 700 nz = 700
xoffset = -685.467585 yoffset = -31.7331281 zoffset = 572.489161
bins = 400 dk = 0.001
kx_ny = 0.628318531 ky_ny = 0.628318531 kz_ny = 0.628318531
############################
A(data) = 8.01824931 (not used)
A(ran) = 8.02611773 (used)
Ngal = 477109
weighted Ngal = 0
Nran = 23820508
weighted Nran = 0
SN(data) = 3473.0415
SN(ran) = 69.9103962
SN(data+ran) = 3542.95189
############################
13 columns: k_central k_mean P_0(k) sigma^{lin}_{P_0(k)} P^img_1(k) sigma^{lin}_{P_1(k)} P_2(k) sigma^{lin}_{P_2(k)} P^img_3(k) sigma^{lin}_{P_3(k)} P_4(k) sigma^{lin}_{P_4(k)} N_modes
### header ###
0.00050000 0 0 0 0 0 0 0 0 0 0 0 0
0.00150000 0.00179520 35440.51872602 0 -6192.71805409 0 36200.85527132 0 -22093.38477338 0 -80273.57987245 0 3
0.00250000 0.00253879 51751.71403261 0 11554.74601099 0 24680.10129751 0 23384.97146348 0 29288.62433353 0 6
0.00350000 0.00331552 53797.54748935 0 9154.80853423 0 38139.17645407 0 36032.77738057 0 56581.35139525 0 7
0.00450000 0.00420575 45265.21398410 0 7042.19788651 0 47690.16384263 0 38373.35612398 0 -1011.70157056 0 24
0.00550000 0.00557378 56596.85265000 0 7230.08416635 0 66617.52805737 0 58246.85049447 0 -11119.38219913 0 45
0.00650000 0.00659388 55364.50289768 0 1960.06722870 0 51592.71544821 0 36671.87196910 0 13854.91076882 0 40
0.00750000 0.00754703 62452.56235359 0 1264.27126477 0 49153.81446041 0 53579.09052068 0 19094.11342651 0 57
0.00850000 0.00846663 67276.99572357 0 -10341.72853781 0 40883.45216037 0 28549.76809838 0 32513.88182995 0 75
0.00950000 0.00948925 70790.46583502 0 1469.06498461 0 22877.30537054 0 23736.40705322 0 15818.25540566 0 112
0.01050000 0.01054430 83267.53650341 0 -12520.25273518 0 28981.25659657 0 2160.22164444 0 1976.17746131 0 105
0.01150000 0.01145670 84774.92280422 0 -527.88415805 0 49376.36818926 0 -10676.93209937 0 12302.46010600 0 144
0.01250000 0.01249090 74655.70370596 0 22393.33405272 0 28542.34964075 0 2360.66394063 0 33115.55196060 0 169
0.01350000 0.01339930 62510.02771940 0 7166.78368537 0 22815.07890506 0 11812.73117927 0 39185.06825644 0 180
0.01450000 0.01448870 67024.21454796 0 -12241.34087300 0 30368.28672660 0 28825.91187936 0 3353.84040454 0 267
0.01550000 0.01550050 79398.31259553 0 -12501.54050624 0 22138.22768890 0 38935.05516203 0 30518.09528139 0 238
0.01650000 0.01653350 80304.91455169 0 -2614.31982991 0 1045.67810650 0 9631.05136933 0 1714.56057049 0 315
0.01750000 0.01747870 89904.95233920 0 -7137.20950577 0 -169.57154737 0 -8524.69360112 0 -270.56443650 0 297
0.01850000 0.01844180 91531.14468531 0 -6984.23426608 0 9129.57470597 0 -12161.62013430 0 3956.28559792 0 388
0.01950000 0.01947590 95296.17801664 0 5079.71689100 0 6486.13466179 0 -15116.93435165 0 -8738.90986939 0 399
0.02050000 0.02045430 86702.72527840 0 6101.54853154 0 13259.66258657 0 -3886.37493902 0 -3269.44714477 0 462
0.02150000 0.02154770 77312.95093919 0 8450.42044624 0 20996.89244659 0 -4071.43777604 0 -6739.08192227 0 571
0.02250000 0.02255340 76603.21491832 0 12143.46152160 0 19347.11604861 0 3135.28378495 0 -7002.24893856 0 510
0.02350000 0.02348930 64417.56783915 0 7683.69516952 0 28006.33839628 0 4833.06978334 0 5875.47380339 0 555
0.02450000 0.02439640 58897.34957757 0 5405.67506134 0 23158.65314418 0 5109.37964919 0 18564.30268394 0 592
0.02550000 0.02547300 59494.14788529 0 -1321.86949847 0 23816.23851516 0 8924.74776915 0 15292.76286977 0 837
0.02650000 0.02652900 64201.98967494 0 -6426.76485611 0 19847.58513042 0 10907.74578254 0 18349.16741271 0 723
0.02750000 0.02749970 68354.77582142 0 -3880.97164451 0 21322.19734976 0 5326.91761490 0 5822.66988633 0 826
0.02850000 0.02848090 71207.33886444 0 -2763.65227473 0 17383.54996527 0 -4198.52592031 0 15183.58974706 0 831
0.02950000 0.02946900 67065.62504278 0 4700.86622500 0 12402.11102937 0 -2426.44462238 0 5391.49141324 0 996
0.03050000 0.03053250 65907.90275974 0 5729.36340508 0 19705.63792624 0 -1467.69201634 0 -1523.69583527 0 1041
0.03150000 0.03150510 59872.93211734 0 3322.93754597 0 16952.39363684 0 -731.95374786 0 1284.11287084 0 1036
0.03250000 0.03246190 57657.47064438 0 5388.86727226 0 17910.48190339 0 4933.34075690 0 -2446.41909636 0 1059
0.03350000 0.03345080 54303.44201031 0 2479.53641989 0 17104.74882634 0 2413.96611231 0 -3062.25073044 0 1302
0.03450000 0.03451200 52956.93658912 0 -736.47900701 0 17004.32284024 0 4180.15693343 0 -1290.70090411 0 1339
0.03550000 0.03553350 53847.81584403 0 -860.49125944 0 17300.28608264 0 4150.69347709 0 2342.19530284 0 1365
0.03650000 0.03647120 53258.98961017 0 961.89161013 0 21127.54587945 0 3184.32311157 0 3974.20061948 0 1308
0.03750000 0.03744890 53112.83492256 0 1773.03351786 0 19609.86231656 0 1826.19174931 0 6036.34361068 0 1579
0.03850000 0.03847530 50356.15821247 0 3234.14857325 0 21607.30971384 0 -4887.77814027 0 8376.34659320 0 1662
0.03950000 0.03950240 50233.91974647 0 2354.05376272 0 22194.80726872 0 -175.56831849 0 8400.48426131 0 1683
0.04050000 0.04050350 48462.90139173 0 -527.37150941 0 21615.83540395 0 135.97257770 0 12030.30236196 0 1822
0.04150000 0.04152450 48745.35639785 0 1435.36082787 0 24881.61760921 0 5725.06734305 0 9204.33504314 0 1887
0.04250000 0.04250150 48347.08487412 0 -804.19623837 0 19405.57792366 0 3685.06900149 0 8114.53040054 0 1920
0.04350000 0.04349210 48905.35149148 0 -1461.46936979 0 19643.74363050 0 4763.52451115 0 410.97590922 0 2005
0.04450000 0.04448520 47139.53712940 0 2075.52943190 0 14833.03994330 0 -1311.41722385 0 1800.75861921 0 2151
0.04550000 0.04548030 45987.57245527 0 3833.24992454 0 19168.85161903 0 -2394.26844646 0 376.51551269 0 2274
0.04650000 0.04648670 41828.25363714 0 2570.88309964 0 15811.50128752 0 -2352.45934794 0 4158.96450373 0 2311
0.04750000 0.04749250 42514.29488291 0 515.15762791 0 17988.09890037 0 1467.90239051 0 -592.21325802 0 2568
0.04850000 0.04851840 41317.59801651 0 1125.95578313 0 18249.40576609 0 991.58647806 0 -1301.55178243 0 2493
0.04950000 0.04949480 40523.49088052 0 1197.48300146 0 18983.05800858 0 758.95804086 0 3234.58039392 0 2644
0.05050000 0.05050630 38458.94519483 0 1488.06509400 0 20497.53059727 0 637.90652808 0 3693.66112555 0 2829
0.05150000 0.05149060 38693.45703449 0 1215.85198834 0 20578.24784520 0 3235.41081828 0 7410.99488157 0 2784
0.05250000 0.05249300 37829.48352889 0 -259.47550320 0 20702.47932966 0 4778.97040428 0 7496.99362843 0 3055
0.05350000 0.05348950 38490.83349031 0 -1571.06324084 0 16149.42864099 0 3400.38845808 0 4510.40009347 0 3009
0.05450000 0.05448610 39055.41133281 0 -772.00677566 0 14202.47104488 0 4063.28854497 0 1626.46915424 0 3336
0.05550000 0.05550870 39086.74601205 0 1939.25125804 0 12808.13318047 0 -1212.36420602 0 417.64587769 0 3349
0.05650000 0.05647670 36857.99774930 0 2014.55413913 0 11584.19839501 0 -1070.40592952 0 438.52496060 0 3324
0.05750000 0.05747970 35833.91842683 0 2033.89749059 0 12455.81180474 0 -2142.02981477 0 -1694.68574744 0 3639
0.05850000 0.05849280 34242.60390389 0 581.80527269 0 10779.78292461 0 1181.61636000 0 10.68448342 0 3846
0.05950000 0.05951020 35089.63675252 0 -749.69936284 0 11925.44744592 0 2229.92192918 0 -835.64828425 0 3787
0.06050000 0.06049470 35055.42326883 0 -466.97197753 0 14377.52450026 0 235.60467812 0 2966.81836283 0 3930
0.06150000 0.06148310 36099.21132948 0 1400.23941354 0 15710.85385492 0 1272.55336373 0 2825.79016162 0 4083
0.06250000 0.06249100 33922.83516313 0 1995.25507697 0 16236.78928381 0 405.32127294 0 7810.44007172 0 4303
0.06350000 0.06350600 32707.20462129 0 1330.72735833 0 15327.41924645 0 1481.64314561 0 6931.86216969 0 4470
0.06450000 0.06451750 32496.83044973 0 -189.05108842 0 16419.15047357 0 262.77284153 0 5478.47559702 0 4479
0.06550000 0.06550280 31599.41852318 0 114.26417766 0 13749.94512954 0 2472.85980802 0 2724.06871351 0 4636
0.06650000 0.06648880 32517.53569715 0 -307.93796169 0 12960.59909322 0 -95.61295723 0 18.87322055 0 4653
0.06750000 0.06749660 30840.07848712 0 1364.57545530 0 10855.88301309 0 -51.85590461 0 -872.88340538 0 5220
0.06850000 0.06852730 30273.72907265 0 1348.19948689 0 10262.28460724 0 136.93697719 0 -4669.57583507 0 5029
0.06950000 0.06949320 28791.36622593 0 752.49733932 0 9398.98651345 0 1326.58630885 0 -3135.82632886 0 5040
0.07050000 0.07048030 28653.84795168 0 170.13955763 0 8638.84927000 0 759.77074950 0 -5167.87474121 0 5475
0.07150000 0.07148790 28294.66173456 0 58.92669124 0 9075.92929222 0 648.02220403 0 -4781.41738806 0 5509
0.07250000 0.07249820 28014.75336315 0 396.06148769 0 8415.54262306 0 114.55648704 0 -4861.37064558 0 5916
0.07350000 0.07351270 27418.28722517 0 821.06603246 0 9830.28678211 0 -878.95436108 0 -3927.01037110 0 5721
0.07450000 0.07449140 26927.56178920 0 791.51178306 0 9406.84786408 0 -197.33983078 0 -5224.97472030 0 6028
0.07550000 0.07549160 25841.36672449 0 855.50871328 0 9220.03559973 0 1135.17902971 0 -3728.61645500 0 6183
0.07650000 0.07648840 25706.17363846 0 221.07778796 0 8550.04922496 0 -85.91138622 0 -3610.55225546 0 6330
0.07750000 0.07749960 26192.13797475 0 -777.45214500 0 9594.80057787 0 920.25634712 0 -3451.66439432 0 6583
0.07850000 0.07848650 26122.49305164 0 -160.19107378 0 8610.92486681 0 411.18739063 0 -3172.38714541 0 6549
0.07950000 0.07947320 25916.10491702 0 1193.31980733 0 8711.62766104 0 373.89026448 0 -3007.90776023 0 6828
0.08050000 0.08048110 25472.32613829 0 1128.56885179 0 9605.75110712 0 182.38333441 0 2142.36198451 0 7147
0.08150000 0.08149960 24728.93024996 0 613.15323871 0 10147.49781584 0 158.71734735 0 2471.87437111 0 7386
0.08250000 0.08250610 24755.72527603 0 248.63458997 0 10324.06817973 0 1797.97946568 0 3263.22449823 0 7227
0.08350000 0.08350160 24268.65370725 0 -177.47497282 0 10571.60107337 0 1341.82182780 0 2591.06794779 0 7798
0.08450000 0.08449610 24487.11067593 0 156.06109662 0 10523.87935340 0 247.06010538 0 1549.72687092 0 7371
0.08550000 0.08548940 23942.46301810 0 666.44212360 0 10141.30838627 0 208.33132763 0 2660.30319488 0 8256
0.08650000 0.08650700 23603.09626240 0 1100.80389007 0 9681.16471146 0 8.01146920 0 1548.51998751 0 8037
0.08750000 0.08749060 22638.36460096 0 495.49539349 0 8286.18465221 0 427.66965335 0 2410.35653442 0 8155
0.08850000 0.08849210 22295.89759432 0 -218.82014093 0 8571.71776463 0 1408.37757228 0 1457.19545241 0 8718
0.08950000 0.08949900 22221.15940179 0 155.05351506 0 7472.96668358 0 950.72738502 0 -33.88696083 0 8571
0.09050000 0.09049190 21792.66043131 0 687.77295736 0 7221.89064599 0 883.32792938 0 362.38944069 0 8932
0.09150000 0.09150830 21171.83517873 0 780.01538820 0 7359.46428186 0 -132.13269546 0 705.44660224 0 9285
0.09250000 0.09250820 20405.96247102 0 558.91434836 0 7148.64721731 0 30.37869471 0 795.58307689 0 9204
0.09350000 0.09350330 20124.94686712 0 681.28346779 0 7151.04991180 0 453.20464885 0 1198.12519630 0 9349
0.09450000 0.09448040 19359.51705241 0 528.68579437 0 7543.49739267 0 -451.61355577 0 2099.24635167 0 9564
0.09550000 0.09549270 18984.82958055 0 573.05702885 0 8221.06830995 0 366.70654013 0 1819.07224446 0 10155
0.09650000 0.09649430 18695.95262603 0 364.45775096 0 7905.17488287 0 559.89867803 0 2042.54497627 0 9913
0.09750000 0.09749140 18436.86022527 0 27.71646493 0 7553.08602596 0 1030.26764482 0 2291.88265886 0 10476
0.09850000 0.09850240 18252.17384730 0 163.43305049 0 7766.52723149 0 739.67115825 0 2202.94974592 0 10575
0.09950000 0.09950330 18462.10512586 0 139.12486858 0 7086.09965441 0 310.09706503 0 2147.32238603 0 10882
0.10050000 0.10051200 18346.28860826 0 191.71287530 0 7454.76378157 0 576.13402792 0 1995.37687254 0 10875
0.10150000 0.10150300 17442.89762630 0 745.42765993 0 6982.76164688 0 -902.95694682 0 1952.82592826 0 11118
0.10250000 0.10250800 17428.28215754 0 849.50419153 0 7181.56523900 0 95.58959462 0 1765.30503514 0 11575
0.10350000 0.10349800 16688.42941316 0 208.16745722 0 6964.62517883 0 -293.37231839 0 1358.43031503 0 11364
0.10450000 0.10450100 16230.36733541 0 273.77762516 0 6466.04946457 0 578.66183967 0 913.84879274 0 12093
0.10550000 0.10551000 16414.61082039 0 -165.85678239 0 6417.68554976 0 986.64268503 0 110.15180550 0 12067
0.10650000 0.10649700 16188.62467085 0 -56.20622103 0 6056.68347137 0 428.48346923 0 -1343.52696582 0 12054
0.10750000 0.10749900 16514.15102051 0 259.20090954 0 6246.56276969 0 -413.41182068 0 -427.80141402 0 12807
0.10850000 0.10850100 16172.90196960 0 283.17360000 0 6734.75264327 0 -606.94166449 0 -504.77843062 0 12736
0.10950000 0.10950300 15783.82047548 0 571.41943201 0 6186.34039500 0 -125.21802861 0 457.22943892 0 12933
0.11050000 0.11050200 15861.43747246 0 -64.59572155 0 6334.60989665 0 944.59996046 0 105.53254231 0 13428
0.11150000 0.11150900 16018.22159189 0 -443.45103792 0 6124.94435388 0 593.58179737 0 -349.61419231 0 13453
0.11250000 0.11250000 15942.04399714 0 276.47152179 0 5943.34715453 0 702.49472044 0 -151.09183724 0 13668
0.11350000 0.11349100 15869.74171607 0 434.79690884 0 5344.26794789 0 -75.45036446 0 -180.81327875 0 13791
0.11450000 0.11448600 15294.86661149 0 462.44450391 0 5172.07115231 0 -155.63924105 0 567.20309072 0 14205
0.11550000 0.11549300 15191.34037443 0 124.12408291 0 5715.30155256 0 264.75700213 0 -63.70650314 0 14776
0.11650000 0.11649800 14776.79253322 0 115.16435767 0 5348.74116712 0 949.35884567 0 1177.32029797 0 14553
0.11750000 0.11747300 15212.93140783 0 167.35486794 0 5917.17217866 0 721.75060054 0 724.21308558 0 14568
0.11850000 0.11849100 14812.44541914 0 145.44827328 0 5013.75905205 0 -26.38966825 0 1175.75910017 0 16015
0.11950000 0.11950300 14528.55101079 0 498.52478156 0 5973.07634667 0 182.12313478 0 1399.86295450 0 15270
0.12050000 0.12050700 14064.84204738 0 619.57629434 0 5648.25862579 0 -679.14097294 0 1808.16600451 0 15999
0.12150000 0.12150000 13801.43143995 0 220.04695452 0 6055.06691195 0 255.31673799 0 1805.65258678 0 15670
0.12250000 0.12250700 13603.23682569 0 129.60599093 0 5401.87725392 0 422.54538143 0 875.13219455 0 16887
0.12350000 0.12352200 13206.73687394 0 -44.89063724 0 5169.00411834 0 399.66220772 0 453.34637461 0 16407
0.12450000 0.12449800 13493.95297973 0 -65.64726023 0 4745.41018775 0 457.49960365 0 136.66681247 0 16306
0.12550000 0.12549900 13270.07057190 0 104.86908861 0 4276.87369072 0 380.83261214 0 -233.55961972 0 17523
0.12650000 0.12650100 13231.09598854 0 367.79716413 0 4549.52968938 0 38.85433791 0 -227.41780115 0 17154
0.12750000 0.12750600 12910.10929205 0 256.58784088 0 4289.18611592 0 250.26775788 0 15.86675219 0 18007
0.12850000 0.12850300 12766.27979265 0 -117.20055821 0 4325.18224391 0 308.97765299 0 140.69160254 0 17496
0.12950000 0.12949900 13063.90388378 0 -46.80792100 0 4456.82111368 0 124.00450181 0 223.11288126 0 18405
0.13050000 0.13049000 13066.33979524 0 175.86837849 0 4432.72773487 0 -53.30947941 0 188.93372178 0 18100
0.13150000 0.13148800 12929.92875347 0 299.97031675 0 4510.72119089 0 -406.98322889 0 124.36103067 0 19059
0.13250000 0.13249300 12730.62690673 0 320.29910512 0 4781.57240061 0 -342.67405911 0 901.83089139 0 18957
0.13350000 0.13349100 12327.15139034 0 301.01997315 0 4793.13190772 0 199.21105367 0 824.05888186 0 19468
0.13450000 0.13450700 12359.92547181 0 -7.74679635 0 4630.40194986 0 674.48395312 0 933.04931121 0 19953
0.13550000 0.13551000 12400.45018064 0 -53.21935069 0 4660.24186524 0 556.19719985 0 693.62910996 0 19956
0.13650000 0.13649900 12255.95634176 0 282.89789912 0 4307.92048952 0 290.35732435 0 643.56670053 0 19723
0.13750000 0.13749600 11955.78561593 0 420.42503122 0 4354.43532608 0 94.10966769 0 1133.36316844 0 20946
0.13850000 0.13851100 11644.32111878 0 162.71888553 0 4005.98926404 0 -151.03204669 0 1323.20924978 0 20955
0.13950000 0.13949800 11510.12454198 0 42.48307093 0 4123.78772778 0 177.26792035 0 1069.05621312 0 20506
0.14050000 0.14048300 11371.72048174 0 167.67596536 0 3826.05291341 0 229.97107925 0 183.47174394 0 21447
0.14150000 0.14148400 11115.72833194 0 292.91835308 0 3489.16635848 0 558.73276223 0 -243.51253250 0 21771
0.14250000 0.14249400 11055.78276537 0 177.61780581 0 3395.68272003 0 -266.48539204 0 -456.02809168 0 22470
0.14350000 0.14350900 10686.21070757 0 194.98364006 0 3016.90956031 0 98.72649497 0 -303.38170003 0 22519
0.14450000 0.14449900 10686.42108174 0 312.97033332 0 3287.69433608 0 1.72316377 0 -370.29840230 0 22218
0.14550000 0.14550500 10445.42085974 0 123.25711988 0 3093.46361411 0 145.95538576 0 -377.97484510 0 23559
0.14650000 0.14650700 10419.92129568 0 31.26547721 0 3062.47217694 0 327.69652533 0 -101.46656319 0 23044
0.14750000 0.14750500 10487.00851176 0 13.46018239 0 3221.16073624 0 95.07761032 0 73.94884649 0 23649
0.14850000 0.14849900 10363.85104280 0 53.01739148 0 3191.35403783 0 227.80422528 0 103.19849624 0 23640
0.14950000 0.14949500 10395.54003643 0 -35.72352735 0 2894.20605667 0 312.78099657 0 492.55679849 0 24457
0.15050000 0.15050000 10414.71730302 0 -8.67632909 0 2856.22798254 0 536.76305533 0 644.18342902 0 24591
0.15150000 0.15149900 10379.67339497 0 26.21915445 0 2558.96927814 0 377.82869041 0 452.11845378 0 25020
0.15250000 0.15250500 10316.11825051 0 142.37238145 0 2613.24581440 0 250.97195773 0 505.26450568 0 25297
0.15350000 0.15350100 10145.20584461 0 328.46494468 0 2386.45138514 0 -75.41449013 0 176.33452336 0 25452
0.15450000 0.15450400 9894.16302399 0 256.52583586 0 2762.66683783 0 -401.78587962 0 477.38328456 0 26061
0.15550000 0.15549900 9708.10367774 0 314.27243872 0 2840.41670270 0 -605.88093577 0 294.78182534 0 26128
0.15650000 0.15649500 9477.30106690 0 216.25357603 0 3244.08044862 0 -241.70663633 0 437.94255632 0 26331
0.15750000 0.15749700 9486.98935111 0 111.79837093 0 3135.63809934 0 150.34445532 0 261.45080594 0 27345
0.15850000 0.15849900 9438.88009978 0 34.11427566 0 3065.82709136 0 286.77432004 0 90.95626958 0 26980
0.15950000 0.15949700 9180.72884663 0 -18.20478430 0 2720.41484632 0 567.92168460 0 -17.03897922 0 27777
0.16050000 0.16050000 9214.64337755 0 90.28362585 0 2590.87971826 0 393.03431409 0 34.39141595 0 28224
0.16150000 0.16150500 9238.63710543 0 61.02102148 0 2275.01950816 0 245.57973555 0 -160.58524854 0 28075
0.16250000 0.16249700 9012.29664149 0 143.23823725 0 2267.22459149 0 23.84901260 0 9.93463237 0 28590
0.16350000 0.16349900 8851.57077442 0 382.04392447 0 2372.68848539 0 -173.18444695 0 -91.33317152 0 29163
0.16450000 0.16449100 8739.85101700 0 144.09744965 0 2672.02878686 0 -218.19787627 0 121.03933322 0 28996
0.16550000 0.16550500 8485.32041407 0 234.58823870 0 2762.60040388 0 -86.12253546 0 263.10722574 0 30777
0.16650000 0.16650700 8447.16518274 0 52.57948104 0 2912.75220074 0 28.98524263 0 287.42205104 0 29211
0.16750000 0.16749900 8389.37871952 0 103.14302389 0 2988.64191505 0 -39.51092678 0 214.57611882 0 30922
0.16850000 0.16850800 8400.30710411 0 171.45605705 0 2937.67600391 0 -106.62471643 0 -31.40476705 0 30867
0.16950000 0.16949900 8260.68508815 0 89.68516669 0 3076.86619920 0 -79.23411002 0 41.07943231 0 30852
0.17050000 0.17049200 8229.97045910 0 -50.92837596 0 2627.60661969 0 12.88774320 0 190.37090954 0 31257
0.17150000 0.17149500 8347.45889775 0 -124.23259170 0 2751.01875212 0 342.86893203 0 -349.82235202 0 32608
0.17250000 0.17250900 8382.10420211 0 41.59053082 0 2566.59810994 0 -13.29675487 0 -500.96955088 0 32361
0.17350000 0.17350400 8451.97057172 0 111.57138827 0 2613.15723580 0 -41.99334200 0 -506.70280068 0 32508
0.17450000 0.17449800 8181.27437455 0 168.05574610 0 2557.35271871 0 -116.01249775 0 -242.01001803 0 32791
0.17550000 0.17549800 8276.90604401 0 94.30121891 0 2700.01962400 0 12.23248301 0 -372.07772490 0 33633
0.17650000 0.17650100 8088.21148445 0 72.59935154 0 2928.20916619 0 -187.84420501 0 -460.56331592 0 33984
0.17750000 0.17750300 8114.17608615 0 186.79011969 0 3019.57799059 0 -29.34974357 0 -224.03631315 0 34069
0.17850000 0.17849800 7891.87702076 0 151.73292485 0 2889.31208910 0 104.39231430 0 -597.67523585 0 34536
