### header ###
fiducial parameters:
Omega_m = 0.31
Omega_nu = 0
Omega_de = 0.69
Omega_k = 0
H_0 = 100
w_de = -1
zeff = 0
beta = 0
fgrowth = 0
b_1 = 2
gamma = 0.55
Lx = 3500 Ly = 3500 Lz = 3500
nx = 700 ny = 700 nz = 700
xoffset = -685.467585 yoffset = -31.7331281 zoffset = 572.489161
bins = 400 dk = 0.001
kx_ny = 0.628318531 ky_ny = 0.628318531 kz_ny = 0.628318531
############################
A(data) = 8.02328696 (not used)
A(ran) = 8.02575771 (used)
Ngal = 476995
weighted Ngal = 0
Nran = 23820508
weighted Nran = 0
SN(data) = 3480.27465
SN(ran) = 69.9072603
SN(data+ran) = 3550.18191
############################
13 columns: k_central k_mean P_0(k) sigma^{lin}_{P_0(k)} P^img_1(k) sigma^{lin}_{P_1(k)} P_2(k) sigma^{lin}_{P_2(k)} P^img_3(k) sigma^{lin}_{P_3(k)} P_4(k) sigma^{lin}_{P_4(k)} N_modes
### header ###
0.00050000 0 0 0 0 0 0 0 0 0 0 0 0
0.00150000 0.00179520 35962.46811797 0 -10983.38083338 0 39475.16316669 0 -48745.46712110 0 -132004.25648790 0 3
0.00250000 0.00253879 54615.57084695 0 4720.80748200 0 18175.88552930 0 50401.99763722 0 101322.84441543 0 6
0.00350000 0.00331552 52299.79411113 0 3972.10795009 0 16167.14436070 0 4143.68469548 0 65563.44273464 0 7
0.00450000 0.00420575 52278.97814047 0 -14783.76809786 0 8532.96462776 0 5283.95699460 0 4106.28238224 0 24
0.00550000 0.00557378 92100.37290424 0 -30783.49890730 0 10611.62752759 0 30431.73114781 0 -51007.21091180 0 45
0.00650000 0.00659388 90434.98452826 0 -10534.67487010 0 30075.75590489 0 -7970.63446720 0 36516.97014489 0 40
0.00750000 0.00754703 92828.37826106 0 15887.56815903 0 5144.78894396 0 -26347.15052221 0 -17991.42059782 0 57
0.00850000 0.00846663 80075.05308845 0 15492.83977924 0 -2295.75797255 0 6558.61410005 0 7133.51134929 0 75
0.00950000 0.00948925 67991.71429061 0 6059.90551789 0 -12614.92111238 0 -5414.23396842 0 -20609.80397093 0 112
0.01050000 0.01054430 69568.74551453 0 1051.24527142 0 -15606.44183188 0 -7628.59928123 0 -11575.67270490 0 105
0.01150000 0.01145670 71234.46606025 0 -3459.03856264 0 -14443.29410968 0 -22248.06515110 0 -35778.11390974 0 144
0.01250000 0.01249090 62099.24446863 0 9609.33854036 0 -13278.48553876 0 -24612.22794638 0 -16045.68095744 0 169
0.01350000 0.01339930 61980.10625358 0 4999.79685046 0 -6740.04521453 0 -25206.47961939 0 -17595.47426230 0 180
0.01450000 0.01448870 64722.83183440 0 -11132.22609592 0 -9302.02616502 0 3765.14405458 0 -37591.64999179 0 267
0.01550000 0.01550050 65705.50066206 0 -8014.09334211 0 1487.10180174 0 -11952.24247198 0 -41224.59048803 0 238
0.01650000 0.01653350 75360.12501093 0 11432.17537525 0 3537.85137070 0 -22147.97133474 0 -47146.62341729 0 315
0.01750000 0.01747870 65775.47775491 0 7059.45964090 0 5566.64451955 0 -19135.63464458 0 -33705.70687343 0 297
0.01850000 0.01844180 62973.62595955 0 4002.08073337 0 9880.28940100 0 -12441.19633598 0 -27157.64469893 0 388
0.01950000 0.01947590 61174.59462302 0 -1756.71291108 0 15659.81043751 0 10832.48719075 0 -23838.93678104 0 399
0.02050000 0.02045430 62374.72391011 0 -4413.41760039 0 18429.22032115 0 196.14401970 0 -27335.35551227 0 462
0.02150000 0.02154770 67460.90703881 0 -2555.52578512 0 16969.99863330 0 1849.35505283 0 -23750.02601275 0 571
0.02250000 0.02255340 66280.48648989 0 6587.97790547 0 31800.27049539 0 -7631.92097867 0 -16958.04052249 0 510
0.02350000 0.02348930 66368.17930246 0 9924.75585747 0 31652.23351257 0 -12284.41221654 0 -3081.98161327 0 555
0.02450000 0.02439640 59325.18420856 0 6849.98232765 0 37237.55704409 0 -523.86158245 0 11642.21737706 0 592
0.02550000 0.02547300 58885.39146677 0 -577.81812852 0 42406.22899268 0 3658.67257912 0 6619.84405630 0 837
0.02650000 0.02652900 58350.04456178 0 -7208.75886875 0 41969.75794833 0 16954.60810180 0 687.31345588 0 723
0.02750000 0.02749970 68984.90182685 0 -4266.85323676 0 47831.55743057 0 13715.51019935 0 -17085.04008816 0 826
0.02850000 0.02848090 66575.56394631 0 -5.42373402 0 31211.00136854 0 6349.29179935 0 -2567.05207525 0 831
0.02950000 0.02946900 62628.28014846 0 3960.89168505 0 26308.06521560 0 3167.37138227 0 1302.17183262 0 996
0.03050000 0.03053250 66647.42333438 0 -1577.11980252 0 26180.73348019 0 8330.88362750 0 634.55604259 0 1041
0.03150000 0.03150510 59670.53001966 0 749.15239000 0 22404.51710079 0 9500.86297411 0 3264.97392555 0 1036
0.03250000 0.03246190 63457.26510763 0 2672.50489683 0 21759.66490335 0 8603.53962616 0 7.64531849 0 1059
0.03350000 0.03345080 57994.18004211 0 3433.49470929 0 16085.98421978 0 3155.39112682 0 7047.41295150 0 1302
0.03450000 0.03451200 58267.00212564 0 3801.76023276 0 17142.72690047 0 -268.08534297 0 6479.63520712 0 1339
0.03550000 0.03553350 53607.32494897 0 1647.15225700 0 16631.40694034 0 904.33102233 0 11541.45922121 0 1365
0.03650000 0.03647120 51718.93995115 0 1970.41985240 0 15038.32084544 0 2515.15608883 0 5932.16410646 0 1308
0.03750000 0.03744890 48996.14455499 0 3753.01985890 0 14414.50606515 0 2043.04323089 0 5468.95339767 0 1579
0.03850000 0.03847530 46728.20026239 0 3470.15517676 0 15045.29641007 0 -1840.39754206 0 -344.07249374 0 1662
0.03950000 0.03950240 43422.55768778 0 2570.17447085 0 11530.94051263 0 1199.57567085 0 -2522.66312506 0 1683
0.04050000 0.04050350 42234.16506500 0 413.62994548 0 10296.80811602 0 -1053.09988583 0 -4201.67046056 0 1822
0.04150000 0.04152450 42645.94482500 0 -451.15848322 0 14231.36981265 0 -836.70679850 0 -4922.47880625 0 1887
0.04250000 0.04250150 43500.72830100 0 875.52969101 0 13817.15414119 0 -4443.41252832 0 -3435.74239123 0 1920
0.04350000 0.04349210 42663.88199121 0 -138.51921241 0 16731.39003346 0 -2470.66748771 0 -6193.39346591 0 2005
0.04450000 0.04448520 43862.46115283 0 -1789.44270324 0 17761.89130433 0 -1077.91407298 0 -5516.81905786 0 2151
0.04550000 0.04548030 46036.62285422 0 -944.54570607 0 21016.49046152 0 824.46302172 0 -11477.79335351 0 2274
0.04650000 0.04648670 44872.25717629 0 829.72126877 0 19890.32430422 0 1173.24568243 0 -10355.66859476 0 2311
0.04750000 0.04749250 44389.72526069 0 3283.66400984 0 17611.19696355 0 -1639.73379937 0 -13033.67643702 0 2568
0.04850000 0.04851840 39464.20156512 0 3467.58639740 0 16694.74063831 0 -2121.97783452 0 -7174.15785369 0 2493
0.04950000 0.04949480 39168.01687622 0 1759.51420926 0 17210.48952836 0 2673.13601934 0 -12011.59013301 0 2644
0.05050000 0.05050630 36562.03450690 0 882.19523055 0 13969.17716095 0 1994.04819356 0 -8577.79647095 0 2829
0.05150000 0.05149060 37618.22357135 0 -27.60961700 0 14559.77496678 0 4388.19484445 0 -9591.62282065 0 2784
0.05250000 0.05249300 37033.82626742 0 -391.53844300 0 14230.70547317 0 3170.15053580 0 -6439.07728131 0 3055
0.05350000 0.05348950 37000.72001621 0 379.62129980 0 11176.62611844 0 4142.49995672 0 -4119.97884804 0 3009
0.05450000 0.05448610 36113.60535175 0 1117.20864653 0 11983.57715122 0 2613.52262252 0 548.14872694 0 3336
0.05550000 0.05550870 35669.82657301 0 570.23801495 0 12234.14386187 0 2308.29184424 0 1975.32489230 0 3349
0.05650000 0.05647670 34761.67449139 0 898.81036118 0 11615.09018126 0 3308.60995766 0 4039.18409384 0 3324
0.05750000 0.05747970 33761.40066727 0 570.35316713 0 12261.71395067 0 600.33591550 0 4458.23837125 0 3639
0.05850000 0.05849280 34260.31962360 0 1624.66436529 0 14277.31996065 0 -2026.87763665 0 5577.19644510 0 3846
0.05950000 0.05951020 33102.26517082 0 1020.55167979 0 15181.81817509 0 -2691.11747485 0 7423.68376581 0 3787
0.06050000 0.06049470 32553.74219930 0 282.64545011 0 17316.78384662 0 -1012.49988518 0 10188.52077930 0 3930
0.06150000 0.06148310 33023.31949486 0 367.94442605 0 17599.46029924 0 936.32893382 0 7336.52242484 0 4083
0.06250000 0.06249100 32972.94041694 0 -451.83610950 0 17852.57364459 0 2543.34622782 0 8347.07136638 0 4303
0.06350000 0.06350600 33863.93039509 0 107.80535843 0 17433.59687346 0 2986.53817333 0 5683.95580100 0 4470
0.06450000 0.06451750 32489.74416185 0 374.91445452 0 15155.57676527 0 -74.90317017 0 5947.67643353 0 4479
0.06550000 0.06550280 32206.51409299 0 1847.91565061 0 14690.87129263 0 166.22991973 0 4099.87150617 0 4636
0.06650000 0.06648880 30911.60570545 0 1405.90844385 0 14936.12328736 0 -1417.05827494 0 1908.08266367 0 4653
0.06750000 0.06749660 29471.09624654 0 658.86643896 0 15069.65552467 0 -1353.86851720 0 2263.17212061 0 5220
0.06850000 0.06852730 29839.91538625 0 484.66444536 0 16466.20785405 0 170.62895439 0 95.56744997 0 5029
0.06950000 0.06949320 28685.62552391 0 537.28899075 0 16626.20294768 0 -604.11489997 0 1178.09536070 0 5040
0.07050000 0.07048030 29408.86978106 0 864.24699202 0 16629.96753812 0 1427.11194588 0 -696.48023360 0 5475
0.07150000 0.07148790 28790.59116319 0 -346.78853502 0 14847.21251907 0 1445.89060877 0 2863.70180180 0 5509
0.07250000 0.07249820 28816.83257301 0 -320.89701066 0 14650.45730704 0 2733.02622429 0 504.14287918 0 5916
0.07350000 0.07351270 28753.05598205 0 196.13848353 0 13110.85054101 0 2999.55922732 0 1170.97585585 0 5721
0.07450000 0.07449140 28302.96597818 0 876.93255457 0 12731.51269272 0 2982.60749802 0 -138.04310244 0 6028
0.07550000 0.07549160 26761.69836342 0 1027.44973815 0 9168.38320446 0 2375.43442194 0 -566.11578842 0 6183
0.07650000 0.07648840 25611.28381476 0 547.28730007 0 9321.31415485 0 1633.44471887 0 1042.52692286 0 6330
0.07750000 0.07749960 25358.61336240 0 256.93219018 0 7952.96303679 0 1196.15432248 0 1499.54709484 0 6583
0.07850000 0.07848650 25337.57594525 0 -713.57590312 0 7834.79918632 0 672.94932890 0 2222.60312247 0 6549
0.07950000 0.07947320 25882.88794256 0 -407.21796218 0 8309.54725757 0 337.41249036 0 368.70398753 0 6828
0.08050000 0.08048110 26372.28469955 0 498.84698622 0 8528.20352809 0 -1232.26117372 0 1560.69954481 0 7147
0.08150000 0.08149960 25467.45431537 0 1357.32308254 0 9086.43692847 0 -1467.59236541 0 1077.11465113 0 7386
0.08250000 0.08250610 24770.34074479 0 1098.50527544 0 10029.04608493 0 -1451.69250697 0 1237.28800918 0 7227
0.08350000 0.08350160 23805.27691359 0 925.29646937 0 10696.13151061 0 -751.43882507 0 -491.71862350 0 7798
0.08450000 0.08449610 23640.63144354 0 497.49394812 0 10364.36036974 0 -211.68845651 0 -509.21068225 0 7371
0.08550000 0.08548940 23585.38054269 0 -130.83723345 0 10641.92140830 0 902.80525597 0 -66.65628119 0 8256
0.08650000 0.08650700 22946.72884716 0 214.47978960 0 10223.18822830 0 808.87872453 0 -900.95174880 0 8037
0.08750000 0.08749060 23009.17675913 0 456.31375766 0 9911.30298281 0 1217.05887174 0 -1046.61703964 0 8155
0.08850000 0.08849210 22390.56597151 0 625.63285602 0 9863.00550195 0 1690.75507213 0 -175.12099656 0 8718
0.08950000 0.08949900 21758.66839411 0 461.42585003 0 8838.36149091 0 611.89985155 0 669.88561662 0 8571
0.09050000 0.09049190 21260.63522377 0 679.01474843 0 8856.73047779 0 349.15801253 0 -184.66534056 0 8932
0.09150000 0.09150830 20905.43504359 0 514.22755262 0 8951.19955314 0 67.82861895 0 417.25723909 0 9285
0.09250000 0.09250820 20550.12414016 0 474.20552733 0 9373.02191175 0 -367.49710413 0 522.91157698 0 9204
0.09350000 0.09350330 19768.63945446 0 691.38364249 0 8681.00161059 0 -40.68415031 0 -22.98216029 0 9349
0.09450000 0.09448040 19568.45182174 0 283.79807912 0 8826.14871664 0 1412.27503062 0 425.34335791 0 9564
0.09550000 0.09549270 18762.82946793 0 406.05979700 0 7573.68055013 0 1892.23816686 0 191.39731405 0 10155
0.09650000 0.09649430 18812.43348312 0 191.79923944 0 6985.18648601 0 1836.14576933 0 471.63896244 0 9913
0.09750000 0.09749140 18246.52696164 0 -1.20651802 0 5436.62220920 0 1166.29226245 0 612.60294417 0 10476
0.09850000 0.09850240 18084.76029604 0 442.63500758 0 6012.78170347 0 418.00794272 0 1157.58941514 0 10575
0.09950000 0.09950330 17875.38263372 0 170.89579741 0 5332.09946292 0 204.10502124 0 1300.47776692 0 10882
0.10050000 0.10051200 17569.89719197 0 252.10244210 0 5499.91161787 0 395.00186621 0 2117.73713411 0 10875
0.10150000 0.10150300 17677.29874271 0 17.40713402 0 5022.38439309 0 -442.90185061 0 1435.12830904 0 11118
0.10250000 0.10250800 17739.74665469 0 -4.98036492 0 5492.92498091 0 -450.51075222 0 492.24234446 0 11575
0.10350000 0.10349800 17465.26372244 0 738.99796091 0 6185.34388577 0 -1030.78250792 0 324.81882811 0 11364
0.10450000 0.10450100 17086.92238338 0 932.52559025 0 6756.94158220 0 -896.82066441 0 116.66022875 0 12093
0.10550000 0.10551000 16321.93546166 0 578.96300691 0 6786.82578689 0 -371.44992409 0 -132.18030645 0 12067
0.10650000 0.10649700 16107.35380668 0 38.92664020 0 6484.07520937 0 478.33107556 0 155.01365469 0 12054
0.10750000 0.10749900 15971.05348816 0 -101.15830967 0 6463.76856565 0 1004.55881382 0 -358.08673526 0 12807
0.10850000 0.10850100 16085.09843379 0 53.62072246 0 6217.24325357 0 1096.51890037 0 -554.55849577 0 12736
0.10950000 0.10950300 15726.57655616 0 454.64848001 0 5411.99735881 0 749.65285908 0 -200.26956792 0 12933
0.11050000 0.11050200 15263.97482524 0 607.99907151 0 4976.35673882 0 829.58286471 0 126.80137106 0 13428
0.11150000 0.11150900 14781.55363289 0 78.23948308 0 4767.20052299 0 275.08858842 0 187.91728236 0 13453
0.11250000 0.11250000 14643.59246565 0 214.54843801 0 4865.24595926 0 537.60455201 0 -317.99606156 0 13668
0.11350000 0.11349100 14407.19833077 0 198.89438518 0 4544.71322809 0 -176.44303215 0 -751.08118898 0 13791
0.11450000 0.11448600 14284.95986478 0 418.84168877 0 4682.38651488 0 -804.75981970 0 -478.73078649 0 14205
0.11550000 0.11549300 14201.58525889 0 217.76384114 0 5314.89307015 0 -435.31620087 0 -434.33962182 0 14776
0.11650000 0.11649800 14102.82012151 0 1.20400460 0 5115.56907876 0 -446.46271027 0 -171.95984783 0 14553
0.11750000 0.11747300 14234.35934036 0 -86.54106934 0 5679.72617292 0 168.15096809 0 -473.23448445 0 14568
0.11850000 0.11849100 14276.32345142 0 90.54116812 0 5830.59767090 0 426.78608183 0 -1000.80861741 0 16015
0.11950000 0.11950300 14164.82514049 0 191.95535922 0 5178.82527045 0 426.91230634 0 -808.95069465 0 15270
0.12050000 0.12050700 14123.52536892 0 217.88674394 0 5330.83721789 0 293.49965013 0 -709.16911784 0 15999
0.12150000 0.12150000 13869.19406784 0 228.06221045 0 5032.67058284 0 -288.75294448 0 -290.32078567 0 15670
0.12250000 0.12250700 13557.72957069 0 336.90759235 0 4975.88062885 0 748.50023007 0 -368.50025675 0 16887
0.12350000 0.12352200 13554.18642675 0 -154.69477174 0 4520.87451275 0 809.98817148 0 60.51313394 0 16407
0.12450000 0.12449800 13299.63367917 0 138.08628451 0 4559.68301124 0 371.66361996 0 37.72208198 0 16306
0.12550000 0.12549900 13233.08900701 0 376.05379675 0 4606.66288545 0 264.95962568 0 10.49593281 0 17523
0.12650000 0.12650100 13029.13678385 0 379.01785810 0 4362.35203832 0 -177.64659386 0 392.02451806 0 17154
0.12750000 0.12750600 12606.50614552 0 366.65892914 0 4804.96822295 0 -564.87347358 0 844.53714661 0 18007
0.12850000 0.12850300 12518.92405620 0 199.26198637 0 4927.91531774 0 -31.91298676 0 837.85721305 0 17496
0.12950000 0.12949900 12308.10699166 0 -52.97288074 0 4442.01741539 0 419.66325528 0 815.81553603 0 18405
0.13050000 0.13049000 12550.48018194 0 -168.39898817 0 4444.75227962 0 678.36148127 0 591.00637461 0 18100
0.13150000 0.13148800 12440.19982674 0 61.68480735 0 3936.66543835 0 572.87433549 0 252.91404351 0 19059
0.13250000 0.13249300 12317.07557476 0 338.07240092 0 3904.89893844 0 684.76460671 0 378.04792245 0 18957
0.13350000 0.13349100 11820.81397639 0 369.19449152 0 3644.34499081 0 56.13591177 0 195.72659305 0 19468
0.13450000 0.13450700 11676.98447699 0 309.67078053 0 3696.99389532 0 201.21625170 0 533.74806128 0 19953
0.13550000 0.13551000 11500.71306588 0 -57.70607815 0 3721.60767339 0 330.83220772 0 1039.47539014 0 19956
0.13650000 0.13649900 11709.86928170 0 -167.40690786 0 3479.16804916 0 283.18135063 0 1163.97814656 0 19723
0.13750000 0.13749600 11811.07033055 0 -318.67036614 0 3284.33942166 0 100.86057485 0 1306.67826882 0 20946
0.13850000 0.13851100 12037.38864984 0 18.21973194 0 3036.49650292 0 655.01105546 0 604.17690498 0 20955
0.13950000 0.13949800 12073.26298225 0 231.42487550 0 3024.06228214 0 -32.78792187 0 513.99171210 0 20506
0.14050000 0.14048300 11727.25283167 0 310.69939950 0 3056.31596434 0 -520.65835888 0 124.59244225 0 21447
0.14150000 0.14148400 11458.41678507 0 451.71431393 0 3060.36843522 0 -159.95191156 0 362.29975486 0 21771
0.14250000 0.14249400 11072.76771164 0 290.22334922 0 3152.95521536 0 -305.06580064 0 237.75935253 0 22470
0.14350000 0.14350900 10942.67896734 0 73.40729908 0 3378.54276121 0 262.20483126 0 149.82627052 0 22519
0.14450000 0.14449900 11039.60609881 0 -44.04028269 0 3509.07439850 0 609.01661816 0 178.98634516 0 22218
0.14550000 0.14550500 10920.92184908 0 141.26182727 0 3334.55241471 0 -26.49994860 0 174.74343029 0 23559
0.14650000 0.14650700 10885.80043475 0 380.14944970 0 3428.36822290 0 -34.29409021 0 665.00936477 0 23044
0.14750000 0.14750500 10557.37313598 0 201.81747893 0 3793.53349542 0 -13.83675216 0 1004.10595574 0 23649
0.14850000 0.14849900 10382.80686289 0 177.18487791 0 3520.88856908 0 227.95259444 0 1189.92060361 0 23640
0.14950000 0.14949500 10266.55852462 0 103.56166849 0 3806.99744240 0 296.00531724 0 715.76933067 0 24457
0.15050000 0.15050000 10181.00267075 0 204.45158501 0 3476.98680118 0 339.76314492 0 730.37261987 0 24591
0.15150000 0.15149900 10110.29480445 0 160.16892913 0 3343.91960150 0 -187.98150184 0 507.36160400 0 25020
0.15250000 0.15250500 9872.14016993 0 55.61396238 0 3373.06196043 0 -110.41776274 0 560.31167575 0 25297
0.15350000 0.15350100 9916.61769873 0 98.43518210 0 3392.88142185 0 -118.35983061 0 364.26841421 0 25452
0.15450000 0.15450400 9843.81716304 0 195.87164051 0 3601.98227605 0 -142.14429156 0 275.22145632 0 26061
0.15550000 0.15549900 9638.11551256 0 173.79453205 0 3359.08868651 0 -44.28221299 0 161.37027637 0 26128
0.15650000 0.15649500 9721.74478192 0 38.30714362 0 3288.20366302 0 394.79592097 0 132.02972283 0 26331
0.15750000 0.15749700 9492.03833123 0 -2.15502872 0 3187.05797580 0 282.02982885 0 66.92113120 0 27345
0.15850000 0.15849900 9528.66558173 0 181.86072068 0 3149.20169724 0 20.55842838 0 -413.48379080 0 26980
0.15950000 0.15949700 9311.22726694 0 230.22906442 0 2974.74614740 0 107.47219217 0 -350.75685623 0 27777
0.16050000 0.16050000 9091.04301560 0 206.45013964 0 2942.84677960 0 -49.75747761 0 78.87337368 0 28224
0.16150000 0.16150500 8999.10950263 0 7.49161248 0 2828.72432769 0 385.75315329 0 238.47462471 0 28075
0.16250000 0.16249700 9087.14555726 0 86.28396995 0 2876.25781814 0 324.53869829 0 198.07392591 0 28590
0.16350000 0.16349900 8868.11282770 0 195.30916641 0 2607.86466454 0 485.72406684 0 153.25536951 0 29163
0.16450000 0.16449100 8674.33607105 0 109.26723747 0 2524.72257747 0 238.06384146 0 607.65140051 0 28996
0.16550000 0.16550500 8705.38286984 0 73.47550460 0 2323.50521854 0 312.70349030 0 626.47103101 0 30777
0.16650000 0.16650700 8556.84763240 0 13.34525166 0 2332.68417582 0 267.99676438 0 589.29016427 0 29211
0.16750000 0.16749900 8613.08397015 0 81.36331808 0 2057.58119337 0 -76.81325692 0 372.39992956 0 30922
0.16850000 0.16850800 8532.36672222 0 7.85621306 0 2028.01808611 0 -176.27805451 0 637.09603390 0 30867
0.16950000 0.16949900 8573.00215431 0 1.75743261 0 1960.59870029 0 -117.00679252 0 152.41387283 0 30852
0.17050000 0.17049200 8498.05358761 0 61.15865048 0 2236.77569824 0 63.41762618 0 137.20714192 0 31257
0.17150000 0.17149500 8447.37555692 0 232.94621293 0 2160.59810349 0 -257.39944229 0 -244.59097694 0 32608
0.17250000 0.17250900 8296.58156521 0 344.04481293 0 2256.68373826 0 -192.25431199 0 41.84142970 0 32361
0.17350000 0.17350400 8053.37795057 0 146.23108665 0 2092.03826821 0 130.70768725 0 374.50477850 0 32508
0.17450000 0.17449800 8126.84282574 0 -83.41358047 0 2240.62886728 0 239.52760280 0 475.20646550 0 32791
0.17550000 0.17549800 8039.79220802 0 -93.37191869 0 2023.02446761 0 553.45237052 0 146.00853292 0 33633
0.17650000 0.17650100 8184.34140852 0 0.18325473 0 1992.25447694 0 216.06423928 0 110.24182350 0 33984
0.17750000 0.17750300 8112.24950163 0 160.43798662 0 1770.15471341 0 -111.44294930 0 -17.60942539 0 34069
