### header ###
fiducial parameters:
Omega_m = 0.31
Omega_nu = 0
Omega_de = 0.69
Omega_k = 0
H_0 = 100
w_de = -1
zeff = 0
beta = 0
fgrowth = 0
b_1 = 2
gamma = 0.55
Lx = 3500 Ly = 3500 Lz = 3500
nx = 700 ny = 700 nz = 700
xoffset = -685.467585 yoffset = -31.7331281 zoffset = 572.489161
bins = 400 dk = 0.001
kx_ny = 0.628318531 ky_ny = 0.628318531 kz_ny = 0.628318531
############################
A(data) = 7.99177963 (not used)
A(ran) = 7.99566026 (used)
Ngal = 475531
weighted Ngal = 0
Nran = 23820508
weighted Nran = 0
SN(data) = 3480.86391
SN(ran) = 69.6451006
SN(data+ran) = 3550.50901
############################
13 columns: k_central k_mean P_0(k) sigma^{lin}_{P_0(k)} P^img_1(k) sigma^{lin}_{P_1(k)} P_2(k) sigma^{lin}_{P_2(k)} P^img_3(k) sigma^{lin}_{P_3(k)} P_4(k) sigma^{lin}_{P_4(k)} N_modes
### header ###
0.00050000 0 0 0 0 0 0 0 0 0 0 0 0
0.00150000 0.00179520 103619.57675256 0 -94037.25468476 0 -3490.87149650 0 129663.56702124 0 -220164.32115893 0 3
0.00250000 0.00253879 151040.90454860 0 -49864.43626727 0 41744.43613827 0 -41300.21446654 0 143283.63378066 0 6
0.00350000 0.00331552 144159.45467381 0 27079.69553221 0 38624.47645087 0 -118914.55408730 0 53369.04851887 0 7
0.00450000 0.00420575 110110.28428450 0 72087.14579453 0 21078.82765025 0 -38214.57898608 0 92112.22029179 0 24
0.00550000 0.00557378 51123.24887590 0 21174.27109019 0 41772.33839681 0 15480.77094519 0 25651.25490736 0 45
0.00650000 0.00659388 51677.97234932 0 -1543.78103249 0 67611.93354933 0 64670.34901476 0 46813.45716349 0 40
0.00750000 0.00754703 53947.90966039 0 -9103.16721127 0 57398.59969012 0 62397.97579223 0 -37043.56991326 0 57
0.00850000 0.00846663 74995.51335465 0 -16105.58223471 0 26858.91337533 0 48039.93858365 0 22800.46343630 0 75
0.00950000 0.00948925 73932.90234180 0 -6161.78197855 0 -4448.84903981 0 29673.60906748 0 24908.85552827 0 112
0.01050000 0.01054430 89462.61296269 0 -7686.45217840 0 2913.54940813 0 -3090.59588198 0 28223.57740923 0 105
0.01150000 0.01145670 92174.77892702 0 -8589.75458176 0 -5267.14920553 0 14626.87325518 0 14209.44660951 0 144
0.01250000 0.01249090 94347.72267268 0 -4291.43379786 0 -485.69749326 0 -8503.20221865 0 7277.60658448 0 169
0.01350000 0.01339930 89564.03545803 0 13161.22961893 0 -10843.82525136 0 -6473.20218640 0 7953.16233864 0 180
0.01450000 0.01448870 74179.70446201 0 13924.88786167 0 4339.18873480 0 -9368.26081208 0 14736.59999413 0 267
0.01550000 0.01550050 66899.87234025 0 12470.75944324 0 5049.71089074 0 7555.20084000 0 12951.85195661 0 238
0.01650000 0.01653350 60300.32385534 0 -2429.84382610 0 7489.53088150 0 9394.51329423 0 1846.57589930 0 315
0.01750000 0.01747870 62054.06938337 0 -2160.23271677 0 8166.73641206 0 6622.65642680 0 4424.25740639 0 297
0.01850000 0.01844180 67914.76163312 0 -3639.98249483 0 13705.76655351 0 -3872.88884739 0 -6354.25220087 0 388
0.01950000 0.01947590 69203.24807227 0 -5071.80017875 0 9475.23054216 0 2796.81388757 0 8523.09918635 0 399
0.02050000 0.02045430 69325.48653827 0 2427.56292719 0 17894.20558591 0 -2043.49719620 0 3431.86707754 0 462
0.02150000 0.02154770 78244.57634943 0 -1630.08980445 0 18998.11637033 0 4025.67585756 0 -5176.94297523 0 571
0.02250000 0.02255340 76700.20848373 0 2477.18908703 0 28363.75304143 0 -10154.30729561 0 9852.48679338 0 510
0.02350000 0.02348930 75119.30194612 0 5230.31158086 0 23311.78339643 0 -9566.84295770 0 -7188.27506784 0 555
0.02450000 0.02439640 70256.00471603 0 1126.75299052 0 28909.72937824 0 -6531.04401125 0 -259.48989722 0 592
0.02550000 0.02547300 72630.57549663 0 -1887.67636903 0 34844.82765078 0 -5580.26347908 0 -13548.65026434 0 837
0.02650000 0.02652900 72573.77447031 0 4321.86054646 0 33599.96617142 0 -4045.19636622 0 -16052.10290583 0 723
0.02750000 0.02749970 68048.40459368 0 6787.31296918 0 30135.98935190 0 7207.57413000 0 -25499.89622709 0 826
0.02850000 0.02848090 62597.60980871 0 2540.27919384 0 21022.35879367 0 6255.16596607 0 -572.52002110 0 831
0.02950000 0.02946900 64001.69131897 0 -5394.92383394 0 17973.48343161 0 15133.43211563 0 -9806.23769261 0 996
0.03050000 0.03053250 64409.26359554 0 -2253.62777661 0 11357.65862922 0 15600.90566947 0 -8212.15508847 0 1041
0.03150000 0.03150510 64933.42745245 0 4253.35607281 0 933.62064317 0 9112.47903645 0 -4678.53334585 0 1036
0.03250000 0.03246190 58359.01314489 0 5579.65450121 0 6100.90633670 0 1035.10182183 0 8189.81113698 0 1059
0.03350000 0.03345080 57048.49277935 0 5147.31343402 0 5595.47685338 0 -3424.13859482 0 18600.28773960 0 1302
0.03450000 0.03451200 53958.64981546 0 2642.10029288 0 12057.31883451 0 -2014.21089706 0 16331.56838426 0 1339
0.03550000 0.03553350 51695.46662253 0 3665.81422863 0 16445.61332989 0 -1491.38679145 0 17558.04980442 0 1365
0.03650000 0.03647120 49167.87631293 0 2941.23022018 0 22057.73188747 0 -4815.99625847 0 14162.05705929 0 1308
0.03750000 0.03744890 46440.31981710 0 3422.16772100 0 22346.60884198 0 -2488.05103767 0 14805.13768476 0 1579
0.03850000 0.03847530 44113.91364946 0 1882.32843614 0 23803.94823461 0 -146.86442363 0 15031.23455755 0 1662
0.03950000 0.03950240 44225.52268363 0 591.23335727 0 23718.80205676 0 3756.51871355 0 10024.26284061 0 1683
0.04050000 0.04050350 42440.88536936 0 -1199.65317713 0 22445.37397937 0 6813.49901738 0 10979.93734036 0 1822
0.04150000 0.04152450 43443.70582819 0 -232.74580385 0 18216.07806839 0 4634.62050561 0 5626.44614589 0 1887
0.04250000 0.04250150 44948.76694078 0 -1374.76199413 0 17595.25281581 0 4435.06399541 0 2698.55807713 0 1920
0.04350000 0.04349210 44702.51843682 0 1402.71961430 0 16093.40267741 0 -2491.11807165 0 3594.69668632 0 2005
0.04450000 0.04448520 43598.60765240 0 2885.76894516 0 17252.34291617 0 -1062.94428982 0 7687.44868764 0 2151
0.04550000 0.04548030 41658.62562092 0 1006.14879967 0 19563.13710583 0 -554.45773762 0 7543.45310337 0 2274
0.04650000 0.04648670 41189.26977186 0 1367.81964647 0 19219.45214345 0 661.13405108 0 6022.65821720 0 2311
0.04750000 0.04749250 41060.49863422 0 63.84368924 0 20023.63509503 0 2539.78093923 0 5322.13437058 0 2568
0.04850000 0.04851840 41033.70360816 0 344.12010474 0 18990.80863595 0 2891.27189059 0 5037.04415115 0 2493
0.04950000 0.04949480 40148.13906916 0 1321.53732873 0 16474.95499066 0 2814.45210100 0 5530.22764322 0 2644
0.05050000 0.05050630 38681.94181668 0 1596.72888977 0 15534.69316706 0 2563.67501618 0 3753.20808843 0 2829
0.05150000 0.05149060 37480.81602035 0 1039.71123066 0 11309.38329301 0 1846.31016351 0 2310.26271806 0 2784
0.05250000 0.05249300 36843.27155729 0 418.14523954 0 11613.65077903 0 401.53453785 0 2457.08174516 0 3055
0.05350000 0.05348950 35754.08696488 0 1088.48482148 0 13602.46176296 0 1120.22031888 0 289.83028169 0 3009
0.05450000 0.05448610 34341.36904127 0 809.97156299 0 11114.73182270 0 146.90096230 0 -1476.60523781 0 3336
0.05550000 0.05550870 33448.49676790 0 848.33384679 0 10901.25740020 0 1912.15727921 0 -58.59507511 0 3349
0.05650000 0.05647670 33767.60116917 0 -799.73962763 0 9990.22651412 0 3659.23726769 0 -417.24505954 0 3324
0.05750000 0.05747970 34477.11574355 0 -810.94371311 0 8814.93245160 0 2546.22503227 0 494.91631091 0 3639
0.05850000 0.05849280 35440.85089576 0 643.05958805 0 9372.86689921 0 649.61883327 0 1018.64834715 0 3846
0.05950000 0.05951020 33096.39683866 0 1221.99712861 0 9308.74706618 0 -1519.89802786 0 1232.63763276 0 3787
0.06050000 0.06049470 33089.64272052 0 1927.76925720 0 11301.74338889 0 -1512.37991930 0 3320.26911569 0 3930
0.06150000 0.06148310 30911.27353570 0 414.57330756 0 11149.83109238 0 -1090.93734143 0 4046.52504520 0 4083
0.06250000 0.06249100 32358.98000574 0 -343.80011455 0 13366.73196757 0 774.08394379 0 1349.98213119 0 4303
0.06350000 0.06350600 32328.19894275 0 238.19117320 0 12914.53822197 0 -1923.12995310 0 625.48116517 0 4470
0.06450000 0.06451750 32228.88018912 0 269.72847598 0 14025.09240128 0 -558.80583957 0 500.04279730 0 4479
0.06550000 0.06550280 31864.82214909 0 729.78025049 0 11989.00259038 0 740.31113863 0 3281.10630281 0 4636
0.06650000 0.06648880 31570.29830891 0 97.58549190 0 10609.32448403 0 3708.38731756 0 438.69104548 0 4653
0.06750000 0.06749660 31152.76094000 0 41.04610461 0 9634.31770515 0 3396.55743369 0 -1500.23357898 0 5220
0.06850000 0.06852730 30454.31869044 0 638.33945598 0 8348.96473393 0 1863.93730462 0 -4389.22457066 0 5029
0.06950000 0.06949320 29450.50172238 0 836.72119252 0 7990.14390353 0 201.38344380 0 -3167.60390109 0 5040
0.07050000 0.07048030 28172.31254532 0 901.03368400 0 6579.97261463 0 -362.79911671 0 -1448.00542281 0 5475
0.07150000 0.07148790 28335.96150614 0 631.59973186 0 8144.22637571 0 -779.95338318 0 -2350.77635457 0 5509
0.07250000 0.07249820 27720.22952297 0 716.96846345 0 7373.53720670 0 253.70903643 0 -1633.54436979 0 5916
0.07350000 0.07351270 26987.02017348 0 748.50023007 0 8369.17172672 0 830.79639151 0 -277.51010586 0 5721
0.07450000 0.07449140 26826.13929386 0 416.95385739 0 8158.35466217 0 -57.56413095 0 -333.76415933 0 6028
0.07550000 0.07549160 26187.04470533 0 667.17400427 0 8965.74858795 0 209.58692926 0 460.67403917 0 6183
0.07650000 0.07648840 25463.35755519 0 703.80125477 0 8624.79848981 0 -105.94232905 0 257.21010554 0 6330
0.07750000 0.07749960 25825.86546975 0 631.92525821 0 9414.54312982 0 -412.68769064 0 380.99537531 0 6583
0.07850000 0.07848650 24614.33168809 0 175.80748070 0 8257.29695675 0 543.07538770 0 -520.34722655 0 6549
0.07950000 0.07947320 24598.71971010 0 284.92413456 0 8231.99669454 0 1086.39436656 0 -627.07447271 0 6828
0.08050000 0.08048110 24323.79388485 0 109.20180003 0 7133.01309467 0 1371.57316458 0 -1772.60169719 0 7147
0.08150000 0.08149960 24088.83915220 0 445.25139793 0 7211.34979276 0 1026.55509431 0 -2535.32986465 0 7386
0.08250000 0.08250610 23876.47196218 0 186.70154109 0 6507.08350035 0 -55.52892692 0 -1239.61319740 0 7227
0.08350000 0.08350160 23710.05492015 0 679.93596586 0 7643.00437582 0 -555.61590279 0 -1312.35837145 0 7798
0.08450000 0.08449610 23225.08709310 0 783.00823760 0 8268.41357087 0 -1209.18644879 0 -941.62371955 0 7371
0.08550000 0.08548940 22798.58114108 0 859.50471530 0 9286.91244164 0 -1369.05974685 0 519.34961008 0 8256
0.08650000 0.08650700 21990.96576881 0 1271.33540800 0 10387.25793747 0 -1052.02587032 0 1214.75582818 0 8037
0.08750000 0.08749060 21405.01833941 0 382.58757562 0 11318.24115287 0 776.82655865 0 2337.60028804 0 8155
0.08850000 0.08849210 20893.58765603 0 -85.63258508 0 10325.51865428 0 2081.71886148 0 50.00295105 0 8718
0.08950000 0.08949900 20717.20552167 0 156.57706696 0 9979.75209484 0 1675.65242108 0 1384.45027835 0 8571
0.09050000 0.09049190 20790.28286548 0 160.05266972 0 9320.38407957 0 1603.20619979 0 221.56718471 0 8932
0.09150000 0.09150830 20287.15642572 0 225.04500194 0 7223.91688143 0 1110.41023909 0 1234.06596266 0 9285
0.09250000 0.09250820 20020.97773708 0 238.88651519 0 7877.33905828 0 188.80085388 0 1757.06722547 0 9204
0.09350000 0.09350330 19734.42597077 0 487.07599770 0 6644.54641297 0 490.68336113 0 926.68272444 0 9349
0.09450000 0.09448040 19352.43076453 0 488.31166915 0 7473.01097287 0 417.15315924 0 815.66605965 0 9564
0.09550000 0.09549270 18822.39857546 0 659.62157151 0 6680.36538376 0 246.40019482 0 930.37755923 0 10155
0.09650000 0.09649430 18619.44286153 0 217.16150667 0 7136.31264746 0 428.79349432 0 1314.38460690 0 9913
0.09750000 0.09749140 18493.10763535 0 14.42768213 0 6164.26217931 0 859.29766283 0 1785.98813790 0 10476
0.09850000 0.09850240 18450.14701505 0 232.57196835 0 6926.30386263 0 -303.15803907 0 1278.22239404 0 10575
0.09950000 0.09950330 18364.44722096 0 316.97851491 0 6604.29851225 0 63.80770419 0 597.20023312 0 10882
0.10050000 0.10051200 17659.91519275 0 477.06772330 0 6200.64583866 0 550.43626924 0 749.59528299 0 10875
0.10150000 0.10150300 17643.52815202 0 652.14110887 0 6475.85954436 0 -556.27359889 0 330.17783332 0 11118
0.10250000 0.10250800 16994.80064089 0 332.97027364 0 6758.27026118 0 47.55220268 0 292.09678658 0 11575
0.10350000 0.10349800 16643.14360465 0 580.81208515 0 7064.91829703 0 -141.05809649 0 952.33287212 0 11364
0.10450000 0.10450100 16274.54591144 0 218.64409096 0 6841.84416891 0 -148.81979619 0 886.91314816 0 12093
0.10550000 0.10551000 16296.80128432 0 -147.92404511 0 7620.74900293 0 610.88009043 0 307.62350767 0 12067
0.10650000 0.10649700 16369.98935138 0 171.23018162 0 7574.01271987 0 63.57684622 0 276.83469405 0 12054
0.10750000 0.10749900 16059.41064021 0 474.09812578 0 7166.66188979 0 443.31595555 0 627.00139537 0 12807
0.10850000 0.10850100 15990.43005659 0 94.55200707 0 7088.66843377 0 480.97182503 0 1240.67614058 0 12736
0.10950000 0.10950300 15831.76364194 0 -67.93901002 0 6593.51406788 0 1310.23248509 0 1274.76782870 0 12933
0.11050000 0.11050200 15674.64735276 0 109.67857434 0 6243.94970103 0 699.03572617 0 928.68681523 0 13428
0.11150000 0.11150900 15384.33099602 0 375.21119283 0 5429.71307852 0 1145.90811246 0 810.42220661 0 13453
0.11250000 0.11250000 15271.94689911 0 21.42649865 0 4612.02189066 0 1114.32984207 0 942.48625366 0 13668
0.11350000 0.11349100 14928.37265999 0 22.46818297 0 4496.02821586 0 308.24023616 0 555.58157859 0 13791
0.11450000 0.11448600 14917.85395141 0 304.84435414 0 4170.60151711 0 333.22161542 0 276.55124253 0 14205
0.11550000 0.11549300 14533.75500345 0 360.65219292 0 3987.12202254 0 -126.32304662 0 79.27031652 0 14776
0.11650000 0.11649800 14090.75128746 0 413.50814991 0 3982.59344169 0 -373.75850381 0 287.68889407 0 14553
0.11750000 0.11747300 14126.40417337 0 255.97775578 0 4153.48370295 0 -36.44688233 0 555.55943394 0 14568
0.11850000 0.11849100 13962.53376606 0 -34.79943112 0 4122.22652998 0 448.80229250 0 315.36527718 0 16015
0.11950000 0.11950300 14211.21818148 0 -182.78304534 0 4378.56192186 0 238.20224552 0 686.75098178 0 15270
0.12050000 0.12050700 14400.55493588 0 5.86956118 0 4694.96467588 0 107.61225708 0 631.30631525 0 15999
0.12150000 0.12150000 14312.52995357 0 268.03330305 0 4676.10850671 0 74.40380832 0 1454.99205977 0 15670
0.12250000 0.12250700 14038.60063756 0 288.40084455 0 4386.65579130 0 272.66042759 0 1267.24972014 0 16887
0.12350000 0.12352200 13946.14672533 0 321.77504602 0 4266.16675262 0 778.23052944 0 1793.83841619 0 16407
0.12450000 0.12449800 13558.94752642 0 146.27869764 0 3731.72777828 0 460.43598419 0 1113.92016606 0 16306
0.12550000 0.12549900 13283.35736168 0 374.51585083 0 3575.54156439 0 492.09729701 0 1179.72299245 0 17523
0.12650000 0.12650100 12961.92777220 0 84.78931683 0 3017.16422378 0 280.69118478 0 432.28570557 0 17154
0.12750000 0.12750600 12823.63443521 0 136.21838331 0 2720.09374890 0 343.05494709 0 695.78378437 0 18007
0.12850000 0.12850300 12596.98394617 0 287.53720322 0 2656.43895352 0 -21.89175774 0 248.54158244 0 17496
0.12950000 0.12949900 12521.35996766 0 198.00638473 0 2475.39537041 0 21.65447782 0 303.32744564 0 18405
0.13050000 0.13049000 12288.06608373 0 228.50067451 0 2736.70223613 0 -301.77953463 0 697.84766572 0 18100
0.13150000 0.13148800 12362.36138327 0 213.12342981 0 2863.18140253 0 -493.04730248 0 830.42657586 0 19059
0.13250000 0.13249300 12104.48693824 0 87.66767839 0 3341.46154540 0 -3.28428406 0 1127.63877651 0 18957
0.13350000 0.13349100 12073.04153576 0 246.01598515 0 3409.01379911 0 176.79291761 0 1279.06389073 0 19468
0.13450000 0.13450700 11930.98360833 0 -26.56549677 0 3343.94174615 0 301.96444245 0 1050.40156027 0 19953
0.13550000 0.13551000 12063.29788992 0 -69.79716758 0 3485.61214221 0 411.98791971 0 327.97554792 0 19956
0.13650000 0.13649900 11959.77165286 0 -60.81020441 0 3390.40122109 0 -276.94320283 0 -11.89189830 0 19723
0.13750000 0.13749600 11890.34817625 0 274.19062288 0 3114.06921059 0 -339.82514994 0 -118.74404029 0 20946
0.13850000 0.13851100 11913.37861187 0 299.76880044 0 3397.89718500 0 -365.40554197 0 84.41573659 0 20955
0.13950000 0.13949800 11426.41776635 0 208.26821537 0 3269.39178315 0 5.38698498 0 691.74127858 0 20506
0.14050000 0.14048300 11533.26570085 0 82.70993423 0 3292.51079737 0 450.91378484 0 199.64619604 0 21447
0.14150000 0.14148400 11416.89556700 0 122.44662570 0 3502.63030546 0 393.50156619 0 256.87572133 0 21771
0.14250000 0.14249400 11213.93985308 0 252.93950985 0 3542.34673458 0 38.09278341 0 474.27085405 0 22470
0.14350000 0.14350900 11037.64629731 0 369.95183854 0 3553.97267564 0 198.15586112 0 936.81722335 0 22519
0.14450000 0.14449900 10805.03889752 0 283.85897691 0 3333.44518223 0 -103.16804735 0 1332.23319450 0 22218
0.14550000 0.14550500 10555.83408283 0 126.74379497 0 3659.19297839 0 227.82083377 0 1287.35706201 0 23559
0.14650000 0.14650700 10487.77250217 0 152.51905991 0 3364.03801570 0 154.92396886 0 785.37882234 0 23044
0.14750000 0.14750500 10280.59823249 0 86.25905722 0 3433.53899859 0 -35.65853280 0 856.24280841 0 23649
0.14850000 0.14849900 10307.60363272 0 142.45653112 0 3208.20611620 0 -1.37944559 0 462.91064879 0 23640
0.14950000 0.14949500 10119.09730268 0 137.88476820 0 3257.58868489 0 -15.35421427 0 672.37799694 0 24457
0.15050000 0.15050000 10014.89565382 0 84.09408555 0 3303.80456869 0 119.40173638 0 252.75128033 0 24591
0.15150000 0.15149900 9942.40514323 0 115.82869716 0 3227.42767209 0 169.72545268 0 198.62422046 0 25020
0.15250000 0.15250500 9908.62348021 0 142.99907503 0 3439.16373959 0 -191.29544866 0 477.57594301 0 25297
0.15350000 0.15350100 9889.95554056 0 57.22598215 0 3287.07428589 0 115.94384934 0 574.24951823 0 25452
0.15450000 0.15450400 9754.80674383 0 38.43336812 0 3387.24560852 0 92.10900932 0 785.33564027 0 26061
0.15550000 0.15549900 9933.76872987 0 105.94985823 0 3222.89909124 0 314.75076315 0 359.50620730 0 26128
0.15650000 0.15649500 9590.44915422 0 249.80493470 0 3042.57520924 0 207.57398061 0 214.47425343 0 26331
0.15750000 0.15749700 9473.61398273 0 270.47142897 0 2948.62653315 0 18.38116643 0 389.68715029 0 27345
0.15850000 0.15849900 9142.80613412 0 156.58371035 0 2973.87143374 0 -37.46963297 0 180.06921853 0 26980
0.15950000 0.15949700 9308.16023297 0 107.94575551 0 2995.88321548 0 199.19887411 0 130.08320813 0 27777
0.16050000 0.16050000 8969.54639536 0 55.92398747 0 3091.14949822 0 -120.77249019 0 162.76317483 0 28224
0.16150000 0.16150500 9122.51056273 0 139.67848482 0 3033.28552872 0 -64.17242657 0 278.07590166 0 28075
0.16250000 0.16249700 8969.65711861 0 96.48401702 0 3296.05394131 0 331.74235282 0 338.99361835 0 28590
0.16350000 0.16349900 8890.67822568 0 167.66932196 0 3242.35316594 0 201.83519465 0 586.50879627 0 29163
0.16450000 0.16449100 8796.07628243 0 188.27824015 0 3115.17644308 0 332.85401423 0 916.46407587 0 28996
0.16550000 0.16550500 8597.58271541 0 122.24732386 0 3106.16357067 0 248.17951742 0 717.12679769 0 30777
0.16650000 0.16650700 8479.25278007 0 125.44501127 0 2794.20081891 0 202.93910544 0 927.81763774 0 29211
0.16750000 0.16749900 8340.67156264 0 0.66996866 0 2703.24167052 0 442.96274839 0 868.13780696 0 30922
0.16850000 0.16850800 8457.94962712 0 56.97342242 0 2613.69977972 0 174.66703125 0 685.18646229 0 30867
0.16950000 0.16949900 8358.42049932 0 -50.88176147 0 2268.74149999 0 327.33667478 0 401.16361497 0 30852
0.17050000 0.17049200 8410.85902966 0 30.83587100 0 2327.23659201 0 -61.62977790 0 326.29144731 0 31257
0.17150000 0.17149500 8256.46653239 0 173.19330481 0 2267.20244684 0 -234.88054808 0 252.55308572 0 32608
0.17250000 0.17250900 8115.82586255 0 182.40880076 0 2160.88598393 0 -134.49774404 0 360.60568916 0 32361
0.17350000 0.17350400 8071.09367028 0 109.95626825 0 2290.67577546 0 -114.28410785 0 502.53074868 0 32508
0.17450000 0.17449800 8017.79149860 0 57.04417457 0 2311.84606051 0 303.02849287 0 552.09158180 0 32791
0.17550000 0.17549800 8089.29657228 0 -117.81396500 0 2091.38500105 0 555.18851106 0 376.22320332 0 33633
0.17650000 0.17650100 8036.21584710 0 -79.33951855 0 2034.77220425 0 157.36984541 0 459.89122581 0 33984
0.17750000 0.17750300 8179.13741586 0 105.78200179 0 1807.14735063 0 258.29076444 0 457.24272571 0 34069
0.17850000 0.17849800 8022.30900713 0 57.40147849 0 1705.78021691 0 47.75338682 0 481.81110725 0 34536
