### header ###
fiducial parameters:
Omega_m = 0.31
Omega_nu = 0
Omega_de = 0.69
Omega_k = 0
H_0 = 100
w_de = -1
zeff = 0
beta = 0
fgrowth = 0
b_1 = 2
gamma = 0.55
Lx = 3500 Ly = 3500 Lz = 3500
nx = 700 ny = 700 nz = 700
xoffset = -685.467585 yoffset = -31.7331281 zoffset = 572.489161
bins = 400 dk = 0.001
kx_ny = 0.628318531 ky_ny = 0.628318531 kz_ny = 0.628318531
############################
A(data) = 8.03477596 (not used)
A(ran) = 8.02284157 (used)
Ngal = 476651
weighted Ngal = 0
Nran = 23820508
weighted Nran = 0
SN(data) = 3502.0447
SN(ran) = 69.8818597
SN(data+ran) = 3571.92656
############################
13 columns: k_central k_mean P_0(k) sigma^{lin}_{P_0(k)} P^img_1(k) sigma^{lin}_{P_1(k)} P_2(k) sigma^{lin}_{P_2(k)} P^img_3(k) sigma^{lin}_{P_3(k)} P_4(k) sigma^{lin}_{P_4(k)} N_modes
### header ###
0.00050000 0 0 0 0 0 0 0 0 0 0 0 0
0.00150000 0.00179520 100505.70684382 0 -27347.86723932 0 102890.90705625 0 66778.51966023 0 -29368.89868847 0 3
0.00250000 0.00253879 173831.07072282 0 -7492.33217968 0 78112.48351435 0 -5627.52016140 0 33351.39247924 0 6
0.00350000 0.00331552 150750.80963835 0 25509.75059618 0 60388.23811440 0 -22916.27995390 0 248502.82929977 0 7
0.00450000 0.00420575 130159.60717311 0 43682.75732102 0 77450.02632045 0 26.63547386 0 47025.82435351 0 24
0.00550000 0.00557378 102373.94021047 0 19610.30520955 0 113360.67595826 0 77928.35075261 0 -10963.46172103 0 45
0.00650000 0.00659388 112585.61322096 0 22597.72916887 0 145901.13136778 0 121394.75484667 0 -30861.66952052 0 40
0.00750000 0.00754703 94991.24619114 0 3410.57499691 0 111633.39328656 0 33023.76238785 0 1018.83879114 0 57
0.00850000 0.00846663 99565.11285047 0 15928.42503761 0 117743.10212148 0 47114.40295206 0 -559.18340585 0 75
0.00950000 0.00948925 88590.99955297 0 12567.08866916 0 103801.27360284 0 32129.56143550 0 15784.59553821 0 112
0.01050000 0.01054430 89138.52601525 0 2679.72405261 0 113542.26208529 0 19166.85860057 0 10548.60385472 0 105
0.01150000 0.01145670 74194.76282376 0 7232.28755899 0 71731.83489110 0 63705.39590682 0 7656.41296117 0 144
0.01250000 0.01249090 74098.98721408 0 5868.04427344 0 64570.91953789 0 32302.73259566 0 -4216.27485699 0 169
0.01350000 0.01339930 61026.22547045 0 1651.74727180 0 14243.21720021 0 31588.78909136 0 -6494.38354378 0 180
0.01450000 0.01448870 62378.26705406 0 -7280.36359335 0 9400.85773635 0 22363.77094545 0 -9469.72759672 0 267
0.01550000 0.01550050 64852.26731153 0 -2091.73931544 0 -17894.09486266 0 8871.34594655 0 -4441.40843753 0 238
0.01650000 0.01653350 68468.82076705 0 -5040.04475117 0 1520.86132011 0 -6905.34395175 0 -16148.65357825 0 315
0.01750000 0.01747870 68379.13493602 0 5330.08429980 0 3094.91408866 0 -16014.56772470 0 1101.80925717 0 297
0.01850000 0.01844180 67351.84463934 0 7228.76655970 0 20721.41300510 0 -15241.49800586 0 -8695.59493470 0 388
0.01950000 0.01947590 63482.17783847 0 1532.32117630 0 22102.79624948 0 -12231.48650391 0 12195.83361799 0 399
0.02050000 0.02045430 72283.12594382 0 -2588.28879426 0 36386.09526553 0 381.05405863 0 8988.46899848 0 462
0.02150000 0.02154770 70184.58822095 0 -652.36255536 0 44949.20983378 0 4228.00044897 0 2556.45586040 0 571
0.02250000 0.02255340 76944.57469247 0 5870.70163139 0 44593.67748385 0 11058.91623329 0 -1383.46484144 0 510
0.02350000 0.02348930 66221.47099861 0 6891.17137598 0 40854.22122285 0 3084.55039263 0 10642.76290498 0 555
0.02450000 0.02439640 61805.16352144 0 3606.83195432 0 36833.63863470 0 11549.87418807 0 8824.32178304 0 592
0.02550000 0.02547300 63081.13823354 0 -2600.42406226 0 30175.29610501 0 13943.82153711 0 1953.86672680 0 837
0.02650000 0.02652900 62557.86016261 0 -762.13690531 0 15517.08817060 0 11278.38078352 0 -1252.32422629 0 723
0.02750000 0.02749970 62921.14313991 0 -4615.00034604 0 11704.77601229 0 5023.92344624 0 -10818.00458989 0 826
0.02850000 0.02848090 66045.19958750 0 -375.55111320 0 2925.44108498 0 -2222.95743687 0 -5280.38063369 0 831
0.02950000 0.02946900 64246.05752771 0 2345.61665121 0 6090.78623181 0 -6.85569565 0 -13596.81487730 0 996
0.03050000 0.03053250 60310.06750118 0 4859.20046991 0 5639.14610246 0 -6241.30341540 0 -13009.20659917 0 1041
0.03150000 0.03150510 58241.75722506 0 3861.28505098 0 9442.76648579 0 -3524.42064070 0 -9683.52311664 0 1036
0.03250000 0.03246190 56520.12143901 0 -492.19805516 0 13994.53278478 0 -3265.36145692 0 -10694.86926558 0 1059
0.03350000 0.03345080 54651.99879560 0 3792.81379430 0 17023.14579243 0 -4122.37047020 0 -5155.99413667 0 1302
0.03450000 0.03451200 53309.36868810 0 3718.67350732 0 24710.21802102 0 -5187.74956425 0 -3907.14662038 0 1339
0.03550000 0.03553350 49896.65673249 0 4555.29837061 0 28103.88557794 0 -187.66151165 0 4083.26301895 0 1365
0.03650000 0.03647120 49599.03264137 0 1116.54430704 0 27868.37722904 0 1467.00553220 0 3498.71070247 0 1308
0.03750000 0.03744890 49446.12383562 0 -236.94553665 0 29242.12056929 0 4308.92807107 0 3841.00055191 0 1579
0.03850000 0.03847530 48116.55907140 0 -449.75008351 0 24063.81569811 0 8042.29455343 0 886.67841487 0 1662
0.03950000 0.03950240 48850.10059063 0 -1236.09219810 0 23650.59653588 0 6937.53120000 0 411.51734591 0 1683
0.04050000 0.04050350 48742.25614690 0 -333.18950568 0 20769.02400182 0 -296.97193119 0 -3988.21818270 0 1822
0.04150000 0.04152450 46899.48912733 0 3743.63052746 0 18912.41657623 0 1671.22349115 0 -4245.20684174 0 1887
0.04250000 0.04250150 46326.71776446 0 2528.53145721 0 19427.39040355 0 -2793.69149197 0 -1207.78026354 0 1920
0.04350000 0.04349210 42495.91482371 0 2243.13121268 0 18781.09880388 0 -662.89787243 0 -1806.18405837 0 2005
0.04450000 0.04448520 42016.15098932 0 2716.86063005 0 20313.50855878 0 1462.47695135 0 592.71040540 0 2151
0.04550000 0.04548030 39857.26909618 0 1925.08975459 0 19460.60737800 0 4550.70335581 0 870.83613252 0 2274
0.04650000 0.04648670 39251.17003560 0 144.39197350 0 19489.17397604 0 5642.95498220 0 1466.92802592 0 2311
0.04750000 0.04749250 38542.20907747 0 887.33389650 0 18267.45365555 0 4444.70799033 0 1141.58990578 0 2568
0.04850000 0.04851840 38222.32961346 0 -293.05122098 0 18335.54845318 0 -234.73992955 0 2840.69351082 0 2493
0.04950000 0.04949480 37632.28542387 0 802.93288611 0 17186.57330675 0 1664.76832578 0 9893.84192657 0 2644
0.05050000 0.05050630 38063.99536855 0 -521.68808509 0 17632.56655045 0 253.20303119 0 7069.87869855 0 2829
0.05150000 0.05149060 38549.51681185 0 348.25561806 0 17879.92228689 0 -270.66298019 0 5677.24597216 0 2784
0.05250000 0.05249300 38046.72254183 0 1561.59640312 0 19361.06717788 0 -720.02996126 0 7026.74092106 0 3055
0.05350000 0.05348950 36633.22955548 0 1293.57970856 0 19917.23005353 0 228.18400603 0 9320.48373049 0 3009
0.05450000 0.05448610 36380.44837987 0 522.06897306 0 20263.12948086 0 354.26346150 0 4300.45774259 0 3336
0.05550000 0.05550870 36479.98857999 0 183.38427258 0 20452.90912825 0 864.35107188 0 4734.12748876 0 3349
0.05650000 0.05647670 37198.13956773 0 -876.72328763 0 18734.37359315 0 2867.44424758 0 2983.60400726 0 3324
0.05750000 0.05747970 37170.90164868 0 -772.78626732 0 18248.07708711 0 942.14411882 0 2798.20900049 0 3639
0.05850000 0.05849280 37022.64321936 0 800.19691464 0 17056.25204364 0 1137.09454190 0 431.72323147 0 3846
0.05950000 0.05951020 35909.09951234 0 1684.37741304 0 17149.92391160 0 1130.26291749 0 582.81839041 0 3787
0.06050000 0.06049470 35073.47115828 0 1364.05505603 0 17286.00278362 0 1596.18634586 0 4924.56040332 0 3930
0.06150000 0.06148310 34132.10210220 0 -410.66809859 0 13898.53572861 0 4391.77120537 0 720.38095396 0 4083
0.06250000 0.06249100 34263.86276754 0 -396.74575737 0 14569.96150561 0 1162.12906832 0 1466.05331226 0 4303
0.06350000 0.06350600 34342.03338076 0 2048.74547817 0 14107.58122118 0 21.88024252 0 -698.11229428 0 4470
0.06450000 0.06451750 31799.38470941 0 2525.55300183 0 14589.22735079 0 -652.57625123 0 1799.39672325 0 4479
0.06550000 0.06550280 30745.63155642 0 1439.22506923 0 13912.15468813 0 -441.69385997 0 1913.35309029 0 4636
0.06650000 0.06648880 29926.39024309 0 -485.48601186 0 11652.51463914 0 2830.11944062 0 -903.78737118 0 4653
0.06750000 0.06749660 30887.24659085 0 -1521.06062196 0 10802.61405839 0 1985.35641858 0 -2827.20741919 0 5220
0.06850000 0.06852730 30871.52388961 0 -772.56703529 0 9023.80078697 0 1645.54676990 0 -3979.09458705 0 5029
0.06950000 0.06949320 32091.14046838 0 642.13283446 0 10332.57172519 0 -449.85748506 0 -2986.89248773 0 5040
0.07050000 0.07048030 30976.82169863 0 968.84724458 0 9143.70299244 0 -541.30049404 0 -2010.66775312 0 5475
0.07150000 0.07148790 30173.74597953 0 1340.90282484 0 10196.10532180 0 -77.60138500 0 -1172.03879903 0 5509
0.07250000 0.07249820 29393.92214256 0 1496.57971179 0 10362.33413430 0 -633.83634148 0 -228.09764189 0 5916
0.07350000 0.07351270 28610.99805463 0 755.62194939 0 12572.51410832 0 631.12583636 0 -1442.97858734 0 5721
0.07450000 0.07449140 27407.10417710 0 933.79669314 0 12489.80384193 0 -314.83269836 0 1086.01458581 0 6028
0.07550000 0.07549160 27040.94239535 0 1026.47315910 0 11980.14473053 0 254.47413407 0 825.41302719 0 6183
0.07650000 0.07648840 26331.87071396 0 436.68363299 0 12177.89645179 0 1325.37942544 0 1356.08298216 0 6330
0.07750000 0.07749960 26565.49676763 0 -124.96004344 0 12801.60050882 0 1937.34681817 0 933.85094753 0 6583
0.07850000 0.07848650 25871.81561775 0 185.95969533 0 10795.26203471 0 2237.77220747 0 1118.63697643 0 6549
0.07950000 0.07947320 25512.74012388 0 157.88692298 0 9672.81617854 0 2601.74166891 0 947.29274986 0 6828
0.08050000 0.08048110 25621.58107684 0 604.60872565 0 9719.88463135 0 1417.10256424 0 1728.99888206 0 7147
0.08150000 0.08149960 24888.59317385 0 525.77155848 0 9991.06801081 0 377.07798679 0 3237.62528325 0 7386
0.08250000 0.08250610 24216.06016436 0 616.83700118 0 9384.16067052 0 -161.84417187 0 2024.48601449 0 7227
0.08350000 0.08350160 24092.27157289 0 428.31849159 0 9397.61354518 0 -592.35941271 0 2417.37638836 0 7798
0.08450000 0.08449610 23240.03473160 0 516.91591309 0 9809.24936496 0 -475.61614151 0 1816.86885182 0 7371
0.08550000 0.08548940 23434.24330892 0 111.28129336 0 9859.70594916 0 -182.42430201 0 2597.44560688 0 8256
0.08650000 0.08650700 22721.51776034 0 353.00564540 0 9479.20550677 0 1281.78768263 0 847.16793099 0 8037
0.08750000 0.08749060 22874.64801259 0 767.46269355 0 9323.75006631 0 374.66200552 0 1098.08231263 0 8155
0.08850000 0.08849210 21777.49134631 0 576.89026770 0 8707.66376875 0 461.26197962 0 391.36017857 0 8718
0.08950000 0.08949900 21086.91044737 0 674.73972382 0 7665.81336494 0 1142.28746224 0 1912.05762828 0 8571
0.09050000 0.09049190 21033.87401149 0 -156.74425906 0 7213.61961935 0 739.54382652 0 534.19649043 0 8932
0.09150000 0.09150830 20452.46623526 0 132.84021701 0 7998.30420692 0 281.62679623 0 -510.50171532 0 9285
0.09250000 0.09250820 20457.33805818 0 891.55688119 0 7631.15698826 0 254.39330610 0 522.47422015 0 9204
0.09350000 0.09350330 19737.30477522 0 716.49678241 0 6961.15954116 0 38.95576041 0 682.41838108 0 9349
0.09450000 0.09448040 18859.38014035 0 747.41182054 0 7072.95680485 0 106.16277904 0 594.05790733 0 9564
0.09550000 0.09549270 18795.60354940 0 157.98435944 0 6710.24958844 0 768.74265430 0 29.90269547 0 10155
0.09650000 0.09649430 18531.19643273 0 275.48054872 0 7045.71888580 0 264.04283718 0 -498.27565426 0 9913
0.09750000 0.09749140 18345.18137577 0 494.40144780 0 6460.76796563 0 -306.58381637 0 -1319.28964679 0 10476
0.09850000 0.09850240 18045.56426618 0 83.12968606 0 7395.74829029 0 -487.58643188 0 -722.53895006 0 10575
0.09950000 0.09950330 18028.18071622 0 220.80762323 0 7158.44622478 0 -459.04530019 0 -943.13509189 0 10882
0.10050000 0.10051200 18028.62360921 0 -12.26005310 0 7380.15845695 0 292.55296636 0 -1820.86596108 0 10875
0.10150000 0.10150300 17928.52979285 0 99.99073302 0 7455.97066498 0 -236.42956632 0 -1986.25327689 0 11118
0.10250000 0.10250800 17869.84647131 0 617.64638813 0 7915.49428960 0 -334.35542148 0 -1885.28474687 0 11575
0.10350000 0.10349800 17445.22281451 0 706.12976468 0 7553.86108870 0 506.55553876 0 -1600.71492671 0 11364
0.10450000 0.10450100 16636.16804002 0 362.69946578 0 7518.82825297 0 563.70977224 0 -173.05157906 0 12093
0.10550000 0.10551000 16719.87481565 0 293.64248312 0 7700.83512834 0 1593.90544694 0 -155.11884178 0 12067
0.10650000 0.10649700 16285.28606651 0 -1.78649746 0 7579.07277231 0 1377.53007534 0 694.34881107 0 12054
0.10750000 0.10749900 15962.85996779 0 354.52698283 0 6061.44457104 0 1508.77034141 0 315.95875379 0 12807
0.10850000 0.10850100 15690.37005401 0 281.14182840 0 5987.19356081 0 862.83527061 0 1212.20919347 0 12736
0.10950000 0.10950300 15385.77039825 0 153.26976353 0 5580.75066137 0 126.30422367 0 880.06159356 0 12933
0.11050000 0.11050200 15283.90500991 0 82.98895681 0 5806.82538951 0 -40.26185185 0 1382.90015287 0 13428
0.11150000 0.11150900 15105.52985709 0 73.79970227 0 5368.83743666 0 -103.54971038 0 705.27055228 0 13453
0.11250000 0.11250000 14986.39164204 0 305.17320219 0 5160.45628358 0 553.37818595 0 846.76822006 0 13668
0.11350000 0.11349100 14686.66380920 0 345.82413553 0 5346.73707633 0 180.91846584 0 496.65688037 0 13791
0.11450000 0.11448600 14558.66773429 0 229.02439548 0 4740.51622018 0 464.90698895 0 1285.29760960 0 14205
0.11550000 0.11549300 14428.23574793 0 -204.72174973 0 4379.23733367 0 542.81961700 0 577.35973427 0 14776
0.11650000 0.11649800 14655.32912996 0 194.91942057 0 4762.41727867 0 214.27052266 0 1009.61665180 0 14553
0.11750000 0.11747300 14323.49155515 0 217.04524726 0 3811.73639742 0 213.42791874 0 326.74209093 0 14568
0.11850000 0.11849100 14229.26607094 0 59.40878026 0 3530.47720237 0 28.81948993 0 1055.92665035 0 16015
0.11950000 0.11950300 14400.77638238 0 -180.60844074 0 3559.19881295 0 76.94202806 0 211.57773326 0 15270
0.12050000 0.12050700 14447.94448611 0 11.06596930 0 3785.79394037 0 -24.90641962 0 -64.47149006 0 15999
0.12150000 0.12150000 14063.51336840 0 506.95082075 0 3772.17498084 0 -451.66338123 0 -25.26483077 0 15670
0.12250000 0.12250700 13884.47387609 0 647.45862270 0 4080.06311707 0 -240.10447092 0 719.09656428 0 16887
0.12350000 0.12352200 13578.98843434 0 139.08168651 0 4697.41165966 0 -293.60262275 0 618.15571507 0 16407
0.12450000 0.12449800 13432.28013049 0 270.56111480 0 5039.38041168 0 18.21286709 0 72.07596275 0 16306
0.12550000 0.12549900 13284.13242442 0 420.90778459 0 5555.12930174 0 -272.18210316 0 632.43458515 0 17523
0.12650000 0.12650100 12985.73327056 0 222.18502044 0 5294.94074082 0 209.94345812 0 1399.70794195 0 17154
0.12750000 0.12750600 12740.70272232 0 -212.70600316 0 4958.98426118 0 717.78781548 0 1195.39033207 0 18007
0.12850000 0.12850300 13169.75530904 0 -211.48694020 0 4661.58161655 0 1194.29417191 0 507.59744452 0 17496
0.12950000 0.12949900 13164.99420937 0 -85.47480446 0 4006.89719467 0 507.92961427 0 169.98122338 0 18405
0.13050000 0.13049000 12832.38157182 0 440.85457775 0 3690.63838088 0 10.35790520 0 28.92368051 0 18100
0.13150000 0.13148800 12701.28524597 0 132.87011229 0 3020.70736772 0 165.50468246 0 299.71786775 0 19059
0.13250000 0.13249300 12517.48465398 0 60.11464097 0 3387.23453620 0 202.63572374 0 527.20985347 0 18957
0.13350000 0.13349100 12499.65821102 0 219.70924861 0 3400.95314665 0 81.89611835 0 96.99456192 0 19468
0.13450000 0.13450700 12357.71100684 0 216.08195500 0 3629.25341208 0 461.03388973 0 324.53316213 0 19953
0.13550000 0.13551000 12102.49391977 0 369.05719469 0 3311.02372447 0 -28.03556933 0 610.66528733 0 19956
0.13650000 0.13649900 12113.45552134 0 157.80720225 0 3668.74839471 0 -293.95472268 0 919.16793759 0 19723
0.13750000 0.13749600 11993.76369005 0 178.78261438 0 3873.26530643 0 -468.33498071 0 1059.44322071 0 20946
0.13850000 0.13851100 11630.48071275 0 124.30566904 0 3974.14525786 0 -111.38315875 0 953.21865810 0 20955
0.13950000 0.13949800 11707.21192375 0 163.05769867 0 3787.80910348 0 273.29708627 0 1126.08865103 0 20506
0.14050000 0.14048300 11661.04032925 0 -169.16851474 0 3781.32072114 0 296.06400056 0 737.04812451 0 21447
0.14150000 0.14148400 11895.88433866 0 -154.15444229 0 3694.05972924 0 604.41828167 0 362.47580482 0 21771
0.14250000 0.14249400 11747.51518609 0 138.60557654 0 3330.27849733 0 216.66878821 0 39.26080296 0 22470
0.14350000 0.14350900 11723.70968773 0 312.80757015 0 3777.06894841 0 -302.87348032 0 -98.55144151 0 22519
0.14450000 0.14449900 11230.76978680 0 501.07473797 0 3531.77266438 0 -385.08327764 0 395.02954702 0 22218
0.14550000 0.14550500 11163.00715891 0 238.69828567 0 3887.38252058 0 -190.92341855 0 118.42847903 0 23559
0.14650000 0.14650700 10833.92659298 0 174.45997877 0 3651.61950822 0 167.83208514 0 90.78331987 0 23044
0.14750000 0.14750500 10761.28106984 0 290.66402774 0 3770.86844651 0 164.20368429 0 -163.17063639 0 23649
0.14850000 0.14849900 10413.03430964 0 243.04085147 0 3641.23366754 0 141.33933354 0 128.04147144 0 23640
0.14950000 0.14949500 10264.16690246 0 187.04478316 0 3612.55634625 0 199.85878467 0 -217.10614504 0 24457
0.15050000 0.15050000 9932.09680882 0 292.64486665 0 3528.46203926 0 143.20059134 0 114.45129995 0 24591
0.15150000 0.15149900 9796.01793680 0 277.69279922 0 3473.04505354 0 315.98200567 0 -7.48985198 0 25020
0.15250000 0.15250500 9625.71450877 0 181.26724407 0 3299.37563876 0 222.25145439 0 536.32459126 0 25297
0.15350000 0.15350100 9441.09456474 0 120.95629078 0 3052.07526394 0 392.11863282 0 444.63799114 0 25452
0.15450000 0.15450400 9493.69917995 0 -92.68676323 0 3124.85365497 0 241.24602761 0 299.22625653 0 26061
0.15550000 0.15549900 9388.66710672 0 13.27062419 0 2954.59451623 0 174.31382408 0 279.66699473 0 26128
0.15650000 0.15649500 9595.19918157 0 84.85464354 0 3067.63188031 0 -99.32406834 0 489.80975470 0 26331
0.15750000 0.15749700 9346.69192334 0 61.20747943 0 2989.81558148 0 -77.74455016 0 448.76796829 0 27345
0.15850000 0.15849900 9413.10372760 0 60.46452643 0 3189.80391235 0 244.61865775 0 208.97573693 0 26980
0.15950000 0.15949700 9351.22050419 0 90.42047978 0 2963.49666539 0 113.20455618 0 77.04776876 0 27777
0.16050000 0.16050000 9298.13977901 0 139.79585146 0 2859.70469254 0 214.34692170 0 74.67065134 0 28224
0.16150000 0.16150500 9280.16939583 0 -39.91329506 0 2809.85708620 0 215.09983979 0 42.26605336 0 28075
0.16250000 0.16249700 9277.22415742 0 -97.87359379 0 2722.29714154 0 63.85675459 0 164.42955972 0 28590
0.16350000 0.16349900 9294.72950296 0 23.46125978 0 2435.46856711 0 313.95466300 0 17.18303016 0 29163
0.16450000 0.16449100 9255.34524358 0 123.24051139 0 2336.82522530 0 168.32591082 0 0.77320148 0 28996
0.16550000 0.16550500 9142.07536069 0 193.50548469 0 2372.97636583 0 13.48299138 0 135.98143556 0 30777
0.16650000 0.16650700 8914.87125541 0 230.55237630 0 2248.82238764 0 -6.12201019 0 227.70346713 0 29211
0.16750000 0.16749900 8759.61511680 0 279.29496462 0 2296.14550392 0 32.24958544 0 579.18998957 0 30922
0.16850000 0.16850800 8607.91319446 0 132.68299000 0 2170.07601353 0 360.42742473 0 615.61793822 0 30867
0.16950000 0.16949900 8548.49909948 0 -62.40295834 0 1908.12695297 0 231.14696015 0 383.31059843 0 30852
0.17050000 0.17049200 8554.23456374 0 113.38835677 0 2002.13099068 0 304.06375524 0 494.73029585 0 31257
0.17150000 0.17149500 8412.40915514 0 112.66090503 0 1893.83258163 0 224.78590954 0 509.62257273 0 32608
0.17250000 0.17250900 8301.26515861 0 112.42506451 0 1814.15613224 0 69.68157250 0 566.67826252 0 32361
0.17350000 0.17350400 8190.49762112 0 127.89531675 0 1768.72638351 0 -97.45727437 0 580.09016957 0 32508
0.17450000 0.17449800 8215.28855639 0 117.30906699 0 1904.26271161 0 -19.18800674 0 436.79767793 0 32791
0.17550000 0.17549800 7978.79477059 0 109.26513373 0 1901.30640088 0 -222.32785343 0 513.23879402 0 33633
0.17650000 0.17650100 7976.46958238 0 188.45318288 0 1928.95399596 0 32.22478343 0 560.10130158 0 33984
0.17750000 0.17750300 7976.45851005 0 23.52658650 0 1808.44281263 0 140.45022586 0 587.03473170 0 34069
0.17850000 0.17849800 7884.32569524 0 -60.09681453 0 1692.96953710 0 275.51155123 0 372.55272764 0 34536
