### header ###
fiducial parameters:
Omega_m = 0.31
Omega_nu = 0
Omega_de = 0.69
Omega_k = 0
H_0 = 100
w_de = -1
zeff = 0
beta = 0
fgrowth = 0
b_1 = 2
gamma = 0.55
Lx = 3500 Ly = 3500 Lz = 3500
nx = 700 ny = 700 nz = 700
xoffset = -685.467585 yoffset = -31.7331281 zoffset = 572.489161
bins = 400 dk = 0.001
kx_ny = 0.628318531 ky_ny = 0.628318531 kz_ny = 0.628318531
############################
A(data) = 8.06089756 (not used)
A(ran) = 8.05751123 (used)
Ngal = 478763
weighted Ngal = 0
Nran = 23820508
weighted Nran = 0
SN(data) = 3489.42446
SN(ran) = 70.183845
SN(data+ran) = 3559.6083
############################
13 columns: k_central k_mean P_0(k) sigma^{lin}_{P_0(k)} P^img_1(k) sigma^{lin}_{P_1(k)} P_2(k) sigma^{lin}_{P_2(k)} P^img_3(k) sigma^{lin}_{P_3(k)} P_4(k) sigma^{lin}_{P_4(k)} N_modes
### header ###
0.00050000 0 0 0 0 0 0 0 0 0 0 0 0
0.00150000 0.00179520 1811.59842520 0 -5059.36595798 0 4013.18627517 0 -5146.61587755 0 2565.49087745 0 3
0.00250000 0.00253879 4720.04349159 0 -5429.82380176 0 -1762.04977164 0 -9355.39477064 0 10038.12539129 0 6
0.00350000 0.00331552 12242.33738223 0 -8083.53896337 0 590.81925232 0 -9552.73681589 0 -8868.46714209 0 7
0.00450000 0.00420575 19697.44440588 0 -12549.04077971 0 4033.86937793 0 -14077.68594417 0 8903.36710992 0 24
0.00550000 0.00557378 29186.09460571 0 -10142.99137964 0 12335.45563396 0 656.32976934 0 8248.02942088 0 45
0.00650000 0.00659388 44253.97855841 0 -7963.83605976 0 7073.79830154 0 -7999.68824752 0 -12683.68024950 0 40
0.00750000 0.00754703 47802.21576980 0 -3985.58296940 0 14697.18251777 0 -9633.53157009 0 -18264.57485109 0 57
0.00850000 0.00846663 44518.71784483 0 2291.22939170 0 3695.62092704 0 234.07448283 0 8665.26783702 0 75
0.00950000 0.00948925 45160.35906807 0 7937.80502411 0 2730.20278146 0 -4623.50389150 0 1755.07420700 0 112
0.01050000 0.01054430 53648.73544379 0 -15740.41696219 0 -6939.60172474 0 4202.50088492 0 4818.96364152 0 105
0.01150000 0.01145670 67284.74635094 0 -21477.20989722 0 -6877.86244155 0 7093.14165300 0 -16533.97048194 0 144
0.01250000 0.01249090 81468.83733662 0 -5142.10944135 0 -1137.68137512 0 -15926.54274239 0 -7123.40231673 0 169
0.01350000 0.01339930 88650.01504425 0 12736.38451564 0 4047.18938469 0 -24611.12071389 0 -15018.94427700 0 180
0.01450000 0.01448870 79750.96614101 0 7653.03590210 0 27874.24556120 0 -25201.27562673 0 10881.48222807 0 267
0.01550000 0.01550050 79021.63210520 0 796.38692767 0 42528.57818192 0 -670.45251965 0 7548.03704585 0 238
0.01650000 0.01653350 77552.11315527 0 6888.15970363 0 55653.04768246 0 26231.66617435 0 4930.79412219 0 315
0.01750000 0.01747870 79339.62927400 0 2658.11087456 0 52817.75746615 0 28492.30273257 0 4151.64569703 0 297
0.01850000 0.01844180 68931.86539096 0 6702.73147989 0 43721.28901139 0 26469.72115795 0 10115.23306132 0 388
0.01950000 0.01947590 64058.82451503 0 3760.46046118 0 38367.26634533 0 23428.15353027 0 15066.77672022 0 399
0.02050000 0.02045430 65368.68054108 0 -4722.84478977 0 31649.13326162 0 15744.62444562 0 14633.62737332 0 462
0.02150000 0.02154770 68233.97675765 0 -5293.63420650 0 18696.72768877 0 2018.73947791 0 8527.59455023 0 571
0.02250000 0.02255340 76219.44814010 0 -3331.46323608 0 26092.37632813 0 -1570.64249250 0 3635.32104608 0 510
0.02350000 0.02348930 73609.36901060 0 3102.95259648 0 17342.13947045 0 -5853.82740837 0 11336.51048882 0 555
0.02450000 0.02439640 75853.50780484 0 3186.55972118 0 20462.54205084 0 -7806.36545619 0 2648.97620659 0 592
0.02550000 0.02547300 70839.95912696 0 1428.67314367 0 22142.76734207 0 659.92273875 0 2357.63012363 0 837
0.02650000 0.02652900 73151.74982585 0 2214.29887886 0 25143.14592143 0 1712.75578155 0 2513.07449176 0 723
0.02750000 0.02749970 70422.75392780 0 2691.67109109 0 27699.30282906 0 1361.08767298 0 -8784.77143879 0 826
0.02850000 0.02848090 66345.81320632 0 4476.61843045 0 29281.53804565 0 1835.03853684 0 -521.45445903 0 831
0.02950000 0.02946900 59880.12912847 0 4060.84156119 0 27522.47780171 0 1.25535804 0 -3384.88720333 0 996
0.03050000 0.03053250 61378.76829268 0 443.48093319 0 31601.63298815 0 3006.01439269 0 -2497.61752632 0 1041
0.03150000 0.03150510 60570.48858092 0 -4256.44525143 0 24742.99210248 0 7504.12420561 0 4013.88383163 0 1036
0.03250000 0.03246190 62437.28254534 0 -1058.56850705 0 30123.69907135 0 12409.19731725 0 3715.65076264 0 1059
0.03350000 0.03345080 63273.90740864 0 1544.04676829 0 18552.78746612 0 8024.34631489 0 2932.42772194 0 1302
0.03450000 0.03451200 62758.82285807 0 3398.09648684 0 26969.30445377 0 6723.02705128 0 13746.95560184 0 1339
0.03550000 0.03553350 57124.33820436 0 5798.00074663 0 18782.42748286 0 3522.69335803 0 19344.01579766 0 1365
0.03650000 0.03647120 53422.41712449 0 5719.12150463 0 22724.39656480 0 6745.81389576 0 19790.00904136 0 1308
0.03750000 0.03744890 48766.72598475 0 3478.55907130 0 21229.63271428 0 5258.46850287 0 22968.54132705 0 1579
0.03850000 0.03847530 46637.85009187 0 2858.12135009 0 18811.21552739 0 6614.35218319 0 19591.26081086 0 1662
0.03950000 0.03950240 43885.04869546 0 -634.01571314 0 14329.69205704 0 5363.20162333 0 20310.74047758 0 1683
0.04050000 0.04050350 45577.12137424 0 -1907.66191533 0 14654.44334397 0 1345.22103152 0 19953.65800218 0 1822
0.04150000 0.04152450 47111.85631735 0 -538.90333571 0 14832.81849680 0 -1222.44002160 0 12000.62853144 0 1887
0.04250000 0.04250150 46656.45159756 0 1653.66278399 0 18324.03323537 0 -621.99559731 0 14840.01550794 0 1920
0.04350000 0.04349210 45324.67236838 0 3322.29535113 0 16672.81743517 0 -2975.36619759 0 8308.00820442 0 2005
0.04450000 0.04448520 41912.62475226 0 2223.53319776 0 19646.62243496 0 -49.50214980 0 9120.38467637 0 2151
0.04550000 0.04548030 40491.38113854 0 1840.45290368 0 20175.87956129 0 1467.13840009 0 3764.28041324 0 2274
0.04650000 0.04648670 39443.05342471 0 1036.40171277 0 18044.34631045 0 861.68264159 0 6460.36936194 0 2311
0.04750000 0.04749250 37552.23251543 0 1597.64789273 0 16345.74096002 0 2564.84868262 0 -546.05162862 0 2568
0.04850000 0.04851840 37519.34771072 0 1167.86453257 0 15418.21230996 0 -399.65224263 0 -2531.00058564 0 2493
0.04950000 0.04949480 36265.84981800 0 -266.65590584 0 14006.38017234 0 -595.43862624 0 -4908.90413602 0 2644
0.05050000 0.05050630 35787.74683233 0 461.11471770 0 15118.37375388 0 -1750.43490290 0 -4812.13201711 0 2829
0.05150000 0.05149060 36941.48307844 0 687.66777028 0 14812.11324939 0 -1130.08576029 0 -7553.80572708 0 2784
0.05250000 0.05249300 35293.58897568 0 807.00971610 0 14870.13223144 0 -493.83675924 0 -6647.51379602 0 3055
0.05350000 0.05348950 35632.62356162 0 993.93934709 0 12103.37970576 0 2632.46737028 0 -6301.08289709 0 3009
0.05450000 0.05448610 34276.70666433 0 -621.38883391 0 11815.05636748 0 3047.91206980 0 -5840.24166582 0 3336
0.05550000 0.05550870 35414.72020919 0 -479.52135048 0 10548.79208425 0 3450.71217438 0 -5435.55926602 0 3349
0.05650000 0.05647670 33943.20824079 0 446.04860532 0 11271.95883513 0 3044.93361443 0 -1903.94161419 0 3324
0.05750000 0.05747970 34381.34013387 0 904.12396986 0 8613.59329709 0 1308.71557659 0 1062.80477853 0 3639
0.05850000 0.05849280 33614.13874718 0 -994.69337241 0 8305.46156971 0 3645.77332071 0 2370.00898278 0 3846
0.05950000 0.05951020 34775.18272767 0 -1336.95000488 0 9236.63301464 0 3029.01161134 0 992.98048376 0 3787
0.06050000 0.06049470 35843.99424241 0 -128.20202015 0 8232.64996171 0 -421.15137573 0 791.55607236 0 3930
0.06150000 0.06148310 35167.80736574 0 2024.43065287 0 10789.18332838 0 -2169.89885633 0 -2165.11561201 0 4083
0.06250000 0.06249100 33552.24445145 0 2808.52840722 0 10179.91758291 0 -4272.47797777 0 877.15289383 0 4303
0.06350000 0.06350600 31669.50633928 0 1501.42939006 0 12184.20767693 0 -3210.38736419 0 -1579.72179885 0 4470
0.06450000 0.06451750 30536.69678709 0 1418.61947274 0 11245.27453231 0 231.14917461 0 -1596.08669493 0 4479
0.06550000 0.06550280 30720.27593258 0 -285.88410512 0 10910.86817814 0 1360.78872021 0 -2784.82255979 0 4636
0.06650000 0.06648880 30009.98629547 0 -387.56126393 0 9840.53975490 0 2650.05022209 0 -2712.30990455 0 4653
0.06750000 0.06749660 31237.02133187 0 29.57628333 0 10578.34411919 0 856.07229461 0 -4390.32073082 0 5220
0.06850000 0.06852730 30029.91648014 0 1301.02031084 0 11752.71917875 0 -59.19364499 0 -3301.71189930 0 5029
0.06950000 0.06949320 29088.21525431 0 1545.91799118 0 11986.89884867 0 -2121.74531570 0 -953.55968571 0 5040
0.07050000 0.07048030 28619.30229824 0 -315.54132715 0 13132.10940466 0 199.74252526 0 -955.08545207 0 5475
0.07150000 0.07148790 28981.81021281 0 -509.51849288 0 12704.60694341 0 1218.46505699 0 2165.52528803 0 5509
0.07250000 0.07249820 29690.10683146 0 466.67191753 0 13546.98941561 0 1209.47432924 0 -1064.86865988 0 5916
0.07350000 0.07351270 28987.01420547 0 1097.65492090 0 12413.18335418 0 726.90808944 0 -566.99160931 0 5721
0.07450000 0.07449140 27711.26093987 0 1521.00526034 0 12752.10721688 0 -439.26791360 0 -698.57733192 0 6028
0.07550000 0.07549160 26864.89243073 0 1204.36998750 0 11973.39061239 0 211.93869105 0 1245.52581885 0 6183
0.07650000 0.07648840 25979.32789173 0 -38.23605930 0 11606.34304465 0 1726.59618757 0 1368.42862434 0 6330
0.07750000 0.07749960 25739.39061291 0 -146.88435381 0 11206.18922570 0 3307.80167795 0 745.53949041 0 6583
0.07850000 0.07848650 25707.05942444 0 439.21255198 0 9217.94293034 0 2456.00772965 0 760.94773763 0 6549
0.07950000 0.07947320 25494.47078793 0 556.74085100 0 8317.41968052 0 1280.12683391 0 1278.80922725 0 6828
0.08050000 0.08048110 24335.86271890 0 862.22186381 0 8039.00607295 0 303.29201420 0 2119.25404261 0 7147
0.08150000 0.08149960 23789.00059611 0 710.67163232 0 8613.56008012 0 -209.80062513 0 1775.79052674 0 7386
0.08250000 0.08250610 23460.70616524 0 415.97617111 0 8515.23783573 0 -305.19866853 0 1933.92546980 0 7227
0.08350000 0.08350160 23029.21766705 0 -5.00671705 0 8880.61348242 0 -44.19551668 0 1603.72659906 0 7798
0.08450000 0.08449610 23311.22978019 0 351.87958997 0 8457.00847951 0 -464.59142769 0 538.51026818 0 7371
0.08550000 0.08548940 22968.31988055 0 474.18006099 0 8812.56297408 0 349.46028700 0 1328.36895314 0 8256
0.08650000 0.08650700 22395.32707119 0 638.97168573 0 8903.46676085 0 464.62796636 0 857.34229027 0 8037
0.08750000 0.08749060 21771.84446065 0 499.68405397 0 8531.50308089 0 300.84724488 0 1268.94378584 0 8155
0.08850000 0.08849210 21293.07713549 0 872.72396390 0 9406.91429802 0 -11.19102014 0 1137.01703563 0 8718
0.08950000 0.08949900 20715.98756594 0 713.02339411 0 9294.20910370 0 869.54731391 0 1239.54676345 0 8571
0.09050000 0.09049190 19920.88392072 0 480.61972510 0 8989.08904867 0 804.03679689 0 2618.48302404 0 8932
0.09150000 0.09150830 20149.74887472 0 35.47030328 0 8714.91614151 0 1905.59139059 0 2378.74504706 0 9285
0.09250000 0.09250820 19563.35855232 0 -278.42246542 0 7159.42058936 0 1874.92105084 0 2987.11393422 0 9204
0.09350000 0.09350330 19736.19754274 0 10.92931467 0 6509.76300295 0 1779.66584043 0 1088.69962458 0 9349
0.09450000 0.09448040 19476.21935600 0 329.11599737 0 5225.52833654 0 953.69698253 0 1592.12280265 0 9564
0.09550000 0.09549270 19198.63617280 0 415.44248506 0 4530.64030324 0 -721.53801190 0 785.91693732 0 10155
0.09650000 0.09649430 18594.75157719 0 458.05543435 0 4418.30049563 0 -303.37837833 0 1280.06039996 0 9913
0.09750000 0.09749140 18570.06029284 0 411.83844333 0 4726.35471674 0 -716.38273746 0 57.61019182 0 10476
0.09850000 0.09850240 17639.76356158 0 511.62334183 0 4833.21372356 0 286.95701339 0 1021.57808430 0 10575
0.09950000 0.09950330 17498.92358989 0 414.38397080 0 4767.41089716 0 719.12978125 0 -393.42073822 0 10882
0.10050000 0.10051200 17008.30887717 0 538.62209866 0 5218.35347005 0 -236.39745658 0 49.17219452 0 10875
0.10150000 0.10150300 16732.82943568 0 535.58274550 0 5318.82374546 0 516.22057109 0 623.89560825 0 11118
0.10250000 0.10250800 16007.14926707 0 424.07446948 0 5411.65411674 0 241.71549419 0 1523.66261829 0 11575
0.10350000 0.10349800 16274.32446494 0 -92.69373879 0 5069.58571379 0 541.97036969 0 1935.26522110 0 11364
0.10450000 0.10450100 16189.95334982 0 -166.80346616 0 5304.30792762 0 507.30845684 0 743.12350913 0 12093
0.10550000 0.10551000 16077.67997616 0 639.51312241 0 5106.20189197 0 -453.10721239 0 630.60654433 0 12067
0.10650000 0.10649700 15539.01137374 0 609.20927661 0 5322.96479494 0 -666.22399880 0 723.59967878 0 12054
0.10750000 0.10749900 15208.61320115 0 202.65011776 0 5739.32849742 0 -372.76974520 0 1702.00455415 0 12807
0.10850000 0.10850100 15583.63284276 0 -65.22994431 0 5761.29598986 0 158.24345184 0 600.71791071 0 12736
0.10950000 0.10950300 15454.97242836 0 41.64046701 0 5975.32402861 0 -110.89044029 0 409.81552958 0 12933
0.11050000 0.11050200 15152.03362132 0 535.65471561 0 6219.93382850 0 -242.80611818 0 374.33647917 0 13428
0.11150000 0.11150900 14572.84031006 0 686.44538562 0 6143.16940053 0 4.44209492 0 615.49171372 0 13453
0.11250000 0.11250000 14245.98528141 0 372.46414904 0 6261.85365026 0 512.41722751 0 860.99172853 0 13668
0.11350000 0.11349100 14175.89746531 0 -301.18162909 0 5787.71455688 0 271.08372853 0 646.01368431 0 13791
0.11450000 0.11448600 14395.24021997 0 -15.71860448 0 6045.77723143 0 916.77742266 0 917.03430059 0 14205
0.11550000 0.11549300 14316.18382077 0 229.65330353 0 5553.13628327 0 114.52991346 0 711.03480458 0 14776
0.11650000 0.11649800 13955.66892467 0 280.50074079 0 5570.90736460 0 174.99698653 0 665.10347953 0 14553
0.11750000 0.11747300 13702.55557932 0 311.32941479 0 5286.74722046 0 160.19439548 0 698.98257901 0 14568
0.11850000 0.11849100 13804.42096765 0 -137.45848369 0 5412.14129903 0 189.51058990 0 539.88987985 0 16015
0.11950000 0.11950300 13778.62245082 0 -252.51986874 0 5137.50335423 0 234.32914630 0 128.81321248 0 15270
0.12050000 0.12050700 14217.41868338 0 71.89847338 0 5264.20396713 0 358.20520914 0 149.95138779 0 15999
0.12150000 0.12150000 13993.53627555 0 369.80014769 0 5049.87697561 0 166.62298727 0 789.44790171 0 15670
0.12250000 0.12250700 13714.29224362 0 145.38958996 0 4792.13539848 0 409.71477143 0 869.65692993 0 16887
0.12350000 0.12352200 13701.00545384 0 24.43695304 0 4813.46069609 0 825.90463841 0 1141.35738696 0 16407
0.12450000 0.12449800 13650.18348292 0 155.86511647 0 4841.71726902 0 592.59968215 0 507.24091566 0 16306
0.12550000 0.12549900 13502.58939309 0 34.32476055 0 4417.60293917 0 190.97102954 0 1056.74710962 0 17523
0.12650000 0.12650100 13529.38441915 0 33.66230336 0 4661.81413537 0 61.14204199 0 760.11731327 0 17154
0.12750000 0.12750600 13507.01832302 0 81.96332736 0 4576.56830659 0 -469.05357459 0 562.60696869 0 18007
0.12850000 0.12850300 13432.16940724 0 233.03146983 0 4719.62274325 0 -250.19578776 0 239.09135320 0 17496
0.12950000 0.12949900 13005.99562497 0 203.27348965 0 4601.87964113 0 -193.94616322 0 95.34068876 0 18405
0.13050000 0.13049000 13218.36281500 0 133.71050174 0 4855.00405880 0 322.90110145 0 -233.68362976 0 18100
0.13150000 0.13148800 13023.60062144 0 -56.27719463 0 4211.04871968 0 854.67275275 0 -352.39998924 0 19059
0.13250000 0.13249300 12963.81006742 0 59.63764521 0 4064.20754793 0 478.35986360 0 -390.01932004 0 18957
0.13350000 0.13349100 12635.29419005 0 292.50646259 0 3485.11388759 0 475.30279472 0 -419.40859181 0 19468
0.13450000 0.13450700 12527.67119281 0 326.61365197 0 3460.77691764 0 174.86633309 0 -146.62415418 0 19953
0.13550000 0.13551000 12242.66955198 0 239.03266988 0 3182.97228794 0 -190.07970739 0 110.02192713 0 19956
0.13650000 0.13649900 12077.91335868 0 313.65903193 0 3552.46683946 0 -53.74550756 0 499.35188423 0 19723
0.13750000 0.13749600 12019.56220688 0 197.09623963 0 3379.24031768 0 -56.15861003 0 1023.94424011 0 20946
0.13850000 0.13851100 11814.72419774 0 171.54242118 0 3674.70530546 0 480.22997927 0 934.29716222 0 20955
0.13950000 0.13949800 11582.31609979 0 314.37541134 0 3706.33893747 0 124.40310550 0 1278.45491286 0 20506
0.14050000 0.14048300 11478.90058599 0 201.60489030 0 3841.34379398 0 583.87579743 0 1322.78850143 0 21447
0.14150000 0.14148400 11324.88454776 0 149.80855480 0 3703.34940977 0 286.06790571 0 1935.04377461 0 21771
0.14250000 0.14249400 11126.35776376 0 41.90731004 0 3412.70088328 0 536.08100012 0 1722.35548716 0 22470
0.14350000 0.14350900 11072.87843489 0 123.59704025 0 3139.63520860 0 214.81306657 0 1495.10709259 0 22519
0.14450000 0.14449900 11041.46624938 0 157.26465833 0 2727.53435118 0 157.58354128 0 1313.25522977 0 22218
0.14550000 0.14550500 10884.64891297 0 102.77708356 0 3048.44354139 0 -264.16684722 0 828.50774197 0 23559
0.14650000 0.14650700 10665.90406385 0 348.46267053 0 2591.00151384 0 -324.00501224 0 660.92589138 0 23044
0.14750000 0.14750500 10440.65976007 0 329.66075576 0 3014.52901048 0 -243.16486150 0 483.81962697 0 23649
0.14850000 0.14849900 10214.16428358 0 43.86821876 0 2990.22525750 0 -119.62096841 0 425.61684433 0 23640
0.14950000 0.14949500 10288.23813661 0 48.35527839 0 3010.14436985 0 48.39868191 0 -161.31712921 0 24457
0.15050000 0.15050000 10179.81793199 0 24.00801118 0 3124.97545054 0 -98.95214895 0 -69.35914641 0 24591
0.15150000 0.15149900 10196.31569597 0 24.92967150 0 2937.26632789 0 -75.93389288 0 -462.69473845 0 25020
0.15250000 0.15250500 10197.73295355 0 -8.92499136 0 3206.02486821 0 16.64391867 0 -36.01162924 0 25297
0.15350000 0.15350100 10203.78951522 0 109.27332725 0 3024.53839211 0 111.68321875 0 -396.89855545 0 25452
0.15450000 0.15450400 10115.90847314 0 377.05362768 0 3398.67224773 0 98.43927886 0 63.97877161 0 26061
0.15550000 0.15549900 9774.48226503 0 372.69666786 0 3329.61415784 0 97.08291907 0 323.37831865 0 26128
0.15650000 0.15649500 9502.57918446 0 179.74037048 0 3172.65288121 0 391.84736087 0 489.72339057 0 26331
0.15750000 0.15749700 9414.93066119 0 39.64213382 0 3273.27816916 0 348.13935865 0 804.96687218 0 27345
0.15850000 0.15849900 9413.50233129 0 -7.87059601 0 3115.32038330 0 584.36408695 0 679.28159146 0 26980
0.15950000 0.15949700 9269.52889167 0 88.58745641 0 2863.10389626 0 290.24438663 0 763.32385853 0 27777
0.16050000 0.16050000 9250.26304649 0 167.43569591 0 2681.71707108 0 -157.21815456 0 877.50610099 0 28224
0.16150000 0.16150500 9190.94860244 0 -31.72951834 0 2841.72323703 0 -251.15908002 0 973.70135178 0 28075
0.16250000 0.16249700 9168.67108490 0 139.74934770 0 2581.18036172 0 60.85427227 0 698.34149140 0 28590
0.16350000 0.16349900 9133.53859825 0 -11.94604197 0 2683.95368069 0 -152.30425681 0 168.78209061 0 29163
0.16450000 0.16449100 9105.74706296 0 -22.97706702 0 2522.29773834 0 66.41612247 0 75.02540863 0 28996
0.16550000 0.16550500 9128.05779747 0 99.35850327 0 2681.29632273 0 -76.48551611 0 -231.87330465 0 30777
0.16650000 0.16650700 9086.37049452 0 210.52807687 0 2720.24876145 0 -177.44064861 0 -140.68717361 0 29211
0.16750000 0.16749900 8747.88952482 0 241.95576363 0 2537.30073847 0 121.60180732 0 -145.49366981 0 30922
0.16850000 0.16850800 8638.77176373 0 223.80822326 0 2562.72279625 0 296.61872403 0 -107.49998371 0 30867
0.16950000 0.16949900 8422.93893604 0 126.71722139 0 2432.99943867 0 542.89601604 0 150.78513385 0 30852
0.17050000 0.17049200 8267.72708673 0 140.11141272 0 2147.08986721 0 491.06867803 0 -12.68633761 0 31257
0.17150000 0.17149500 8215.75359403 0 39.47139858 0 1830.77569179 0 694.17940451 0 340.45516522 0 32608
0.17250000 0.17250900 8178.67237822 0 -118.12288286 0 1738.58751535 0 337.28737309 0 250.33197736 0 32361
0.17350000 0.17350400 8345.94198925 0 -122.35915434 0 1574.78354198 0 218.40492875 0 483.26490350 0 32508
0.17450000 0.17449800 8364.39955472 0 53.88335801 0 1629.68012843 0 -179.44916834 0 464.66007611 0 32791
0.17550000 0.17549800 8262.94384241 0 278.21098402 0 1602.43113705 0 -368.31424170 0 578.26545044 0 33633
0.17650000 0.17650100 8104.77568238 0 268.42083442 0 1828.64980542 0 -237.49472397 0 677.28857299 0 33984
0.17750000 0.17750300 7974.44334694 0 78.23438981 0 1922.13344387 0 141.16106911 0 768.19789592 0 34069
0.17850000 0.17849800 7859.25795185 0 49.89853903 0 1915.25753015 0 244.50793451 0 497.53823742 0 34536
