### header ###
fiducial parameters:
Omega_m = 0.31
Omega_nu = 0
Omega_de = 0.69
Omega_k = 0
H_0 = 100
w_de = -1
zeff = 0
beta = 0
fgrowth = 0
b_1 = 2
gamma = 0.55
Lx = 3500 Ly = 3500 Lz = 3500
nx = 700 ny = 700 nz = 700
xoffset = -685.467585 yoffset = -31.7331281 zoffset = 572.489161
bins = 400 dk = 0.001
kx_ny = 0.628318531 ky_ny = 0.628318531 kz_ny = 0.628318531
############################
A(data) = 8.06684798 (not used)
A(ran) = 8.06494559 (used)
Ngal = 479221
weighted Ngal = 0
Nran = 23820508
weighted Nran = 0
SN(data) = 3488.90514
SN(ran) = 70.248601
SN(data+ran) = 3559.15374
############################
13 columns: k_central k_mean P_0(k) sigma^{lin}_{P_0(k)} P^img_1(k) sigma^{lin}_{P_1(k)} P_2(k) sigma^{lin}_{P_2(k)} P^img_3(k) sigma^{lin}_{P_3(k)} P_4(k) sigma^{lin}_{P_4(k)} N_modes
### header ###
0.00050000 0 0 0 0 0 0 0 0 0 0 0 0
0.00150000 0.00179520 8843.66513450 0 -5189.47684693 0 31727.63604458 0 -14823.51774396 0 30678.86543776 0 3
0.00250000 0.00253879 21580.07179479 0 -7352.33370468 0 6228.03877027 0 8516.82117818 0 -17325.19881348 0 6
0.00350000 0.00331552 20440.50812445 0 1070.74031373 0 10706.71665313 0 11215.48997855 0 20650.10723327 0 7
0.00450000 0.00420575 24261.45669612 0 4762.28441077 0 11406.81975142 0 -10087.82905740 0 -15403.81828770 0 24
0.00550000 0.00557378 31705.82356469 0 -7686.59611863 0 6976.04074571 0 6757.99345306 0 -1212.13168720 0 45
0.00650000 0.00659388 32816.04557426 0 -9668.21009142 0 10705.14438301 0 6400.31307212 0 -10766.42970088 0 40
0.00750000 0.00754703 54466.31590840 0 -18794.60704016 0 5124.16120282 0 -20331.77789474 0 -43085.51612030 0 57
0.00850000 0.00846663 63485.27808942 0 -3818.53480486 0 21449.86125492 0 -2679.98978840 0 -5813.50200138 0 75
0.00950000 0.00948925 57028.56259468 0 12202.80918263 0 15901.74073480 0 -24253.26317576 0 950.97208340 0 112
0.01050000 0.01054430 52803.14199739 0 1230.75533754 0 19774.06489362 0 -3395.97060048 0 -158.83692845 0 105
0.01150000 0.01145670 56040.57905111 0 -2995.51782876 0 26563.72519566 0 3628.86588071 0 -32200.64576084 0 144
0.01250000 0.01249090 59913.34610293 0 -1773.56498945 0 27740.60260064 0 1178.97007436 0 -16208.44413227 0 169
0.01350000 0.01339930 56344.84653713 0 3244.26867814 0 25952.20069593 0 3212.40252731 0 -16228.92793319 0 180
0.01450000 0.01448870 62683.86321905 0 -7944.80273340 0 9444.22803266 0 11856.57758555 0 -3412.21370099 0 267
0.01550000 0.01550050 74553.72759438 0 -22149.85362996 0 2239.90916616 0 24920.03857633 0 -10903.20612937 0 238
0.01650000 0.01653350 81655.29528657 0 -2427.64043346 0 -8422.15280098 0 7957.84593203 0 -26066.35636481 0 315
0.01750000 0.01747870 79416.80337798 0 5829.18041332 0 -15899.52626983 0 -6255.75279929 0 -12712.80046378 0 297
0.01850000 0.01844180 68126.35376041 0 12754.10023535 0 -12224.73238577 0 -22512.25082127 0 -13855.13221532 0 388
0.01950000 0.01947590 63034.08085306 0 5305.93555937 0 5151.88630417 0 -9399.57334667 0 5118.27072602 0 399
0.02050000 0.02045430 61550.16788087 0 -4185.06197333 0 10394.35529768 0 -7599.09153558 0 -3593.70017709 0 462
0.02150000 0.02154770 72762.88977822 0 -2903.76147299 0 21118.02368011 0 -3165.13477266 0 -790.62378261 0 571
0.02250000 0.02255340 74136.19022547 0 -1164.93036649 0 25722.00706295 0 -16616.23785534 0 17267.84417092 0 510
0.02350000 0.02348930 78961.39865819 0 1095.02413652 0 31778.23656900 0 7922.28162472 0 10835.31063358 0 555
0.02450000 0.02439640 74889.32975964 0 2048.42438075 0 34620.83451970 0 3035.14567929 0 19313.78835091 0 592
0.02550000 0.02547300 77311.73298346 0 2922.20796614 0 33874.44910367 0 9743.36903229 0 9208.18821218 0 837
0.02650000 0.02652900 68814.60947114 0 6365.21380244 0 29184.76592673 0 15396.73199982 0 15522.95650275 0 723
0.02750000 0.02749970 64875.62991690 0 1252.02527352 0 17735.53917126 0 9725.81939745 0 10915.19745714 0 826
0.02850000 0.02848090 64238.52834684 0 -6.35401968 0 21439.67471609 0 6463.15958779 0 13042.20212713 0 831
0.02950000 0.02946900 65612.27168709 0 1210.06116246 0 21200.51250001 0 -2441.71335831 0 3012.19274994 0 996
0.03050000 0.03053250 62455.21971155 0 1002.24469793 0 17131.76529890 0 1764.87321447 0 9788.30052640 0 1041
0.03150000 0.03150510 63747.80291087 0 3359.90803854 0 20385.70011660 0 -4705.46123980 0 7074.82802775 0 1036
0.03250000 0.03246190 61377.99322994 0 1971.00668562 0 21831.63501467 0 -2618.36122846 0 -5283.87948833 0 1059
0.03350000 0.03345080 57546.08305670 0 3737.00927722 0 22942.52136372 0 3059.75945736 0 -2027.68591636 0 1302
0.03450000 0.03451200 56536.28703324 0 2619.77848604 0 21722.24044546 0 -1759.66922180 0 -5106.15760267 0 1339
0.03550000 0.03553350 53699.88958445 0 2700.79468674 0 23340.34999446 0 3256.40394614 0 -4549.78435285 0 1365
0.03650000 0.03647120 55081.27282882 0 992.48222914 0 23766.74522322 0 -168.15318256 0 -7118.26475801 0 1308
0.03750000 0.03744890 49887.02380990 0 3271.97163483 0 24267.98936776 0 2509.12167180 0 4959.06176745 0 1579
0.03850000 0.03847530 51379.79464195 0 1162.15121297 0 23575.85834335 0 9304.10776208 0 1815.30765402 0 1662
0.03950000 0.03950240 49051.28473259 0 -737.02487262 0 20934.77670436 0 7932.03634288 0 5998.90808047 0 1683
0.04050000 0.04050350 51319.45047169 0 -1133.89464003 0 20404.52306879 0 6327.45717481 0 8316.19065246 0 1822
0.04150000 0.04152450 50969.89717716 0 -306.97688390 0 15322.54742353 0 4259.86659980 0 8226.02871147 0 1887
0.04250000 0.04250150 52519.80120528 0 -211.71503009 0 16801.69929605 0 1577.93915455 0 12165.49544799 0 1920
0.04350000 0.04349210 49000.35203842 0 2300.66301244 0 14644.69969813 0 359.00241652 0 9006.00756099 0 2005
0.04450000 0.04448520 48848.10757217 0 3832.65201900 0 17756.13369542 0 -124.70427273 0 5679.05076111 0 2151
0.04550000 0.04548030 43743.32293778 0 2361.33935245 0 14799.38007585 0 -222.09976354 0 5121.51491719 0 2274
0.04650000 0.04648670 42923.52800821 0 2527.25813986 0 17829.32176247 0 611.94635531 0 4937.11641966 0 2311
0.04750000 0.04749250 40771.73240295 0 3016.80990939 0 20717.86986116 0 124.05432727 0 1746.02811763 0 2568
0.04850000 0.04851840 37589.10335708 0 2848.25590867 0 18362.67564899 0 1575.28179660 0 2755.06015067 0 2493
0.04950000 0.04949480 36730.99818363 0 320.79735974 0 19053.69944092 0 922.19068226 0 5792.47565655 0 2644
0.05050000 0.05050630 37078.89062943 0 -772.25479573 0 18312.07512457 0 3000.31214541 0 4430.39147433 0 2829
0.05150000 0.05149060 37548.02503200 0 -1705.13802207 0 17516.97147934 0 2536.27101226 0 1749.88128666 0 2784
0.05250000 0.05249300 40500.79261464 0 -925.86890857 0 15962.97069104 0 64.77763984 0 733.40090071 0 3055
0.05350000 0.05348950 39932.78235144 0 222.31788834 0 16169.02665592 0 -1586.08838562 0 1443.35504638 0 3009
0.05450000 0.05448610 39400.31425091 0 2147.58812182 0 16613.02688115 0 -28.32378195 0 115.87520092 0 3336
0.05550000 0.05550870 37737.25106315 0 1710.35308706 0 18481.59241754 0 -1281.57730846 0 -1639.83345029 0 3349
0.05650000 0.05647670 36296.07726476 0 1565.36099356 0 18398.66070465 0 1246.52232808 0 -2390.19383093 0 3324
0.05750000 0.05747970 35463.32771515 0 1355.05325596 0 18034.93483436 0 722.04069545 0 -1165.20717462 0 3639
0.05850000 0.05849280 34047.39881734 0 361.17037772 0 16306.54493016 0 3402.95723744 0 1529.09912978 0 3846
0.05950000 0.05951020 34114.60782899 0 -256.66202546 0 15920.56368699 0 4794.44951437 0 178.26332235 0 3787
0.06050000 0.06049470 33414.06183771 0 101.53332931 0 13281.80723621 0 3540.26513751 0 -1773.17745808 0 3930
0.06150000 0.06148310 34153.13951936 0 749.50891886 0 12329.14440881 0 2533.14861666 0 809.70804166 0 4083
0.06250000 0.06249100 31326.04282341 0 1051.84317696 0 9729.28503512 0 765.59479235 0 576.67103567 0 4303
0.06350000 0.06350600 32345.91466246 0 340.16396308 0 10460.50136614 0 50.94254853 0 656.39952499 0 4470
0.06450000 0.06451750 30858.67999282 0 258.13907359 0 8946.57132136 0 -441.08709657 0 -934.45328200 0 4479
0.06550000 0.06550280 31760.07795630 0 985.20771174 0 10592.09594661 0 -2276.11566832 0 -545.94311983 0 4636
0.06650000 0.06648880 30329.53358973 0 865.24128679 0 11326.65611973 0 -2624.61709199 0 -1251.46058495 0 4653
0.06750000 0.06749660 30448.67180478 0 270.75709495 0 11878.61151194 0 707.00780004 0 -835.82544145 0 5220
0.06850000 0.06852730 30563.49181315 0 -702.67630657 0 12034.17767564 0 1431.27514001 0 -3008.37279788 0 5029
0.06950000 0.06949320 31201.58989245 0 -553.30843030 0 11169.09693756 0 2188.13497531 0 -2420.87524300 0 5040
0.07050000 0.07048030 30951.02318180 0 193.12902565 0 11253.68949918 0 1031.79451841 0 -4096.35050688 0 5475
0.07150000 0.07148790 30933.86107833 0 941.06013822 0 10254.20181012 0 -755.65073743 0 -2559.56718368 0 5509
0.07250000 0.07249820 30069.66612624 0 603.51477996 0 11838.30824960 0 -459.02979894 0 -2509.39847992 0 5916
0.07350000 0.07351270 29858.29544545 0 223.71189403 0 10494.02836569 0 107.01169418 0 -1617.87703018 0 5721
0.07450000 0.07449140 29583.92323644 0 854.79344109 0 11235.64160972 0 1215.36480604 0 -2764.33875887 0 6028
0.07550000 0.07549160 28585.75315404 0 1052.76882331 0 11274.39474659 0 1040.87825369 0 -2485.15008857 0 6183
0.07650000 0.07648840 27854.64754627 0 1070.60523136 0 10461.75253885 0 1600.06165954 0 -2589.62854556 0 6330
0.07750000 0.07749960 26215.16841037 0 1297.55467317 0 9079.40600221 0 876.70335744 0 -163.45187344 0 6583
0.07850000 0.07848650 25791.31981631 0 755.34403404 0 9321.76812017 0 2941.58453457 0 146.85999470 0 6549
0.07950000 0.07947320 24679.32623478 0 541.58948171 0 7921.60621290 0 1204.13746868 0 -497.56481100 0 6828
0.08050000 0.08048110 24339.40586284 0 563.96554294 0 8815.91788850 0 -477.19284057 0 -775.65289222 0 7147
0.08150000 0.08149960 23754.78711242 0 468.78783880 0 8381.51736889 0 -606.67149977 0 -410.90283188 0 7386
0.08250000 0.08250610 23000.31889928 0 638.72477288 0 8488.95213661 0 352.82295204 0 15.01473679 0 7227
0.08350000 0.08350160 23336.14251103 0 -230.14159305 0 7980.27846212 0 -156.34011921 0 -745.95027366 0 7798
0.08450000 0.08449610 23049.81219122 0 576.13513515 0 8294.82106556 0 719.93141757 0 -1352.90522494 0 7371
0.08550000 0.08548940 22819.72928149 0 692.14763290 0 7711.77458526 0 169.29363201 0 -966.69921357 0 8256
0.08650000 0.08650700 22076.11194667 0 569.44302203 0 6661.23240647 0 377.54413167 0 -1880.35756233 0 8037
0.08750000 0.08749060 21674.07583250 0 265.07699232 0 6795.80544232 0 196.08976531 0 -584.65971803 0 8155
0.08850000 0.08849210 20975.74430619 0 529.32245305 0 7164.12632741 0 992.96276804 0 -1404.28081210 0 8718
0.08950000 0.08949900 20365.43776218 0 943.58684274 0 6503.25247596 0 1265.89889652 0 -82.07305410 0 8571
0.09050000 0.09049190 19729.00053161 0 804.70888701 0 5754.24291895 0 51.84007118 0 -842.37250711 0 8932
0.09150000 0.09150830 19329.28960566 0 -104.73411697 0 5324.84709016 0 787.08396036 0 393.69311741 0 9285
0.09250000 0.09250820 19373.80035143 0 -1.44275714 0 6354.66187689 0 -611.28644475 0 -675.79491638 0 9204
0.09350000 0.09350330 19388.41582019 0 -57.45650795 0 5910.38484354 0 -165.61872740 0 -23.61870824 0 9349
0.09450000 0.09448040 19316.88860186 0 161.47103453 0 6457.40197888 0 396.31836563 0 640.83958692 0 9564
0.09550000 0.09549270 19465.92209392 0 130.07102857 0 6094.05256764 0 170.94562288 0 911.12057191 0 10155
0.09650000 0.09649430 19503.67872155 0 377.68475019 0 6057.60247433 0 477.55933452 0 403.82540186 0 9913
0.09750000 0.09749140 18667.27530475 0 686.16525580 0 6502.89816156 0 772.94570880 0 691.23859503 0 10476
0.09850000 0.09850240 18318.38634971 0 601.86057463 0 6571.80123891 0 -574.75884517 0 297.71820589 0 10575
0.09950000 0.09950330 17830.65044145 0 589.82274309 0 6745.93569133 0 -24.52298501 0 988.34450136 0 10882
0.10050000 0.10051200 17413.11307254 0 551.09285811 0 6740.13379313 0 -359.98231727 0 508.22635257 0 10875
0.10150000 0.10150300 16968.22706133 0 105.43023403 0 6198.37601208 0 928.49194232 0 196.57251867 0 11118
0.10250000 0.10250800 17177.82617014 0 -207.73895825 0 6489.92139688 0 525.02749825 0 -523.31239514 0 11575
0.10350000 0.10349800 16698.39450550 0 260.24392254 0 6308.22454660 0 -88.84322711 0 -804.59041313 0 11364
0.10450000 0.10450100 16787.85889003 0 602.93459014 0 6503.00888481 0 -47.74762921 0 -946.25305856 0 12093
0.10550000 0.10551000 15894.98661666 0 750.01160240 0 6584.30189363 0 -379.30795301 0 229.51268500 0 12067
0.10650000 0.10649700 16153.19323143 0 -223.93001883 0 5769.16841281 0 847.63296863 0 -135.83749534 0 12054
0.10750000 0.10749900 16007.37071357 0 -353.09643847 0 6174.55944139 0 833.51243279 0 102.77243318 0 12807
0.10850000 0.10850100 16524.00538960 0 -34.18015599 0 5633.23348101 0 396.83322873 0 -1323.03209258 0 12736
0.10950000 0.10950300 16207.22617654 0 396.27739803 0 5702.33586020 0 32.81349894 0 -165.71062770 0 12933
0.11050000 0.11050200 15917.90632903 0 446.08846569 0 5200.37201455 0 -358.87065586 0 -210.19147819 0 13428
0.11150000 0.11150900 15532.25725560 0 254.24161525 0 5443.98530521 0 321.12067162 0 -328.67642608 0 13453
0.11250000 0.11250000 15799.65389997 0 30.23541883 0 5333.19562307 0 555.92482066 0 8.95125491 0 13668
0.11350000 0.11349100 15482.54251716 0 -90.68721209 0 5072.17663780 0 501.78336676 0 -771.66906975 0 13791
0.11450000 0.11448600 15324.76188850 0 235.03334616 0 5018.06618641 0 643.59105964 0 -3.21549171 0 14205
0.11550000 0.11549300 15202.30197600 0 269.80708948 0 4878.33344720 0 183.88141996 0 273.77098177 0 14776
0.11650000 0.11649800 15033.22757602 0 19.39782730 0 4956.39333717 0 871.39417769 0 473.55447463 0 14553
0.11750000 0.11747300 14803.69828253 0 305.17652388 0 4771.80661012 0 274.62797971 0 985.20549727 0 14568
0.11850000 0.11849100 14718.66282792 0 215.50730134 0 4679.85095250 0 306.51295349 0 1326.08805423 0 16015
0.11950000 0.11950300 14590.33458327 0 131.89131877 0 4580.41040330 0 268.64006645 0 1719.41024876 0 15270
0.12050000 0.12050700 14588.12011831 0 -13.98578565 0 4926.01087787 0 71.36091201 0 1804.20211222 0 15999
0.12150000 0.12150000 14362.79830825 0 131.70530372 0 4904.53056772 0 119.56671402 0 1304.03198319 0 15670
0.12250000 0.12250700 14422.03524603 0 211.34189274 0 4859.48835036 0 23.91134979 0 1115.10490481 0 16887
0.12350000 0.12352200 14128.39719184 0 245.93737164 0 5027.32264996 0 -273.75105158 0 1351.97514966 0 16407
0.12450000 0.12449800 14118.21065301 0 250.39841131 0 5078.49893527 0 -110.07009175 0 1121.11717719 0 16306
0.12550000 0.12549900 13808.96062082 0 213.16771911 0 4814.76723041 0 95.68426300 0 876.75429014 0 17523
0.12650000 0.12650100 13453.76044064 0 434.97960220 0 4766.61368978 0 565.69393284 0 1003.79925234 0 17154
0.12750000 0.12750600 13198.76480007 0 331.82871695 0 4062.04844459 0 805.43633875 0 958.88547394 0 18007
0.12850000 0.12850300 12986.06544030 0 7.83704687 0 3708.88557218 0 1120.48605467 0 683.15911961 0 17496
0.12950000 0.12949900 12874.56712938 0 -99.73208351 0 3054.45581377 0 938.31752336 0 1020.07999875 0 18405
0.13050000 0.13049000 13001.67741830 0 -62.45942719 0 2684.13083789 0 128.33488804 0 774.92876217 0 18100
0.13150000 0.13148800 13077.74428980 0 105.86139036 0 2851.90977586 0 -290.34403756 0 578.73159532 0 19059
0.13250000 0.13249300 12865.81999277 0 390.84642270 0 2871.54100777 0 -997.43266557 0 526.02068579 0 18957
0.13350000 0.13349100 12483.04972379 0 449.47106092 0 3416.80871579 0 -674.62014271 0 870.75862625 0 19468
0.13450000 0.13450700 12440.42127324 0 272.51205844 0 3893.53873318 0 -194.36580433 0 263.64644795 0 19953
0.13550000 0.13551000 12093.30389017 0 88.14611354 0 3686.45304209 0 450.11547023 0 92.19603779 0 19956
0.13650000 0.13649900 12091.86448795 0 142.53625186 0 3797.58596630 0 37.89757833 0 -315.94435977 0 19723
0.13750000 0.13749600 11880.38308391 0 251.09043161 0 3587.73219401 0 218.91647015 0 120.69166222 0 20946
0.13850000 0.13851100 11720.16654379 0 393.55360612 0 3699.51838538 0 42.24900198 0 -51.25512026 0 20955
0.13950000 0.13949800 11378.25315339 0 140.42808121 0 3263.71168052 0 583.59234591 0 917.01437041 0 20506
0.14050000 0.14048300 11346.80775090 0 -132.44714948 0 2829.27794393 0 835.16663812 0 897.92125349 0 21447
0.14150000 0.14148400 11457.08810609 0 -129.12434480 0 3002.10586203 0 655.55249214 0 619.73019966 0 21771
0.14250000 0.14249400 11355.77633400 0 90.45126085 0 2587.91233521 0 530.76406974 0 606.07691592 0 22470
0.14350000 0.14350900 11222.68698968 0 418.98452176 0 2798.25328979 0 -256.41289815 0 952.48345573 0 22519
0.14450000 0.14449900 10966.86092475 0 474.48897885 0 2776.33008665 0 -501.09356092 0 856.62701808 0 22218
0.14550000 0.14550500 10630.70514325 0 290.69724472 0 3255.16384576 0 -550.59681795 0 1183.80868031 0 23559
0.14650000 0.14650700 10400.43400400 0 71.06395226 0 3173.02934025 0 -70.84682397 0 898.27888958 0 23044
0.14750000 0.14750500 10462.38366136 0 -7.00070989 0 3339.41316530 0 256.38411011 0 830.47197240 0 23649
0.14850000 0.14849900 10529.71446858 0 -99.72710096 0 2854.02458990 0 617.11934546 0 291.33058170 0 23640
0.14950000 0.14949500 10432.78733712 0 -20.98703808 0 2689.43448147 0 623.43057061 0 336.47134275 0 24457
0.15050000 0.15050000 10519.77152090 0 158.58005052 0 2505.31279207 0 244.80024388 0 47.08340044 0 24591
0.15150000 0.15149900 10282.92342070 0 277.85445516 0 2264.25720844 0 26.66138310 0 461.63733143 0 25020
0.15250000 0.15250500 10047.91332643 0 252.00611287 0 2344.67550360 0 -89.14882328 0 811.48404256 0 25297
0.15350000 0.15350100 9851.99961108 0 89.70321458 0 2261.89880325 0 99.01127516 0 616.47161446 0 25452
0.15450000 0.15450400 9844.92439552 0 43.96576594 0 2332.09734260 0 543.51385177 0 928.65470549 0 26061
0.15550000 0.15549900 9843.76180142 0 138.61000547 0 2164.92738249 0 44.09010815 0 526.42261118 0 26128
0.15650000 0.15649500 9609.98073520 0 181.88397256 0 2101.16186386 0 231.53006259 0 1094.40630079 0 26331
0.15750000 0.15749700 9600.22601703 0 148.36583087 0 2000.85767333 0 -124.82274661 0 973.95380079 0 27345
0.15850000 0.15849900 9491.47364266 0 4.65803847 0 2290.88614963 0 -152.75379320 0 1119.83278751 0 26980
0.15950000 0.15949700 9542.19596266 0 2.03704203 0 2395.27602802 0 -358.37683017 0 665.71910079 0 27777
0.16050000 0.16050000 9484.96311567 0 173.03718503 0 2701.58082180 0 -181.78764334 0 757.19643398 0 28224
0.16150000 0.16150500 9391.32446468 0 307.01342257 0 2746.05835060 0 -294.61463324 0 790.73561309 0 28075
0.16250000 0.16249700 9101.73888137 0 142.96585806 0 2526.47200479 0 331.97597888 0 1164.27709933 0 28590
0.16350000 0.16349900 9194.29244453 0 -100.09868818 0 3010.37688867 0 325.80315779 0 696.40494179 0 29163
0.16450000 0.16449100 9136.66099385 0 117.13744595 0 2633.50816882 0 166.21331125 0 480.12036325 0 28996
0.16550000 0.16550500 9019.60437587 0 266.05578583 0 2892.62271422 0 -177.31774581 0 234.21177966 0 30777
0.16650000 0.16650700 8693.51333763 0 338.41453576 0 2851.04613453 0 -398.80853148 0 933.91405978 0 29211
0.16750000 0.16749900 8664.65885916 0 187.75451918 0 2930.53435440 0 -262.62004344 0 707.78286278 0 30922
0.16850000 0.16850800 8599.50929992 0 68.49041180 0 2888.08306105 0 137.77847388 0 640.29482854 0 30867
0.16950000 0.16949900 8388.24934238 0 29.19927067 0 2788.36570373 0 453.68518775 0 303.76923140 0 30852
0.17050000 0.17049200 8540.48273632 0 -23.41010564 0 2741.00937048 0 360.56582879 0 261.99777879 0 31257
0.17150000 0.17149500 8358.98518789 0 53.80075846 0 2591.36690056 0 412.87481293 0 241.61141433 0 32608
0.17250000 0.17250900 8338.58996557 0 154.18433756 0 2363.16628604 0 64.08041555 0 366.32011600 0 32361
0.17350000 0.17350400 8210.78212019 0 146.36174008 0 2123.55010464 0 138.51699795 0 424.59043982 0 32508
0.17450000 0.17449800 8124.29619103 0 119.62871904 0 2206.38216661 0 -22.74410530 0 304.48339635 0 32791
0.17550000 0.17549800 7998.52565342 0 152.54563349 0 1966.64418964 0 -174.38025803 0 298.31057526 0 33633
0.17650000 0.17650100 7931.09519527 0 162.40775321 0 2022.70337020 0 132.32424668 0 275.06422931 0 33984
0.17750000 0.17750300 7854.44149055 0 -4.93727143 0 1766.92159456 0 43.75982070 0 112.01649573 0 34069
0.17850000 0.17849800 7712.22855058 0 118.41851394 0 1707.65143981 0 399.19052669 0 34.11792953 0 34536
