### header ###
fiducial parameters:
Omega_m = 0.31
Omega_nu = 0
Omega_de = 0.69
Omega_k = 0
H_0 = 100
w_de = -1
zeff = 0
beta = 0
fgrowth = 0
b_1 = 2
gamma = 0.55
Lx = 3500 Ly = 3500 Lz = 3500
nx = 700 ny = 700 nz = 700
xoffset = -685.467585 yoffset = -31.7331281 zoffset = 572.489161
bins = 400 dk = 0.001
kx_ny = 0.628318531 ky_ny = 0.628318531 kz_ny = 0.628318531
############################
A(data) = 8.023309 (not used)
A(ran) = 8.01715329 (used)
Ngal = 476110
weighted Ngal = 0
Nran = 23820508
weighted Nran = 0
SN(data) = 3496.52943
SN(ran) = 69.8323128
SN(data+ran) = 3566.36174
############################
13 columns: k_central k_mean P_0(k) sigma^{lin}_{P_0(k)} P^img_1(k) sigma^{lin}_{P_1(k)} P_2(k) sigma^{lin}_{P_2(k)} P^img_3(k) sigma^{lin}_{P_3(k)} P_4(k) sigma^{lin}_{P_4(k)} N_modes
### header ###
0.00050000 0 0 0 0 0 0 0 0 0 0 0 0
0.00150000 0.00179520 136901.54575519 0 -84365.91112542 0 87041.75986434 0 24596.17307539 0 -182460.84068647 0 3
0.00250000 0.00253879 230739.49859322 0 -56189.39109667 0 35408.29826080 0 -19800.97064293 0 225605.26157481 0 6
0.00350000 0.00331552 204395.11615221 0 15867.63797435 0 16422.69361751 0 -67046.24847435 0 153639.57918354 0 7
0.00450000 0.00420575 158394.03546066 0 77218.50400849 0 26362.54105371 0 -73339.20428503 0 63391.16332847 0 24
0.00550000 0.00557378 97841.59476920 0 35102.25920281 0 69361.69304042 0 25916.65853326 0 605.45686573 0 45
0.00650000 0.00659388 81173.20626396 0 10280.16641182 0 97444.54120121 0 28728.80759070 0 -6418.63776969 0 40
0.00750000 0.00754703 69451.37887146 0 4302.00786806 0 67066.73227526 0 29589.45939885 0 14638.83136598 0 57
0.00850000 0.00846663 75724.73666720 0 1864.39126994 0 82388.72608255 0 28159.02575553 0 -1673.18329264 0 75
0.00950000 0.00948925 80362.49064074 0 -6414.61851578 0 66578.66419726 0 20980.61612911 0 7859.53475997 0 112
0.01050000 0.01054430 83549.88078629 0 12653.78497249 0 60602.37687639 0 37310.08077165 0 9754.20883829 0 105
0.01150000 0.01145670 72921.55619287 0 4417.12682920 0 44500.55923213 0 23563.90023255 0 18528.20690503 0 144
0.01250000 0.01249090 67362.47407117 0 1977.52828494 0 19098.87452618 0 41934.88012515 0 5339.26325707 0 169
0.01350000 0.01339930 73022.97868821 0 -8753.78000162 0 8680.70265782 0 33026.08757607 0 -3159.99721394 0 180
0.01450000 0.01448870 74803.62996554 0 -4559.92660239 0 -2253.60563196 0 12434.44221784 0 -3630.06169179 0 267
0.01550000 0.01550050 73991.58566334 0 3694.43618829 0 -8948.30967636 0 -12471.20233623 0 -10971.72167534 0 238
0.01650000 0.01653350 71713.12266216 0 8262.84419149 0 -692.01919393 0 -19557.82238991 0 11696.69321517 0 315
0.01750000 0.01747870 63006.73221076 0 8624.69883889 0 10450.30375498 0 -20660.73666510 0 550.18824917 0 297
0.01850000 0.01844180 62194.35573882 0 1909.33383638 0 15762.56161182 0 -8974.09712086 0 -3676.65403463 0 388
0.01950000 0.01947590 66619.63179909 0 -3443.62588650 0 23433.91113918 0 3150.04319393 0 -13467.49012342 0 399
0.02050000 0.02045430 66262.54932369 0 -350.81664679 0 22595.95759690 0 1123.42022075 0 -16755.74914806 0 462
0.02150000 0.02154770 71254.39624492 0 -178.29986102 0 21847.24699266 0 3262.75946058 0 -20253.60728152 0 571
0.02250000 0.02255340 66751.39246443 0 -3282.83358548 0 17595.91715530 0 -8736.56253653 0 -20648.11421480 0 510
0.02350000 0.02348930 72796.99253866 0 1857.71465807 0 17900.07391806 0 1377.97296833 0 -29453.26980358 0 555
0.02450000 0.02439640 73523.00487702 0 -1580.50793391 0 18130.48899754 0 -11069.25778467 0 -19434.80886118 0 592
0.02550000 0.02547300 72085.92783880 0 -761.24669040 0 20402.86222007 0 3737.83970158 0 -30842.07150559 0 837
0.02650000 0.02652900 72356.86762712 0 1585.72299890 0 19706.08081923 0 -1731.81125256 0 -29511.95312512 0 723
0.02750000 0.02749970 72806.40401475 0 2340.26871832 0 22276.52102588 0 4142.43352278 0 -26812.74178083 0 826
0.02850000 0.02848090 66660.15650792 0 4816.31735589 0 21482.41388989 0 2489.50151222 0 -13516.54052236 0 831
0.02950000 0.02946900 63825.53063110 0 5040.31048697 0 18595.08374693 0 2404.77608271 0 -18499.97247674 0 996
0.03050000 0.03053250 58674.35295572 0 571.64420020 0 17554.50666047 0 8631.69654817 0 -9635.01526161 0 1041
0.03150000 0.03150510 58823.71861753 0 1844.91505058 0 17805.40554087 0 519.20234816 0 -15814.60153847 0 1036
0.03250000 0.03246190 59527.58630625 0 -228.48074433 0 17889.33376299 0 1487.40075451 0 -12091.53231820 0 1059
0.03350000 0.03345080 57452.63263523 0 433.83472381 0 19404.91358417 0 -3042.71914946 0 -14435.76492881 0 1302
0.03450000 0.03451200 55465.48250003 0 5890.17785075 0 21512.41989015 0 -7190.29023096 0 -14362.79830825 0 1339
0.03550000 0.03553350 53484.31142023 0 4815.22119573 0 21163.64165836 0 -1896.65602446 0 -9011.15619203 0 1365
0.03650000 0.03647120 49167.32269669 0 2920.02671815 0 21513.41639938 0 4126.56688131 0 -3272.21522598 0 1308
0.03750000 0.03744890 48733.84118004 0 -1397.29417514 0 16838.45941445 0 8191.94809567 0 -1963.67680659 0 1579
0.03850000 0.03847530 48866.15546162 0 -1041.22260299 0 14156.63162013 0 6304.92499381 0 -17081.93983721 0 1662
0.03950000 0.03950240 47782.50703162 0 1303.72195810 0 10450.86844355 0 4694.46642126 0 -9495.03893126 0 1683
0.04050000 0.04050350 46104.82837510 0 2404.42176832 0 11453.87713190 0 -3896.52826088 0 -7254.13325586 0 1822
0.04150000 0.04152450 44377.32425689 0 2138.24307968 0 9594.06980443 0 -2623.15554511 0 -6628.07079364 0 1887
0.04250000 0.04250150 42920.53848050 0 2580.47173293 0 14523.78991111 0 -351.81979942 0 1404.33617372 0 1920
0.04350000 0.04349210 42223.09274018 0 310.44362880 0 14264.58678711 0 2497.42929679 0 126.37840825 0 2005
0.04450000 0.04448520 41644.34232191 0 -2075.26369611 0 16503.74303519 0 5903.24319404 0 2601.43164382 0 2151
0.04550000 0.04548030 44276.23393130 0 126.12928094 0 14744.12917501 0 7309.17378253 0 3907.42342850 0 2274
0.04650000 0.04648670 42223.64635642 0 647.00465738 0 11612.21137680 0 2048.18078960 0 4123.09017132 0 2311
0.04750000 0.04749250 42069.74104144 0 2484.50789373 0 10235.94354650 0 -1239.63534205 0 3158.19242500 0 2568
0.04850000 0.04851840 38912.46761940 0 479.57560487 0 10507.90198869 0 -3041.52333838 0 397.22297457 0 2493
0.04950000 0.04949480 38448.42648625 0 1884.76434760 0 11458.19533858 0 -2400.56859928 0 52.46665405 0 2644
0.05050000 0.05050630 38471.12475213 0 768.04177614 0 11416.45267401 0 -3085.09293654 0 -6006.19367020 0 2829
0.05150000 0.05149060 38057.90558990 0 -1063.19230990 0 13581.75651554 0 252.77010328 0 -7480.09726076 0 2784
0.05250000 0.05249300 37868.01521926 0 -190.71193714 0 11743.75059565 0 1371.13027159 0 -7830.15988222 0 3055
0.05350000 0.05348950 39347.72070802 0 453.48367143 0 11632.03083823 0 1792.72011139 0 -8395.13632842 0 3009
0.05450000 0.05448610 37642.36123946 0 102.50547943 0 10126.06179500 0 2539.85844550 0 -3110.98003197 0 3336
0.05550000 0.05550870 37948.84319044 0 1387.91591602 0 10061.97517894 0 2608.78366750 0 -692.01697947 0 3349
0.05650000 0.05647670 36567.34922281 0 1277.66877780 0 11556.18541322 0 1799.11991513 0 3867.14231081 0 3324
0.05750000 0.05747970 35655.98616699 0 2085.08484822 0 12497.44374605 0 116.17858262 0 3952.73138166 0 3639
0.05850000 0.05849280 34233.08170455 0 1563.65585554 0 15396.95344631 0 -938.15033126 0 7628.02352034 0 3846
0.05950000 0.05951020 33776.01613603 0 536.02674573 0 15135.75730384 0 -1121.59328715 0 7254.24397911 0 3787
0.06050000 0.06049470 34263.86276754 0 -190.03209640 0 17305.49007530 0 605.85214773 0 7880.33965830 0 3930
0.06150000 0.06148310 34521.51576607 0 -28.79380214 0 15639.99097608 0 723.83551930 0 6323.38255928 0 4083
0.06250000 0.06249100 34600.12927228 0 431.90481760 0 14756.64090205 0 2772.38833902 0 7534.10806122 0 4303
0.06350000 0.06350600 33051.55392315 0 853.44151023 0 12469.09859452 0 3442.20862892 0 4214.90188871 0 4470
0.06450000 0.06451750 32689.37817833 0 1288.44214985 0 11072.98915814 0 2511.32506444 0 2939.99011980 0 4479
0.06550000 0.06550280 30384.89521383 0 1468.20134328 0 10212.89096622 0 1029.95651249 0 2894.26141829 0 4636
0.06650000 0.06648880 29572.96163487 0 606.86637268 0 7120.92211597 0 3022.15784228 0 1642.53509755 0 4653
0.06750000 0.06749660 29325.38445193 0 -844.27473251 0 8585.53602600 0 233.61165965 0 1457.84871957 0 5220
0.06850000 0.06852730 29147.23074560 0 -530.99548133 0 8426.31599511 0 -485.45833105 0 -153.87431247 0 5029
0.06950000 0.06949320 30761.79715065 0 430.23511101 0 9856.66105983 0 -1178.01785443 0 1087.00555889 0 5040
0.07050000 0.07048030 28781.62258009 0 2080.05801276 0 9541.11087483 0 -963.15053346 0 623.93989755 0 5475
0.07150000 0.07148790 28178.18087747 0 1222.66146810 0 8672.08838911 0 -893.71266283 0 2450.98089418 0 5509
0.07250000 0.07249820 27136.93945152 0 -230.26671032 0 9186.64146808 0 1111.48425459 0 542.07666401 0 5916
0.07350000 0.07351270 28597.48981835 0 -309.07287499 0 9140.55845219 0 -395.73153241 0 -2063.37201925 0 5721
0.07450000 0.07449140 27979.43264697 0 -529.96021896 0 10030.44119786 0 -282.15826782 0 -2684.44086298 0 6028
0.07550000 0.07549160 27639.06938205 0 1206.57338014 0 8528.05958787 0 -464.02452466 0 -1698.16245744 0 6183
0.07650000 0.07648840 27347.31362308 0 867.05382636 0 9475.58485655 0 -1148.62083204 0 -1335.31130080 0 6330
0.07750000 0.07749960 26446.13710609 0 731.06131848 0 10316.26219073 0 890.12522959 0 -757.59725214 0 6583
0.07850000 0.07848650 26618.64392676 0 807.04182585 0 10776.28406997 0 1584.21716273 0 -1828.70516705 0 6549
0.07950000 0.07947320 25063.64662923 0 1116.26749892 0 10180.06152314 0 562.90924315 0 -1239.41389555 0 6828
0.08050000 0.08048110 24676.44743032 0 902.14534541 0 10062.59522913 0 221.73548405 0 -1329.75299374 0 7147
0.08150000 0.08149960 23093.76932075 0 816.91944682 0 9461.70016123 0 -151.73513931 0 649.62547667 0 7386
0.08250000 0.08250610 23340.01782471 0 49.92920937 0 8990.52845089 0 1517.86072009 0 -543.18943265 0 7227
0.08350000 0.08350160 22602.60099179 0 -147.20212953 0 7883.15202881 0 817.65243472 0 -1738.45464745 0 7798
0.08450000 0.08449610 22315.27416275 0 741.92326912 0 7109.32939188 0 1017.75259608 0 -2275.00843584 0 7371
0.08550000 0.08548940 22270.54197048 0 409.59076139 0 6265.97255509 0 731.35584232 0 -1699.53542571 0 8256
0.08650000 0.08650700 21933.72184950 0 -298.76675505 0 6318.94255703 0 985.70153742 0 -2284.06559754 0 8037
0.08750000 0.08749060 21706.51774422 0 -17.03421812 0 6557.37399967 0 -81.65485239 0 -775.98727643 0 8155
0.08850000 0.08849210 22101.91046349 0 531.36861867 0 6136.43742704 0 567.89289655 0 -2053.61730109 0 8718
0.08950000 0.08949900 21866.40211460 0 142.76212728 0 6984.31177235 0 -291.31065151 0 122.23735877 0 8571
0.09050000 0.09049190 21557.26280566 0 141.07913391 0 7168.09021969 0 551.95760667 0 -373.65331672 0 8932
0.09150000 0.09150830 20938.87346454 0 747.89900283 0 6693.41965472 0 543.44963228 0 30.30417797 0 9285
0.09250000 0.09250820 20681.66335900 0 397.67915435 0 6601.35327385 0 767.92994566 0 -49.76744270 0 9204
0.09350000 0.09350330 19952.66149295 0 136.23609903 0 6359.65549539 0 414.27324755 0 -571.71284862 0 9349
0.09450000 0.09448040 20271.32300123 0 430.92491685 0 7032.38780672 0 -301.26245706 0 200.02819124 0 9564
0.09550000 0.09549270 19852.45695334 0 845.76838913 0 7278.12698374 0 -550.28568563 0 480.76145086 0 10155
0.09650000 0.09649430 19220.33792944 0 825.47613944 0 7622.53164723 0 -721.10397677 0 1056.18906445 0 9913
0.09750000 0.09749140 18514.14505251 0 547.58403837 0 7782.47137923 0 42.77515886 0 1350.41395186 0 10476
0.09850000 0.09850240 18451.91858703 0 57.37977674 0 8253.11161797 0 1043.60536729 0 2665.30788569 0 10575
0.09950000 0.09950330 18114.43412655 0 91.86785408 0 7806.08864807 0 1965.28229369 0 1997.32560171 0 10882
0.10050000 0.10051200 18346.39933150 0 131.08303906 0 7110.50305831 0 1879.11746195 0 1980.61746356 0 10875
0.10150000 0.10150300 17618.06180493 0 126.19128596 0 6052.94102558 0 1077.98272139 0 2000.30405709 0 11118
0.10250000 0.10250800 17487.62981857 0 560.35153612 0 6452.49693899 0 -459.10619798 0 1451.62607302 0 11575
0.10350000 0.10349800 16970.66297279 0 947.58505923 0 5974.53789354 0 -940.00605290 0 2926.42652189 0 11364
0.10450000 0.10450100 16186.63165238 0 820.36736877 0 6622.94430725 0 -968.78523956 0 1878.76314755 0 12093
0.10550000 0.10551000 15797.66088150 0 160.74801172 0 6736.22526247 0 40.70042663 0 2168.18264599 0 12067
0.10650000 0.10649700 15962.63852130 0 -196.51715704 0 6629.47697889 0 720.49499890 0 870.98560891 0 12054
0.10750000 0.10749900 15706.20347850 0 78.11558377 0 5943.49109475 0 1016.81255570 0 1558.45186287 0 12807
0.10850000 0.10850100 15802.64342767 0 -62.71696947 0 5968.30417467 0 1248.80322700 0 1469.33072041 0 12736
0.10950000 0.10950300 15786.25638694 0 -229.34881460 0 4807.82488275 0 1030.86001420 0 1562.68149095 0 12933
0.11050000 0.11050200 15988.65848462 0 29.71978066 0 4655.76864602 0 1299.16016027 0 1161.94083879 0 13428
0.11150000 0.11150900 15479.66371271 0 556.97890598 0 3734.10832811 0 3.82696084 0 1313.12236187 0 13453
0.11250000 0.11250000 15135.53585734 0 493.65517311 0 3796.00262385 0 -107.33710981 0 1637.60791300 0 13668
0.11350000 0.11349100 14944.31680773 0 -46.38562253 0 3630.82568221 0 -70.92787339 0 1464.29281262 0 13791
0.11450000 0.11448600 14714.01245150 0 205.49570524 0 4390.01070572 0 46.26028382 0 1133.19708356 0 14205
0.11550000 0.11549300 14682.45632577 0 428.26866613 0 3980.92152065 0 -245.80118204 0 396.09691913 0 14776
0.11650000 0.11649800 14356.04419011 0 435.01171194 0 4490.38133020 0 -231.08052620 0 1061.96106738 0 14553
0.11750000 0.11747300 14007.48740482 0 295.25239915 0 4362.34096600 0 -417.02914920 0 895.96477370 0 14568
0.11850000 0.11849100 13880.59856240 0 168.35359164 0 4723.08838092 0 143.31352906 0 598.47797940 0 16015
0.11950000 0.11950300 13761.90324034 0 41.37572772 0 4677.13823292 0 494.99160272 0 726.42090714 0 15270
0.12050000 0.12050700 14037.38268183 0 -169.52393637 0 4261.72675037 0 459.66202868 0 440.00200874 0 15999
0.12150000 0.12150000 13833.54118192 0 -35.17566872 0 3601.29579191 0 597.46929061 0 725.62037806 0 15670
0.12250000 0.12250700 14001.72979592 0 220.24625636 0 3311.37803886 0 181.96369330 0 -420.76273713 0 16887
0.12350000 0.12352200 13623.38845686 0 327.82385707 0 3203.16820841 0 -143.30467120 0 28.83975229 0 16407
0.12450000 0.12449800 13359.64567968 0 239.48774243 0 3299.14311994 0 -149.48745738 0 -591.97188134 0 16306
0.12550000 0.12549900 13169.97675554 0 192.78135465 0 3079.64535273 0 -353.85046379 0 -833.65526578 0 17523
0.12650000 0.12650100 13080.51237100 0 44.62401565 0 3798.92571760 0 -174.26289139 0 -1134.53683487 0 17154
0.12750000 0.12750600 13011.97468038 0 129.20185108 0 3502.84067963 0 -240.38127905 0 -1230.87713311 0 18007
0.12850000 0.12850300 13003.00609727 0 265.87198524 0 3864.24136171 0 -457.30030180 0 -821.93410273 0 17496
0.12950000 0.12949900 12865.81999277 0 164.25572422 0 3964.04729762 0 260.32696497 0 -985.51773683 0 18405
0.13050000 0.13049000 12835.59254602 0 90.79815678 0 3967.69009249 0 231.96852665 0 -204.60216863 0 18100
0.13150000 0.13148800 12813.33717313 0 8.15369321 0 4246.30300190 0 505.01980730 0 -296.13154174 0 19059
0.13250000 0.13249300 12719.33313542 0 -69.15774082 0 3701.35639130 0 740.51819110 0 231.60756886 0 18957
0.13350000 0.13349100 12806.14016200 0 267.36674909 0 3970.97857296 0 500.25981486 0 506.06392753 0 19468
0.13450000 0.13450700 12525.12455810 0 209.66886446 0 3802.36921062 0 436.05251047 0 733.48947931 0 19953
0.13550000 0.13551000 12183.10044445 0 209.19829066 0 3527.10014330 0 -232.29848193 0 687.38874769 0 19956
0.13650000 0.13649900 12059.53329948 0 382.68944101 0 3482.22401081 0 366.63014109 0 841.18223219 0 19723
0.13750000 0.13749600 11857.68481803 0 18.10424759 0 3198.87214638 0 130.58035552 0 443.34695806 0 20946
0.13850000 0.13851100 11579.88018833 0 107.67869103 0 3216.45499819 0 108.54543262 0 39.96035244 0 20955
0.13950000 0.13949800 11707.98698648 0 332.34690176 0 2842.90797579 0 -80.78412477 0 -39.18495753 0 20506
0.14050000 0.14048300 11269.52292367 0 277.38831029 0 2802.66007507 0 95.36360847 0 -52.46133933 0 21447
0.14150000 0.14148400 11233.42714476 0 71.46554548 0 2615.62636423 0 153.01952899 0 212.06159386 0 21771
0.14250000 0.14249400 11254.68600841 0 0.44533444 0 2860.09222390 0 155.05351506 0 -77.77378110 0 22470
0.14350000 0.14350900 11093.14078931 0 197.86908790 0 2809.08202347 0 108.47257672 0 300.71991314 0 22519
0.14450000 0.14449900 10921.96264761 0 336.94855995 0 2830.89450336 0 101.85752698 0 452.32218456 0 22218
0.14550000 0.14550500 10607.34253789 0 137.03552089 0 2624.92711708 0 159.97737791 0 627.37674718 0 23559
0.14650000 0.14650700 10679.93269940 0 235.04552572 0 2798.41937466 0 145.07070701 0 169.61694390 0 23044
0.14750000 0.14750500 10414.39620560 0 264.74482258 0 2797.65538425 0 -374.98199570 0 -344.95717249 0 23649
0.14850000 0.14849900 10088.69269873 0 333.81066310 0 2752.73496246 0 -313.12977480 0 559.53882748 0 23640
0.14950000 0.14949500 9939.33810925 0 98.28183040 0 2841.46857356 0 -55.28123902 0 -102.04132757 0 24457
0.15050000 0.15050000 9897.11933472 0 -17.07507500 0 2947.74074717 0 532.85341743 0 58.44415932 0 24591
0.15150000 0.15149900 9895.67993249 0 89.45187281 0 2810.72072754 0 271.51222751 0 -647.73210912 0 25020
0.15250000 0.15250500 9702.85539578 0 195.74541600 0 2612.03893099 0 126.71389969 0 -217.92771155 0 25297
0.15350000 0.15350100 9617.80886884 0 111.26025594 0 2340.93305781 0 245.38154093 0 -159.83675938 0 25452
0.15450000 0.15450400 9524.98956989 0 -11.71928076 0 2399.82675352 0 111.44405653 0 -108.50590442 0 26061
0.15550000 0.15549900 9532.88413749 0 14.75498005 0 2351.81715310 0 -6.97079246 0 -442.88302765 0 26128
0.15650000 0.15649500 9539.32823053 0 140.74253523 0 2307.74930033 0 -105.96901336 0 -213.67483158 0 26331
0.15750000 0.15749700 9315.26866550 0 290.34957372 0 2403.32560816 0 -156.97013449 0 -115.58510601 0 27345
0.15850000 0.15849900 9170.08834248 0 148.63378113 0 2415.00691084 0 81.82591981 0 -343.31293226 0 26980
0.15950000 0.15949700 9167.38669522 0 -35.06394896 0 2466.47107660 0 169.51397128 0 -160.49002655 0 27777
0.16050000 0.16050000 9163.14599482 0 -53.67243022 0 2429.69988588 0 106.44290886 0 -298.73353807 0 28224
0.16150000 0.16150500 9240.95122132 0 72.87704545 0 2346.50243719 0 282.84253749 0 -335.06737196 0 28075
0.16250000 0.16249700 9199.85075159 0 115.92281192 0 2236.68711964 0 32.15502778 0 -107.55180219 0 28590
0.16350000 0.16349900 9029.53625123 0 144.80386398 0 2019.24880485 0 -0.75031166 0 -524.56799677 0 29163
0.16450000 0.16449100 8895.57219325 0 170.74078487 0 2221.82805973 0 -258.64175714 0 -675.79491638 0 28996
0.16550000 0.16550500 8742.79625540 0 215.28364038 0 2144.69824505 0 -19.06587900 0 -700.90141290 0 30777
0.16650000 0.16650700 8596.97373754 0 190.10295928 0 2317.07219782 0 -97.86108206 0 -352.80855802 0 29211
0.16750000 0.16749900 8544.39126698 0 111.22150280 0 2191.92171040 0 130.56263980 0 -562.43977658 0 30922
0.16850000 0.16850800 8534.76941671 0 -19.69456560 0 2454.34688093 0 44.04858693 0 -442.80884308 0 30867
0.16950000 0.16949900 8468.75621614 0 157.12071811 0 2427.36362534 0 162.34906989 0 -426.61224633 0 30852
0.17050000 0.17049200 8376.86699247 0 208.09437987 0 2499.99807615 0 -156.35119153 0 -237.95201098 0 31257
0.17150000 0.17149500 8283.38335403 0 67.07248988 0 2500.77313889 0 29.18299435 0 -27.94865158 0 32608
0.17250000 0.17250900 8301.43124348 0 -5.58554498 0 2588.82026585 0 40.48960957 0 -11.86421749 0 32361
0.17350000 0.17350400 8278.47831413 0 -8.89313628 0 2373.14245071 0 285.86085324 0 75.55998047 0 32508
0.17450000 0.17449800 8339.83006595 0 68.63789517 0 2390.49278370 0 235.00234365 0 75.24286909 0 32791
0.17550000 0.17549800 8100.13637828 0 185.83125636 0 2261.94309255 0 250.12824658 0 242.77843737 0 33633
0.17650000 0.17650100 8002.23488223 0 247.37123770 0 2125.74242496 0 174.08794866 0 156.77083264 0 33984
0.17750000 0.17750300 7681.05995622 0 186.82222943 0 2140.56826789 0 76.30426215 0 451.56040861 0 34069
