### header ###
fiducial parameters:
Omega_m = 0.31
Omega_nu = 0
Omega_de = 0.69
Omega_k = 0
H_0 = 100
w_de = -1
zeff = 0
beta = 0
fgrowth = 0
b_1 = 2
gamma = 0.55
Lx = 3500 Ly = 3500 Lz = 3500
nx = 700 ny = 700 nz = 700
xoffset = -685.467585 yoffset = -31.7331281 zoffset = 572.489161
bins = 400 dk = 0.001
kx_ny = 0.628318531 ky_ny = 0.628318531 kz_ny = 0.628318531
############################
A(data) = 7.99573269 (not used)
A(ran) = 7.99202409 (used)
Ngal = 475355
weighted Ngal = 0
Nran = 23820508
weighted Nran = 0
SN(data) = 3490.55465
SN(ran) = 69.6134282
SN(data+ran) = 3560.16808
############################
13 columns: k_central k_mean P_0(k) sigma^{lin}_{P_0(k)} P^img_1(k) sigma^{lin}_{P_1(k)} P_2(k) sigma^{lin}_{P_2(k)} P^img_3(k) sigma^{lin}_{P_3(k)} P_4(k) sigma^{lin}_{P_4(k)} N_modes
### header ###
0.00050000 0 0 0 0 0 0 0 0 0 0 0 0
0.00150000 0.00179520 66035.12377191 0 -55150.14268920 0 14282.19178357 0 23511.97102915 0 -66754.27126888 0 3
0.00250000 0.00253879 100259.45833985 0 -34812.38573906 0 -259.33267020 0 -45252.70225706 0 75881.29934014 0 6
0.00350000 0.00331552 99173.15255189 0 9352.61561711 0 27734.06992899 0 -104663.36481322 0 39874.76336939 0 7
0.00450000 0.00420575 78538.32512687 0 42939.91504894 0 31620.89883333 0 -58765.69963548 0 52916.19043379 0 24
0.00550000 0.00557378 47938.18391857 0 13586.96050821 0 60085.85292360 0 -922.43870234 0 20912.52133147 0 45
0.00650000 0.00659388 48368.56518427 0 -13499.82131189 0 70868.74717149 0 19733.76163128 0 6279.65794857 0 40
0.00750000 0.00754703 62582.44072371 0 -13392.97337739 0 72188.23612013 0 41335.86735246 0 -8919.05659419 0 57
0.00850000 0.00846663 78590.14360702 0 -6422.50201106 0 48164.83440761 0 36520.62401208 0 -9470.92340780 0 75
0.00950000 0.00948925 76714.15961300 0 -9312.69988614 0 22605.14762650 0 23982.43411069 0 2675.42799058 0 112
0.01050000 0.01054430 80915.88543518 0 8661.29287241 0 8283.90375329 0 24337.63429087 0 -20053.19820230 0 105
0.01150000 0.01145670 72542.21834458 0 7076.62174437 0 11956.22850892 0 -13728.79698914 0 -15456.96544683 0 144
0.01250000 0.01249090 61637.19635394 0 9871.69727694 0 17.27780926 0 55.30460162 0 -7716.18137054 0 169
0.01350000 0.01339930 53046.29025040 0 6002.08583769 0 4533.15372098 0 -6971.23535674 0 -10862.14994894 0 180
0.01450000 0.01448870 51280.14371858 0 -1010.52790413 0 8607.70282029 0 -4859.03438504 0 -23289.74947004 0 267
0.01550000 0.01550050 54185.74319749 0 -5993.27226714 0 3538.29426370 0 2217.15553866 0 -10366.67448563 0 238
0.01650000 0.01653350 62795.36152997 0 -8549.16343897 0 5069.98431748 0 -4308.28587623 0 -12554.13404913 0 315
0.01750000 0.01747870 65358.71544874 0 -7460.03420819 0 13469.81531163 0 -10807.95091895 0 899.96631189 0 297
0.01850000 0.01844180 80547.50918846 0 -1421.46506022 0 16969.88791005 0 -8341.95595232 0 -12337.33792918 0 388
0.01950000 0.01947590 73182.86305859 0 7089.27741163 0 37819.51843655 0 -14482.26869304 0 975.38434516 0 399
0.02050000 0.02045430 70666.34507381 0 11529.27966391 0 35395.45436401 0 -7133.66636183 0 472.04753123 0 462
0.02150000 0.02154770 64897.11022705 0 6982.41840481 0 48120.98800133 0 -4446.83387669 0 1146.09634198 0 571
0.02250000 0.02255340 63032.30928109 0 -1230.93249474 0 51954.89119303 0 6886.60957815 0 3441.63286803 0 510
0.02350000 0.02348930 65379.86358914 0 -3437.10428718 0 36034.54895254 0 12099.83656182 0 1448.22686930 0 555
0.02450000 0.02439640 67399.67708256 0 -5846.50860166 0 30954.01270950 0 12630.42236713 0 -10010.86532758 0 592
0.02550000 0.02547300 74045.50788521 0 -3576.48271200 0 19510.10066994 0 3800.24332426 0 -18939.87594178 0 837
0.02650000 0.02652900 68803.75859281 0 2497.40715214 0 16067.82560707 0 5540.96779829 0 -13302.06959063 0 723
0.02750000 0.02749970 70075.41509823 0 3430.29480742 0 14684.67079073 0 -973.57069835 0 -21896.40811486 0 826
0.02850000 0.02848090 64465.06811263 0 2143.90103766 0 10809.99929904 0 3213.55404909 0 -8031.47689208 0 831
0.02950000 0.02946900 64335.85408199 0 5274.71160338 0 19231.18880776 0 918.93098984 0 -14464.44225009 0 996
0.03050000 0.03053250 58051.64540792 0 3981.86266826 0 15377.90904763 0 4017.19445675 0 -13297.75138395 0 1041
0.03150000 0.03150510 58089.51275880 0 4475.86551236 0 20844.64798034 0 -7736.51015891 0 -9240.04329068 0 1036
0.03250000 0.03246190 51611.42767716 0 4465.84505840 0 19874.15870998 0 -6549.99983134 0 -8490.80121485 0 1059
0.03350000 0.03345080 50360.47641915 0 5109.49037244 0 25839.59515252 0 -7343.66407434 0 -11173.52586749 0 1302
0.03450000 0.03451200 48116.44834815 0 -352.42767005 0 27309.00337921 0 -3705.14312639 0 -12341.21324286 0 1339
0.03550000 0.03553350 47130.12565331 0 -695.05411817 0 26581.44091537 0 424.04678867 0 -16762.28181970 0 1365
0.03650000 0.03647120 50867.14600285 0 -2321.67828495 0 24955.58073900 0 2531.85315466 0 -21719.58308750 0 1308
0.03750000 0.03744890 50317.84796859 0 -1517.92715404 0 26852.82359668 0 -135.56400892 0 -19020.03957347 0 1579
0.03850000 0.03847530 54018.66181598 0 2278.89482185 0 28599.92572981 0 -929.63792794 0 -20227.80876469 0 1662
0.03950000 0.03950240 49637.12143874 0 3143.18942487 0 27188.75793168 0 -1777.22992897 0 -13644.31515077 0 1683
0.04050000 0.04050350 48020.45129197 0 3328.28547886 0 29293.93904944 0 1759.23740114 0 -10047.00539579 0 1822
0.04150000 0.04152450 46536.20615003 0 113.65852150 0 26748.85446663 0 9879.91294195 0 -4202.74447606 0 1887
0.04250000 0.04250150 44607.18572013 0 -224.38619861 0 23462.92063020 0 12687.00194695 0 -2496.49922151 0 1920
0.04350000 0.04349210 46599.87201774 0 -161.56404206 0 17710.07282418 0 7311.28859657 0 -2660.66858160 0 2005
0.04450000 0.04448520 45059.15801923 0 1216.02914553 0 19985.21412791 0 5155.42944811 0 -1319.30071912 0 2151
0.04550000 0.04548030 43389.34071333 0 1872.45192241 0 17761.22696484 0 -2361.79331777 0 3113.74811317 0 2274
0.04650000 0.04648670 41703.68998293 0 2682.15996407 0 19025.46501263 0 917.02101381 0 3818.94448087 0 2311
0.04750000 0.04749250 38879.47209144 0 2651.73321547 0 16777.00801171 0 699.57937732 0 6876.97665556 0 2568
0.04850000 0.04851840 38872.05363381 0 254.81626891 0 17868.07489934 0 3943.35312254 0 5587.83694925 0 2493
0.04950000 0.04949480 37745.22313702 0 -1024.23765672 0 14443.07266319 0 4665.85553393 0 3048.73142184 0 2644
0.05050000 0.05050630 38346.67182117 0 -318.96378275 0 12876.44942460 0 4887.44597052 0 1866.61680723 0 2829
0.05150000 0.05149060 38605.43205218 0 132.85128934 0 12564.76348095 0 1311.15148805 0 604.49910964 0 2784
0.05250000 0.05249300 36534.57514135 0 1858.75545661 0 11341.93592798 0 -1894.91766946 0 1943.37016287 0 3055
0.05350000 0.05348950 36054.58986046 0 2473.34699031 0 11929.10131311 0 -2245.56712414 0 3626.47425855 0 3009
0.05450000 0.05448610 35215.19691596 0 1064.03823551 0 14943.20957525 0 -2414.12112486 0 5620.75497094 0 3336
0.05550000 0.05550870 34337.93662058 0 1062.16479816 0 14927.81904375 0 1259.51016510 0 6809.01472583 0 3349
0.05650000 0.05647670 35123.96095945 0 -1416.68181590 0 14787.64341154 0 960.48874658 0 3839.47257109 0 3324
0.05750000 0.05747970 35847.31593986 0 -1816.29309093 0 14957.16070452 0 3340.56468708 0 3331.75111653 0 3639
0.05850000 0.05849280 36638.76571789 0 468.24750935 0 13831.99105645 0 560.22309715 0 2883.48804625 0 3846
0.05950000 0.05951020 36036.20980126 0 2382.65357772 0 12447.72900762 0 -913.19663281 0 661.90800659 0 3787
0.06050000 0.06049470 34382.55808960 0 676.16362479 0 11604.79291918 0 -685.25511070 0 -736.12247815 0 3930
0.06150000 0.06148310 33748.33532399 0 252.71917059 0 12415.84071214 0 1898.95906802 0 672.71681008 0 4083
0.06250000 0.06249100 33296.14157839 0 360.13843705 0 11867.09629413 0 1806.48301114 0 -2149.14931962 0 4303
0.06350000 0.06350600 32951.46010679 0 277.91978188 0 10803.53306135 0 1712.36825018 0 -1521.82461237 0 4470
0.06450000 0.06451750 32774.19218644 0 1295.14090636 0 11461.51703602 0 433.03198026 0 1054.62897388 0 4479
0.06550000 0.06550280 31688.21856823 0 913.25420890 0 11261.44012655 0 -733.47065636 0 1010.40389409 0 4636
0.06650000 0.06648880 30419.55159051 0 1639.68951007 0 11302.96134462 0 1823.41259578 0 1833.06766303 0 4653
0.06750000 0.06749660 29707.49038142 0 730.25857493 0 11803.87331941 0 -263.56008382 0 1683.58020565 0 5220
0.06850000 0.06852730 28847.17074301 0 363.16671789 0 11502.92753084 0 -623.84024663 0 5.76502736 0 5029
0.06950000 0.06949320 28574.34865948 0 -93.91678779 0 11674.77001203 0 1581.84768522 0 -342.89329115 0 5040
0.07050000 0.07048030 29401.22987694 0 -895.68132218 0 9850.05088192 0 1982.18973368 0 -1296.75746579 0 5475
0.07150000 0.07148790 29406.65531610 0 -736.93297233 0 9918.49999394 0 926.70819079 0 -1900.01093888 0 5509
0.07250000 0.07249820 29794.74030099 0 712.74990769 0 8902.20451582 0 1235.26177374 0 -1049.82690661 0 5916
0.07350000 0.07351270 30175.73899800 0 118.57795541 0 8647.92857636 0 430.94484703 0 24.45909769 0 5721
0.07450000 0.07449140 28968.52342302 0 417.72449120 0 8152.88493371 0 261.29468616 0 2358.96987494 0 6028
0.07550000 0.07549160 29476.63240895 0 765.32462763 0 10542.97911372 0 611.44256453 0 2098.93632657 0 6183
0.07650000 0.07648840 28329.42883449 0 1000.07120057 0 9344.83177277 0 530.51272797 0 3692.91927979 0 6330
0.07750000 0.07749960 27684.24446731 0 885.83913265 0 10118.35545692 0 1008.56810264 0 3172.05497567 0 6583
0.07850000 0.07848650 26777.97468090 0 703.34064606 0 9372.20255972 0 716.16682713 0 4571.07643348 0 6549
0.07950000 0.07947320 26426.09619817 0 1208.47782001 0 10857.39992159 0 1032.46439406 0 3400.55454295 0 6828
0.08050000 0.08048110 24888.26100411 0 1103.35495371 0 10350.81891649 0 -735.94421372 0 4219.86229023 0 7147
0.08150000 0.08149960 23881.12233860 0 1151.14532210 0 8607.60316937 0 -81.43883134 0 2038.72502421 0 7386
0.08250000 0.08250610 23286.53849584 0 732.07000727 0 10108.13570111 0 61.70484826 0 2963.90634140 0 7227
0.08350000 0.08350160 22721.51776034 0 428.47018244 0 10006.04886629 0 31.04646662 0 2218.34027742 0 7798
0.08450000 0.08449610 22989.68946745 0 -75.58079644 0 9524.98956989 0 893.90199958 0 449.70136528 0 7371
0.08550000 0.08548940 22600.16508033 0 -319.85953383 0 9212.97145650 0 195.10543563 0 1093.05104824 0 8256
0.08650000 0.08650700 22919.15875836 0 273.98799933 0 9421.59620073 0 312.99358521 0 433.55237953 0 8037
0.08750000 0.08749060 22568.27678485 0 183.43520527 0 9702.50108138 0 14.78000351 0 348.12053569 0 8155
0.08850000 0.08849210 22345.83377925 0 560.95165612 0 9190.31747992 0 718.41672353 0 -406.29342306 0 8718
0.08950000 0.08949900 21831.19212168 0 935.33131736 0 10518.95216886 0 -48.60507004 0 676.21345025 0 8571
0.09050000 0.09049190 20968.87946480 0 1026.92048103 0 10236.54145204 0 -471.77625927 0 -292.69690658 0 8932
0.09150000 0.09150830 20289.48161393 0 889.81520449 0 10741.07407705 0 -85.59781798 0 854.80119172 0 9285
0.09250000 0.09250820 19481.64479516 0 633.51635129 0 10182.07668625 0 594.92597760 0 611.47467427 0 9204
0.09350000 0.09350330 19371.03227022 0 -176.19390484 0 9271.55512712 0 790.20414149 0 -108.88324925 0 9349
0.09450000 0.09448040 19235.06412145 0 107.34065295 0 8900.33329292 0 553.30178691 0 -1540.13823762 0 9564
0.09550000 0.09549270 19038.75180241 0 299.43220177 0 7615.63358886 0 1268.56732680 0 -1602.88510237 0 10155
0.09650000 0.09649430 18314.40031278 0 383.22755600 0 6627.14071835 0 1017.84117467 0 -654.14962859 0 9913
0.09750000 0.09749140 17847.81254492 0 484.81835067 0 5515.43501726 0 1852.95355840 0 -826.56012004 0 10476
0.09850000 0.09850240 17719.48430027 0 -98.21107825 0 5027.78768760 0 2157.44249091 0 -1.56621356 0 10575
0.09950000 0.09950330 17390.30408341 0 263.28659740 0 4269.16735265 0 1303.04654628 0 472.30440916 0 10882
0.10050000 0.10051200 17128.99721769 0 111.33111882 0 4075.73383807 0 460.44484205 0 1170.04578056 0 10875
0.10150000 0.10150300 17252.01074643 0 147.16005470 0 4620.52543612 0 -345.60601073 0 1150.11559589 0 11118
0.10250000 0.10250800 17039.75427966 0 435.96393187 0 4566.72500983 0 -1236.59045272 0 1725.76576321 0 11575
0.10350000 0.10349800 17108.73486328 0 201.27272055 0 4887.32417495 0 -163.69103565 0 1727.30481636 0 11364
0.10450000 0.10450100 16633.28923556 0 139.85674925 0 4890.45764287 0 102.47314824 0 1878.70778593 0 12093
0.10550000 0.10551000 16607.93361173 0 199.88203656 0 4680.09454364 0 612.57969229 0 28.49396358 0 12067
0.10650000 0.10649700 16379.95444371 0 161.39131379 0 4709.02652840 0 603.65982742 0 197.37636945 0 12054
0.10750000 0.10749900 16078.34431565 0 458.90135997 0 4503.54632441 0 50.87600386 0 317.43358746 0 12807
0.10850000 0.10850100 15827.22398877 0 574.80867064 0 4566.49249101 0 116.43878226 0 1661.18089254 0 12736
0.10950000 0.10950300 15676.30820149 0 220.01595201 0 4691.76477400 0 250.33972799 0 1270.56034526 0 12933
0.11050000 0.11050200 15304.16736433 0 -13.79312720 0 5013.07256792 0 -188.03464900 0 1360.15759770 0 13428
0.11150000 0.11150900 15300.18132740 0 432.22591502 0 5252.75518327 0 -85.56847632 0 897.49829068 0 13453
0.11250000 0.11250000 14945.64548671 0 343.86101234 0 4762.89338864 0 -32.31878747 0 1399.65258033 0 13668
0.11350000 0.11349100 14661.64035511 0 74.23672693 0 5064.82461412 0 193.67599850 0 450.22730071 0 13791
0.11450000 0.11448600 14483.48664877 0 184.07850734 0 4648.48305629 0 123.36119973 0 163.81836739 0 14205
0.11550000 0.11549300 14283.52046255 0 260.29264077 0 5048.95797265 0 37.26889172 0 -563.63337320 0 14776
0.11650000 0.11649800 14063.73481490 0 420.66530067 0 4767.31124624 0 -168.92049467 0 -474.83443538 0 14553
0.11750000 0.11747300 13875.72673948 0 368.62426679 0 5310.60808044 0 -743.36045688 0 -310.72265139 0 14568
0.11850000 0.11849100 13628.81389602 0 313.98345104 0 5426.16993457 0 -181.69463581 0 -95.27669072 0 16015
0.11950000 0.11950300 13638.55754186 0 -135.60165482 0 5773.79664458 0 370.87416320 0 1287.84424431 0 15270
0.12050000 0.12050700 13838.30228159 0 -351.27504103 0 5018.47586243 0 906.91419571 0 137.87923204 0 15999
0.12150000 0.12150000 14128.61863834 0 -404.97913810 0 4773.29030164 0 1280.33720808 0 91.59724646 0 15670
0.12250000 0.12250700 14263.47955463 0 17.95853579 0 4470.59508575 0 528.25065201 0 -802.19436204 0 16887
0.12350000 0.12352200 13748.61645056 0 443.80756678 0 4084.09344331 0 -137.72643395 0 -76.47577246 0 16407
0.12450000 0.12449800 13619.07025018 0 308.90679012 0 3820.39495543 0 309.32975292 0 76.36992103 0 16306
0.12550000 0.12549900 13515.43328988 0 13.47557292 0 3864.54031448 0 208.58156217 0 614.30697496 0 17523
0.12650000 0.12650100 13496.61033769 0 207.46657906 0 3687.18381553 0 446.53468038 0 -327.87146806 0 17154
0.12750000 0.12750600 13218.69498474 0 171.52691993 0 4071.80316276 0 -67.49644920 0 176.55707709 0 18007
0.12850000 0.12850300 13304.39477884 0 -52.27355270 0 3802.76781431 0 -282.87796893 0 696.10488179 0 17496
0.12950000 0.12949900 13480.11257371 0 98.06857743 0 4143.86185268 0 440.59216365 0 600.18865358 0 18405
0.13050000 0.13049000 13345.58382716 0 -70.74296556 0 3744.77097691 0 324.25524678 0 466.27109937 0 18100
0.13150000 0.13148800 13327.53593771 0 218.22002092 0 3333.25695270 0 463.27935720 0 370.86309087 0 19059
0.13250000 0.13249300 13007.65647370 0 364.94382602 0 3659.72444998 0 -177.57462374 0 440.34525081 0 18957
0.13350000 0.13349100 12602.96300158 0 469.50643268 0 3472.61323287 0 -19.96716624 0 18.35127115 0 19468
0.13450000 0.13450700 12202.25556639 0 531.58674347 0 4028.22249227 0 -206.30398495 0 231.02184288 0 19953
0.13550000 0.13551000 11926.11178541 0 318.54857057 0 3930.59780435 0 -572.82340280 0 -350.91519048 0 19956
0.13650000 0.13649900 11876.95066322 0 159.39497362 0 4065.77981806 0 -565.71718473 0 46.18908877 0 19723
0.13750000 0.13749600 11768.33115675 0 89.38754260 0 4319.23640548 0 -316.13923269 0 -0.57683712 0 20946
0.13850000 0.13851100 11738.43587974 0 -16.47827669 0 4546.80589748 0 179.52888907 0 -251.58536453 0 20955
0.13950000 0.13949800 11816.05287671 0 78.54375057 0 4591.41629417 0 217.55789590 0 -968.26484030 0 20506
0.14050000 0.14048300 11468.27115416 0 495.00710397 0 4273.29732981 0 224.34965994 0 -1015.25357236 0 21447
0.14150000 0.14148400 11169.98272355 0 281.21933467 0 4046.39217730 0 223.63328052 0 -527.18327989 0 21771
0.14250000 0.14249400 11050.30196458 0 4.57556073 0 4143.33038109 0 213.78334037 0 -583.23249536 0 22470
0.14350000 0.14350900 10961.97802950 0 142.75659112 0 3814.51555095 0 356.81231068 0 -144.17827763 0 22519
0.14450000 0.14449900 10901.76672714 0 159.44922802 0 3509.38442359 0 704.17992828 0 -342.33192428 0 22218
0.14550000 0.14550500 10669.75723289 0 25.67317811 0 3174.81198455 0 491.70422948 0 330.43803296 0 23559
0.14650000 0.14650700 10655.77288664 0 -31.93247405 0 3067.06719174 0 722.77921951 0 81.42842335 0 23044
0.14750000 0.14750500 10756.89642921 0 -54.45701516 0 2958.81307199 0 191.73723442 0 -418.02565844 0 23649
0.14850000 0.14849900 10560.21872346 0 110.26950432 0 2890.98401015 0 -121.39696931 0 -72.38809158 0 23640
0.14950000 0.14949500 10383.51549168 0 435.00506855 0 2707.22770746 0 -181.41450599 0 -100.72792840 0 24457
0.15050000 0.15050000 10150.39876495 0 353.52715190 0 2697.16296420 0 -173.06375861 0 431.77970033 0 24591
0.15150000 0.15149900 9792.54122681 0 250.72393766 0 2522.44167856 0 378.73883551 0 -77.69372819 0 25020
0.15250000 0.15250500 9678.82845092 0 101.60053832 0 2464.62199836 0 392.99998988 0 -20.55554958 0 25297
0.15350000 0.15350100 9642.56658714 0 39.38492372 0 2260.54797962 0 210.36088476 0 -369.00847646 0 25452
0.15450000 0.15450400 9493.44451648 0 107.66418629 0 2165.07132271 0 113.54336932 0 -272.30832766 0 26061
0.15550000 0.15549900 9510.89450040 0 101.54285151 0 2180.25148004 0 37.90034641 0 -125.71628322 0 26128
0.15650000 0.15649500 9379.48814945 0 83.18881227 0 2276.00494507 0 -158.66641465 0 -133.25210749 0 26331
0.15750000 0.15749700 9295.84780777 0 187.92281852 0 2584.49098684 0 -145.23568465 0 75.63571518 0 27345
0.15850000 0.15849900 9215.71739306 0 97.14392758 0 2742.78094245 0 -70.81582146 0 28.29266872 0 26980
0.15950000 0.15949700 9226.75650090 0 144.55362944 0 2935.77156404 0 38.43447536 0 125.23574433 0 27777
0.16050000 0.16050000 9108.91374786 0 214.56283203 0 2936.66842235 0 -83.82325649 0 229.70202176 0 28224
0.16150000 0.16150500 8971.14081014 0 246.21417976 0 3077.34230917 0 -99.07671260 0 396.41358762 0 28075
0.16250000 0.16249700 8860.07431988 0 211.24888521 0 3101.13673521 0 -64.46373943 0 763.89297603 0 28590
0.16350000 0.16349900 8597.91488515 0 50.41118767 0 2882.32545214 0 419.10299564 0 649.09289784 0 29163
0.16450000 0.16449100 8657.69436685 0 -19.50489668 0 2770.24030800 0 623.50807689 0 606.14888603 0 28996
0.16550000 0.16550500 8592.67767551 0 -12.83459604 0 2370.88369644 0 728.19137188 0 517.63893590 0 30777
0.16650000 0.16650700 8580.65313076 0 30.26885725 0 2100.56395832 0 181.37907455 0 521.79216494 0 29211
0.16750000 0.16749900 8534.10507722 0 132.94983303 0 2059.61850114 0 105.20147980 0 703.02287034 0 30922
0.16850000 0.16850800 8483.39382955 0 227.10002543 0 2051.22567893 0 -374.17814492 0 528.14657215 0 30867
0.16950000 0.16949900 8215.08925454 0 213.49213822 0 2158.45007247 0 -396.36265493 0 409.47671644 0 30852
0.17050000 0.17049200 8180.62110738 0 123.92810277 0 2475.89362502 0 -419.67543483 0 568.48637316 0 31257
0.17150000 0.17149500 8105.60610674 0 32.52672573 0 2374.47112968 0 105.00118144 0 493.66070927 0 32608
0.17250000 0.17250900 8190.76335692 0 -46.66010546 0 2496.28884734 0 169.61140773 0 196.45736649 0 32361
0.17350000 0.17350400 8237.49963998 0 -29.26337943 0 2268.03287120 0 351.76665226 0 -143.36003282 0 32508
0.17450000 0.17449800 8110.50007431 0 85.17197637 0 2192.09886760 0 139.86671434 0 8.08678315 0 32791
0.17550000 0.17549800 8002.34560548 0 146.77252333 0 2009.72660551 0 -109.41571735 0 116.28044801 0 33633
0.17650000 0.17650100 7999.68824752 0 23.76663450 0 2104.99288825 0 123.27815730 0 74.21834688 0 33984
0.17750000 0.17750300 7915.67144680 0 181.51969308 0 2299.67757553 0 -94.67081311 0 -30.11406615 0 34069
0.17850000 0.17849800 7759.76204103 0 196.79175070 0 2249.97390942 0 3.72501795 0 232.59079130 0 34536
