### header ###
fiducial parameters:
Omega_m = 0.31
Omega_nu = 0
Omega_de = 0.69
Omega_k = 0
H_0 = 100
w_de = -1
zeff = 0
beta = 0
fgrowth = 0
b_1 = 2
gamma = 0.55
Lx = 3500 Ly = 3500 Lz = 3500
nx = 700 ny = 700 nz = 700
xoffset = -685.467585 yoffset = -31.7331281 zoffset = 572.489161
bins = 400 dk = 0.001
kx_ny = 0.628318531 ky_ny = 0.628318531 kz_ny = 0.628318531
############################
A(data) = 8.04984529 (not used)
A(ran) = 8.04959085 (used)
Ngal = 478419
weighted Ngal = 0
Nran = 23820508
weighted Nran = 0
SN(data) = 3488.14263
SN(ran) = 70.1148557
SN(data+ran) = 3558.25749
############################
13 columns: k_central k_mean P_0(k) sigma^{lin}_{P_0(k)} P^img_1(k) sigma^{lin}_{P_1(k)} P_2(k) sigma^{lin}_{P_2(k)} P^img_3(k) sigma^{lin}_{P_3(k)} P_4(k) sigma^{lin}_{P_4(k)} N_modes
### header ###
0.00050000 0 0 0 0 0 0 0 0 0 0 0 0
0.00150000 0.00179520 39574.26047381 0 -41737.57129688 0 140.82225597 0 33389.03838362 0 -72246.91944167 0 3
0.00250000 0.00253879 68020.17016540 0 -37177.54504357 0 -2114.30471342 0 -6986.83626241 0 80940.46599628 0 6
0.00350000 0.00331552 65491.02973032 0 -6165.14796530 0 5738.46485608 0 -90251.40538277 0 -47226.01198623 0 7
0.00450000 0.00420575 54800.92156442 0 19917.34077677 0 -13576.88469262 0 -18058.07599323 0 53529.15433575 0 24
0.00550000 0.00557378 42390.39556819 0 -4453.37762066 0 -19601.44734970 0 -9794.63389620 0 4909.59062016 0 45
0.00650000 0.00659388 31373.87526663 0 -6145.69389059 0 -14131.16527305 0 -19782.03696749 0 -2563.60858224 0 40
0.00750000 0.00754703 62690.39589069 0 -12313.75387731 0 -9988.01204916 0 -21989.41564334 0 -11782.28228602 0 57
0.00850000 0.00846663 57461.15832534 0 -139.62755213 0 -7902.98256256 0 -30491.63242508 0 22981.60667033 0 75
0.00950000 0.00948925 73869.56864384 0 3695.46591450 0 14320.72347394 0 -22460.54306437 0 16060.51787269 0 112
0.01050000 0.01054430 61443.20922312 0 9695.28192560 0 42524.92431473 0 3935.65785679 0 11463.62077774 0 105
0.01150000 0.01145670 59362.38721995 0 17135.08699634 0 51551.85856963 0 15666.12166265 0 28693.37615128 0 144
0.01250000 0.01249090 54768.47965270 0 -1537.35908409 0 57000.77105938 0 28155.48261159 0 27264.71407993 0 169
0.01350000 0.01339930 61868.05432641 0 -6530.21358689 0 66266.31391412 0 33348.73512128 0 38843.48703578 0 180
0.01450000 0.01448870 65127.63602977 0 451.39764544 0 63193.96522345 0 12534.53603420 0 22696.49430625 0 267
0.01550000 0.01550050 65631.09463928 0 -1281.46658521 0 60285.04404709 0 14391.14345979 0 42980.32903452 0 238
0.01650000 0.01653350 64302.85855403 0 817.94695856 0 52960.47973306 0 8054.96129302 0 36899.85113712 0 315
0.01750000 0.01747870 64079.64048569 0 3377.72340918 0 48095.30020775 0 19101.86405388 0 34401.15959529 0 297
0.01850000 0.01844180 62980.60152419 0 2324.47958313 0 43479.69088385 0 19882.79512334 0 18269.77884376 0 388
0.01950000 0.01947590 57591.59031171 0 -625.98495595 0 32288.11712690 0 11568.14352403 0 9977.01723061 0 399
0.02050000 0.02045430 59211.58215592 0 -1392.74344964 0 24178.19281349 0 10018.36129148 0 14780.77857016 0 462
0.02150000 0.02154770 59902.38450136 0 -1168.30742556 0 20231.46263188 0 5375.29260203 0 9236.34513419 0 571
0.02250000 0.02255340 67880.21597969 0 -61.13329485 0 15733.66284405 0 -1750.46811988 0 12366.01525046 0 510
0.02350000 0.02348930 65451.50153072 0 -7827.98970656 0 15665.34659992 0 -1798.69916679 0 -821.83998797 0 555
0.02450000 0.02439640 67608.05823565 0 -2450.42727794 0 9778.39079569 0 -1054.26137270 0 -2063.33880228 0 592
0.02550000 0.02547300 73116.42910968 0 2250.08463267 0 15665.90021616 0 -8274.66943439 0 -15157.34833724 0 837
0.02650000 0.02652900 68437.48608781 0 5996.07356532 0 17496.59840167 0 -8330.92791680 0 -17807.50928258 0 723
0.02750000 0.02749970 64527.62674785 0 2504.62630793 0 23190.54143966 0 -6735.05159604 0 -14436.53999154 0 826
0.02850000 0.02848090 66824.13763849 0 -118.39304759 0 25073.16882858 0 -10565.01304011 0 -21911.35575336 0 831
0.02950000 0.02946900 65562.44622540 0 488.77670679 0 30925.99972771 0 -6690.89516466 0 -18314.28958953 0 996
0.03050000 0.03053250 72385.54494840 0 1858.70009498 0 34756.69194522 0 1291.07736315 0 -19156.45061524 0 1041
0.03150000 0.03150510 64300.20119608 0 -113.25991780 0 34351.22341036 0 5357.70975022 0 -6416.08006266 0 1036
0.03250000 0.03246190 70430.06166218 0 1551.22163477 0 33029.07710377 0 12593.10863249 0 -21475.21687876 0 1059
0.03350000 0.03345080 61549.94643437 0 3408.77020797 0 30728.69089944 0 8805.56526480 0 -7912.19473681 0 1302
0.03450000 0.03451200 62497.51599235 0 5462.58681090 0 25159.97585515 0 11767.22392426 0 -9496.62227370 0 1339
0.03550000 0.03553350 54609.81323805 0 3903.99100781 0 22039.24110502 0 6034.33951989 0 1059.37125060 0 1365
0.03650000 0.03647120 52958.37599134 0 1991.68978838 0 18168.24562517 0 7347.99335335 0 1914.81463716 0 1308
0.03750000 0.03744890 51309.59610260 0 1255.00372889 0 19740.62647267 0 2454.60154440 0 6402.14000571 0 1579
0.03850000 0.03847530 49203.30775235 0 1296.38100674 0 18853.73325469 0 -1245.65868675 0 59.86130618 0 1662
0.03950000 0.03950240 50798.38686572 0 884.02991478 0 19275.92100003 0 -151.59119909 0 8119.40222346 0 1683
0.04050000 0.04050350 49420.10387230 0 -563.44735814 0 22411.04977243 0 1367.87500810 0 4570.48960026 0 1822
0.04150000 0.04152450 48739.82023544 0 1382.62334475 0 18880.08538776 0 1520.10840203 0 466.46707952 0 1887
0.04250000 0.04250150 46511.84703543 0 4741.34664454 0 20965.55776735 0 3618.13679796 0 3083.02241180 0 1920
0.04350000 0.04349210 43277.95312565 0 2417.55354555 0 14816.09928633 0 4744.35831689 0 1838.53739149 0 2005
0.04450000 0.04448520 40781.69749529 0 -327.84268002 0 13289.77931008 0 -134.91959961 0 -1366.26952100 0 2151
0.04550000 0.04548030 42724.89050096 0 -2501.91358835 0 10051.58933826 0 2617.70796130 0 -7745.86627338 0 2274
0.04650000 0.04648670 43404.62052158 0 380.74735524 0 9114.89280326 0 -998.51111001 0 -10610.60887371 0 2311
0.04750000 0.04749250 42301.92769289 0 -181.37575285 0 7910.48959878 0 -756.44462312 0 -7946.17570167 0 2568
0.04850000 0.04851840 42534.00362109 0 1344.25773926 0 11887.58009504 0 -3143.80947506 0 -8201.27099317 0 2493
0.04950000 0.04949480 42591.46898689 0 2411.39733295 0 12797.94664163 0 -932.71603424 0 -2921.43290340 0 2644
0.05050000 0.05050630 40814.47157675 0 1629.54726053 0 16095.17424938 0 52.02985083 0 -3607.91704216 0 2829
0.05150000 0.05149060 39183.40740771 0 1569.56847699 0 19459.94303852 0 -1213.84789754 0 3187.57837507 0 2784
0.05250000 0.05249300 39680.88696182 0 1396.90664377 0 19987.98220912 0 2869.30439815 0 2048.04792171 0 3055
0.05350000 0.05348950 37835.46258429 0 1747.79968960 0 19310.79882321 0 2934.79719946 0 3628.35655377 0 3009
0.05450000 0.05448610 36330.73364144 0 1155.38602250 0 19789.23397862 0 2078.37501938 0 243.94656764 0 3336
0.05550000 0.05550870 35729.06351079 0 42.09996849 0 17706.75112673 0 2219.05997853 0 1245.39295095 0 3349
0.05650000 0.05647670 34617.62354550 0 -732.20619686 0 13873.62299776 0 3838.94109950 0 -2338.99540096 0 3324
0.05750000 0.05747970 36797.98574879 0 -2066.71586135 0 12376.53395903 0 25.20227214 0 -5533.37218347 0 3639
0.05850000 0.05849280 36960.85964687 0 -238.76471962 0 11120.26798511 0 -529.35899172 0 -4087.38192378 0 3846
0.05950000 0.05951020 37374.52170209 0 1822.25000168 0 10399.73644754 0 -1048.98540992 0 -9270.29288209 0 3787
0.06050000 0.06049470 34533.91676987 0 1763.83241594 0 10116.03026871 0 -2715.07798575 0 -5611.11097602 0 3930
0.06150000 0.06148310 34274.04930638 0 1477.63496402 0 11274.94836283 0 -297.90864987 0 -6310.14005880 0 4083
0.06250000 0.06249100 33089.64272052 0 1085.85182264 0 12187.75082088 0 260.27603228 0 -6231.37154004 0 4303
0.06350000 0.06350600 32052.16588502 0 550.47059345 0 11185.37325504 0 2282.65941229 0 -5760.67593967 0 4470
0.06450000 0.06451750 31511.17209438 0 706.77971015 0 11360.31598718 0 2416.53489167 0 -3273.88714703 0 4479
0.06550000 0.06550280 30985.67955849 0 14.94708489 0 11880.71525366 0 3563.31771779 0 -5040.05582350 0 4636
0.06650000 0.06648880 30509.56959128 0 -29.01236983 0 9093.52321636 0 1108.15148482 0 -4311.95081575 0 4653
0.06750000 0.06749660 31159.18288839 0 284.71486762 0 8887.41188986 0 1024.53439503 0 -3391.43094730 0 5220
0.06850000 0.06852730 30554.85539979 0 753.52817277 0 8647.81785311 0 -946.32724314 0 -2684.25263346 0 5029
0.06950000 0.06949320 30081.07062080 0 330.64840713 0 8577.46430121 0 1138.57823343 0 -647.40436831 0 5040
0.07050000 0.07048030 29611.27187875 0 673.65020706 0 7968.15426644 0 1060.82615408 0 -2717.09314887 0 5475
0.07150000 0.07148790 28893.78523050 0 1069.12929047 0 6892.03501732 0 914.64489290 0 -1684.25561746 0 5509
0.07250000 0.07249820 28092.37036012 0 903.33451310 0 7534.04162727 0 66.17219915 0 -1918.99997594 0 5916
0.07350000 0.07351270 26991.78127315 0 711.22524856 0 7911.79613311 0 220.60057076 0 -408.23661606 0 5721
0.07450000 0.07449140 26663.37611903 0 454.71380672 0 8462.69965446 0 -581.56943217 0 -313.06001915 0 6028
0.07550000 0.07549160 26742.10034849 0 485.73403193 0 8535.38946690 0 195.05118124 0 -1078.54298103 0 6183
0.07650000 0.07648840 26314.81933374 0 678.25850865 0 9723.02917160 0 -1601.77786989 0 -867.32066939 0 6330
0.07750000 0.07749960 25664.87386688 0 1452.16861694 0 10980.35808870 0 -2197.33607723 0 -1407.10425493 0 6583
0.07850000 0.07848650 24595.06584291 0 820.93537903 0 10649.01876850 0 -561.27386078 0 -668.54697255 0 6549
0.07950000 0.07947320 24139.32895337 0 158.46600557 0 10932.33741596 0 1172.38204110 0 -1319.02391100 0 6828
0.08050000 0.08048110 23973.35480434 0 -306.53288367 0 9456.06434789 0 1567.64189247 0 -1941.98612227 0 7147
0.08150000 0.08149960 24389.12060128 0 -157.89799531 0 9396.94920569 0 1497.85302914 0 -4253.94290602 0 7386
0.08250000 0.08250610 24125.93144034 0 520.34279762 0 7785.77093203 0 1035.88131350 0 -2081.35347476 0 7227
0.08350000 0.08350160 23407.44828286 0 501.83097776 0 7821.39060097 0 729.93526304 0 -1918.50172133 0 7798
0.08450000 0.08449610 23266.82975766 0 497.08980827 0 6845.91878445 0 -72.78614166 0 -1491.26499587 0 7371
0.08550000 0.08548940 22929.56674369 0 675.99643269 0 8293.58096518 0 852.84803362 0 737.74789543 0 8256
0.08650000 0.08650700 22827.25846236 0 520.99385032 0 8312.14925391 0 -59.00884789 0 -713.78959899 0 8037
0.08750000 0.08749060 21982.32935545 0 491.06646357 0 8959.62559233 0 -432.51600993 0 2272.77182622 0 8155
0.08850000 0.08849210 22193.70003624 0 342.49468745 0 9311.94696805 0 1050.08157008 0 1343.62661674 0 8718
0.08950000 0.08949900 21001.54282302 0 99.27280348 0 8943.68144459 0 800.15373258 0 2681.75028805 0 8571
0.09050000 0.09049190 21672.41498378 0 207.09122725 0 8522.47913616 0 2151.25306134 0 1874.67745969 0 8932
0.09150000 0.09150830 20830.91829756 0 122.54406216 0 7294.84619422 0 2219.55823315 0 3569.45178574 0 9285
0.09250000 0.09250820 20804.34471800 0 459.56680669 0 7390.79896110 0 1247.09808897 0 3095.55628350 0 9204
0.09350000 0.09350330 20520.89320264 0 577.15157457 0 6391.06768090 0 314.76072825 0 3459.69182981 0 9349
0.09450000 0.09448040 19683.16110686 0 625.00173350 0 6631.19318924 0 77.76093720 0 4157.73547568 0 9564
0.09550000 0.09549270 19751.03445800 0 321.29893605 0 7058.99460326 0 -1229.85847923 0 4455.64744725 0 10155
0.09650000 0.09649430 19749.92722552 0 196.06429896 0 7629.20825909 0 -329.48359856 0 3570.84689866 0 9913
0.09750000 0.09749140 19335.04721456 0 200.40907922 0 7372.91715651 0 136.80410930 0 2995.98286640 0 10476
0.09850000 0.09850240 18923.26745456 0 387.04529359 0 7079.82164624 0 477.17069592 0 2454.77870159 0 10575
0.09950000 0.09950330 18784.75267107 0 573.21204140 0 6597.06828415 0 387.73509943 0 868.90179738 0 10882
0.10050000 0.10051200 18103.36180173 0 203.16719533 0 5755.00690936 0 497.89808798 0 227.34250934 0 10875
0.10150000 0.10150300 17627.47328103 0 569.24039848 0 5904.33935419 0 387.66755825 0 -449.78551495 0 11118
0.10250000 0.10250800 17369.93100575 0 694.35213277 0 5514.27242316 0 -1014.75863944 0 -261.03670099 0 11575
0.10350000 0.10349800 16439.41282799 0 492.71291827 0 5675.50761717 0 -106.68782868 0 -473.53786615 0 11364
0.10450000 0.10450100 16474.62282091 0 329.21011214 0 5872.83859008 0 -10.54448495 0 -428.90975373 0 12093
0.10550000 0.10551000 16021.54328933 0 31.51803694 0 5894.17496001 0 615.19940434 0 -56.22006144 0 12067
0.10650000 0.10649700 16215.86258990 0 16.32868958 0 5473.49305085 0 1026.52852073 0 -650.20455926 0 12054
0.10750000 0.10749900 16300.23370502 0 294.04773021 0 5439.02490369 0 938.92982292 0 -68.35621522 0 12807
0.10850000 0.10850100 15556.17347721 0 583.53366259 0 4134.69396773 0 930.73298086 0 -177.46943666 0 12736
0.10950000 0.10950300 15270.95038988 0 152.21014205 0 3542.77855525 0 713.25480570 0 -219.90633599 0 12933
0.11050000 0.11050200 15389.20281894 0 -114.50223265 0 3522.08438016 0 641.48399623 0 -237.16255422 0 13428
0.11150000 0.11150900 15157.23761399 0 72.98333977 0 3760.11721911 0 -31.53088083 0 -937.52695937 0 13453
0.11250000 0.11250000 14950.73875612 0 513.78465963 0 3847.73252540 0 -462.92725727 0 695.08179898 0 13668
0.11350000 0.11349100 14899.69533871 0 238.05830530 0 3948.50175358 0 54.83845675 0 379.22380334 0 13791
0.11450000 0.11448600 14479.83278158 0 146.75702208 0 4402.09061210 0 -163.86597839 0 953.92064350 0 14205
0.11550000 0.11549300 14625.65529945 0 208.20953205 0 4701.23161172 0 309.87008237 0 124.69984381 0 14776
0.11650000 0.11649800 14302.56486124 0 8.94797751 0 4666.94062176 0 353.22598467 0 983.10064832 0 14553
0.11750000 0.11747300 14596.09219218 0 10.24934106 0 4655.52505487 0 339.76093046 0 297.17344751 0 14568
0.11850000 0.11849100 14328.58482456 0 -66.31757878 0 4171.91912377 0 -556.50611771 0 -42.38452724 0 16015
0.11950000 0.11950300 14453.48064852 0 375.48357202 0 4462.94410930 0 -318.39355802 0 -496.73770834 0 15270
0.12050000 0.12050700 13932.63848905 0 456.38240607 0 4582.76880849 0 -983.13386530 0 138.18482820 0 15999
0.12150000 0.12150000 13936.62452598 0 230.10062545 0 4533.78484349 0 252.83875170 0 -329.53231679 0 15670
0.12250000 0.12250700 13865.31875415 0 30.74053829 0 4912.63550949 0 218.49461458 0 -1091.53081804 0 16887
0.12350000 0.12352200 13715.84236910 0 -41.33631025 0 4154.14804243 0 752.19617209 0 -755.03954510 0 16407
0.12450000 0.12449800 13504.80385805 0 138.03203012 0 4389.61210203 0 791.62472077 0 -955.70439502 0 16306
0.12550000 0.12549900 13640.66128358 0 81.60004439 0 3255.29671366 0 766.26356077 0 -623.49811179 0 17523
0.12650000 0.12650100 13582.64230153 0 -251.97511036 0 3407.89549431 0 723.42805775 0 -1040.09433309 0 17154
0.12750000 0.12750600 13711.85633216 0 72.30416336 0 3199.33718402 0 -269.80487502 0 -609.84482806 0 18007
0.12850000 0.12850300 13529.27369590 0 298.47776737 0 3571.69946767 0 -303.86777509 0 -238.34175681 0 17496
0.12950000 0.12949900 13289.11497059 0 511.97212006 0 3818.30228604 0 -364.07132683 0 414.78036003 0 18405
0.13050000 0.13049000 13226.00271912 0 271.89422271 0 4137.99352052 0 -147.28627920 0 1050.10814366 0 18100
0.13150000 0.13148800 12816.65887058 0 95.99362376 0 4638.61761487 0 104.66092890 0 1089.76699670 0 19059
0.13250000 0.13249300 13046.18816407 0 109.76128461 0 5005.00084312 0 25.81047494 0 1004.57320784 0 18957
0.13350000 0.13349100 12643.81988016 0 268.44740800 0 4551.78844365 0 381.37737052 0 797.29818001 0 19468
0.13450000 0.13450700 12552.14103066 0 219.32725340 0 4441.59666705 0 -375.76259460 0 512.69957180 0 19953
0.13550000 0.13551000 12264.81420161 0 218.90650506 0 4398.29280469 0 114.50333988 0 549.10869750 0 19956
0.13650000 0.13649900 12194.83710876 0 158.17148173 0 4319.97825124 0 258.65504393 0 -168.93821039 0 19723
0.13750000 0.13749600 11905.62798450 0 223.16602842 0 4078.21403883 0 180.80774259 0 -181.92272570 0 20946
0.13850000 0.13851100 11713.41242565 0 357.47222123 0 4275.30142060 0 103.41318862 0 -438.27694053 0 20955
0.13950000 0.13949800 11474.36093281 0 274.77302716 0 4149.82983575 0 -55.62381674 0 -142.46538898 0 20506
0.14050000 0.14048300 11362.08755915 0 266.54961152 0 4364.16789959 0 119.33640966 0 425.50944278 0 21447
0.14150000 0.14148400 11248.26406001 0 24.79868590 0 4150.92599591 0 217.53353678 0 717.91736168 0 21771
0.14250000 0.14249400 11301.18977265 0 -154.94722074 0 4122.18224068 0 604.27766314 0 536.91253171 0 22470
0.14350000 0.14350900 11304.06857710 0 37.86934390 0 3670.42031576 0 704.15446193 0 375.71276914 0 22519
0.14450000 0.14449900 11107.97770456 0 242.65332010 0 3383.27064391 0 350.47119025 0 68.87495364 0 22218
0.14550000 0.14550500 10876.04571659 0 249.52037595 0 3177.65757203 0 270.19462085 0 274.07214900 0 23559
0.14650000 0.14650700 10657.53338629 0 74.84603697 0 2910.93633947 0 339.74653643 0 712.77205234 0 23044
0.14750000 0.14750500 10700.66009146 0 -36.38465586 0 2621.98187868 0 414.84347228 0 244.24109148 0 23649
0.14850000 0.14849900 10714.69979933 0 28.95102915 0 2543.19121527 0 125.20584905 0 121.01497411 0 23640
0.14950000 0.14949500 10438.19063163 0 337.87863524 0 2435.57929036 0 -1.86456843 0 254.52174507 0 24457
0.15050000 0.15050000 10335.21801082 0 280.51181312 0 2606.55813021 0 -58.14265992 0 578.55111642 0 24591
0.15150000 0.15149900 9994.75509497 0 158.15265878 0 2637.63814597 0 74.81403795 0 377.10234591 0 25020
0.15250000 0.15250500 9891.63853393 0 262.41188374 0 2552.63590834 0 -131.91457066 0 603.26897435 0 25297
0.15350000 0.15350100 9739.21691048 0 161.82202722 0 2657.10329300 0 187.17211490 0 612.83878469 0 25452
0.15450000 0.15450400 9598.04476904 0 39.48357813 0 2517.00516707 0 275.10076798 0 467.68503525 0 26061
0.15550000 0.15549900 9638.02693396 0 7.75892054 0 2497.79468351 0 241.30581817 0 274.37110177 0 26128
0.15650000 0.15649500 9677.74336309 0 -23.83351134 0 2434.19524976 0 -44.96161084 0 42.67783312 0 26331
0.15750000 0.15749700 9553.54509560 0 261.43530469 0 2306.57563390 0 -270.99514994 0 388.12152357 0 27345
0.15850000 0.15849900 9429.43540671 0 298.06587689 0 2599.80401207 0 -198.97632039 0 454.91864473 0 26980
0.15950000 0.15949700 9253.14185094 0 179.16460959 0 2386.76141023 0 44.62999471 0 502.57614522 0 27777
0.16050000 0.16050000 9018.59679431 0 151.67645599 0 2346.35849697 0 294.86043885 0 367.88684996 0 28224
0.16150000 0.16150500 9108.31584231 0 135.34809858 0 2157.76358833 0 491.13289752 0 102.76313243 0 28075
0.16250000 0.16249700 8821.78622066 0 17.55284581 0 2101.70440778 0 72.22964661 0 188.41664421 0 28590
0.16350000 0.16349900 8798.53433854 0 116.88056802 0 2231.68242882 0 33.48525689 0 -9.88684422 0 29163
0.16450000 0.16449100 8659.03411815 0 121.92179751 0 1933.23898566 0 -52.74977339 0 447.93643670 0 28996
0.16550000 0.16550500 8678.42175891 0 7.16649580 0 1898.39437946 0 277.22997604 0 610.54570622 0 30777
0.16650000 0.16650700 8714.78327361 0 -54.52533140 0 2124.00406996 0 68.08151084 0 485.35092950 0 29211
0.16750000 0.16749900 8721.70347662 0 104.38821754 0 2202.68401012 0 27.88897175 0 366.46848515 0 30922
0.16850000 0.16850800 8573.44504730 0 269.22911413 0 2104.78251408 0 30.13576791 0 608.97343610 0 30867
0.16950000 0.16949900 8489.50575285 0 137.71314716 0 2086.35816558 0 -33.75973982 0 689.41609037 0 30852
0.17050000 0.17049200 8433.52407857 0 -49.16488679 0 1973.44259708 0 186.53324175 0 601.99344253 0 31257
0.17150000 0.17149500 8421.41095522 0 64.08008338 0 1993.57208360 0 56.57913693 0 424.05121760 0 32608
0.17250000 0.17250900 8285.49816807 0 113.36731935 0 1770.25436433 0 223.35204347 0 567.58951485 0 32361
0.17350000 0.17350400 8203.02042049 0 213.02045719 0 1613.96849951 0 257.16028008 0 771.02798214 0 32508
0.17450000 0.17449800 8179.95676790 0 -12.59056200 0 1544.68896312 0 67.73594359 0 450.16086676 0 32791
0.17550000 0.17549800 8158.25501125 0 -24.12083817 0 1592.85357609 0 47.81539184 0 586.46893590 0 33633
0.17650000 0.17650100 8064.81566211 0 140.71596166 0 1575.94613609 0 -91.35431966 0 221.84510007 0 33984
0.17750000 0.17750300 8099.78206388 0 132.23788254 0 1817.14565994 0 -292.96042791 0 412.72090762 0 34069
0.17850000 0.17849800 8024.34631489 0 151.19702433 0 2074.78758614 0 -224.24336562 0 184.86574964 0 34536
