### header ###
fiducial parameters:
Omega_m = 0.31
Omega_nu = 0
Omega_de = 0.69
Omega_k = 0
H_0 = 100
w_de = -1
zeff = 0
beta = 0
fgrowth = 0
b_1 = 2
gamma = 0.55
Lx = 3500 Ly = 3500 Lz = 3500
nx = 700 ny = 700 nz = 700
xoffset = -685.467585 yoffset = -31.7331281 zoffset = 572.489161
bins = 400 dk = 0.001
kx_ny = 0.628318531 ky_ny = 0.628318531 kz_ny = 0.628318531
############################
A(data) = 8.03642917 (not used)
A(ran) = 8.0402304 (used)
Ngal = 477863
weighted Ngal = 0
Nran = 23820508
weighted Nran = 0
SN(data) = 3482.70515
SN(ran) = 70.0333227
SN(data+ran) = 3552.73847
############################
13 columns: k_central k_mean P_0(k) sigma^{lin}_{P_0(k)} P^img_1(k) sigma^{lin}_{P_1(k)} P_2(k) sigma^{lin}_{P_2(k)} P^img_3(k) sigma^{lin}_{P_3(k)} P_4(k) sigma^{lin}_{P_4(k)} N_modes
### header ###
0.00050000 0 0 0 0 0 0 0 0 0 0 0 0
0.00150000 0.00179520 8911.58277494 0 -20023.63509503 0 -15555.84130746 0 -18122.95981666 0 -6032.83368371 0 3
0.00250000 0.00253879 21537.22189774 0 -28988.45360770 0 -25503.21792453 0 25463.68972493 0 22842.87044036 0 6
0.00350000 0.00331552 35920.94689990 0 -30192.12603873 0 -19239.82522112 0 -48198.27282856 0 -46827.51901601 0 7
0.00450000 0.00420575 53918.56799962 0 -25109.04316099 0 -25854.43206778 0 -32290.99593136 0 -16345.74096002 0 24
0.00550000 0.00557378 62235.10189415 0 5817.54339994 0 -15564.25627432 0 -54097.60749193 0 2531.41026166 0 45
0.00650000 0.00659388 59627.12650637 0 14151.87052046 0 -6412.45941245 0 -40221.21641297 0 26910.06751599 0 40
0.00750000 0.00754703 50750.11152951 0 -6285.79201652 0 4159.60669857 0 -22636.37158249 0 -4028.64324061 0 57
0.00850000 0.00846663 61585.71004354 0 -15852.57961260 0 6139.82555844 0 17354.65119750 0 8418.96397143 0 75
0.00950000 0.00948925 72300.84166353 0 -1997.27024009 0 21033.98473473 0 -909.25488518 0 -39699.26702102 0 112
0.01050000 0.01054430 80320.85869942 0 -1115.58101478 0 20743.77910124 0 609.75292776 0 -5730.86924126 0 105
0.01150000 0.01145670 74692.68527086 0 6395.18658573 0 15053.93282343 0 -5867.57923579 0 -5367.38696211 0 144
0.01250000 0.01249090 73125.17624628 0 7748.68971621 0 20547.57750545 0 258.42363234 0 -5269.40795979 0 169
0.01350000 0.01339930 67643.15750532 0 4095.53115484 0 32977.70151661 0 -24217.72101309 0 2910.03948116 0 180
0.01450000 0.01448870 69884.86038811 0 7492.12180551 0 39042.34598953 0 8976.13442863 0 8999.55239562 0 267
0.01550000 0.01550050 65329.48451122 0 -847.98174686 0 49596.26456016 0 -1125.40216689 0 24998.20918955 0 238
0.01650000 0.01653350 71253.39973569 0 -1836.33399885 0 46933.14899478 0 27084.23518539 0 12297.14539008 0 315
0.01750000 0.01747870 70723.81043961 0 -5290.04677325 0 50703.71848852 0 16608.93012096 0 33006.93245413 0 297
0.01850000 0.01844180 75365.10755709 0 -5731.33427890 0 38150.69167188 0 36882.35686390 0 23071.07105487 0 388
0.01950000 0.01947590 79703.24442104 0 -2913.25045536 0 29360.26227511 0 14999.12481558 0 34229.76000710 0 399
0.02050000 0.02045430 80382.08865567 0 1633.64402072 0 24170.88507910 0 16184.41718742 0 28367.18546212 0 462
0.02150000 0.02154770 77277.51949977 0 3691.94491520 0 16546.15003924 0 -663.78476565 0 21394.61035408 0 571
0.02250000 0.02255340 72744.28827252 0 6196.00653457 0 7607.37363455 0 -403.63495787 0 25559.24388811 0 510
0.02350000 0.02348930 65070.83500345 0 5011.42279152 0 19023.69344066 0 -2679.76834191 0 17461.94202499 0 555
0.02450000 0.02439640 68181.38321476 0 2768.93377367 0 20771.34919004 0 556.74970886 0 13993.20410581 0 592
0.02550000 0.02547300 62898.00198104 0 4466.50939789 0 21154.56235201 0 -1354.37784414 0 8359.80453992 0 837
0.02650000 0.02652900 59181.35470917 0 6406.36963380 0 23357.17992818 0 -5710.64010382 0 15293.09503951 0 723
0.02750000 0.02749970 57731.32305092 0 2013.51334060 0 23640.52072029 0 1190.49636450 0 15484.42481238 0 826
0.02850000 0.02848090 56733.04224527 0 -1871.71007664 0 33729.84454154 0 11684.18148812 0 22113.86857430 0 831
0.02950000 0.02946900 59433.58226854 0 -181.86736408 0 25337.90811499 0 7792.61362876 0 10522.93820579 0 996
0.03050000 0.03053250 58443.71642975 0 737.71578569 0 28581.76711711 0 3926.22423604 0 16120.08698022 0 1041
0.03150000 0.03150510 57830.86325104 0 3302.99628898 0 24158.04118232 0 5579.72093516 0 17534.24430606 0 1036
0.03250000 0.03246190 55328.73928852 0 -410.02147482 0 20916.72881490 0 4052.39337735 0 8558.17631138 0 1059
0.03350000 0.03345080 55094.89178835 0 -379.01342917 0 17466.03878517 0 8405.09034843 0 8530.73909047 0 1302
0.03450000 0.03451200 54952.94458418 0 -1302.45971307 0 6610.57652043 0 5331.23582158 0 1542.82881255 0 1339
0.03550000 0.03553350 53377.90637872 0 946.37596136 0 4227.46897738 0 493.97959223 0 -5128.12509511 0 1365
0.03650000 0.03647120 52116.32568889 0 2465.56314597 0 2215.22895414 0 -3702.27539426 0 -9538.18778107 0 1308
0.03750000 0.03744890 49588.62465604 0 3482.52296358 0 287.56266956 0 -7494.03731771 0 -11568.47569377 0 1579
0.03850000 0.03847530 46557.13284394 0 4825.88384453 0 3837.65670982 0 -9889.52371989 0 -13070.87944841 0 1662
0.03950000 0.03950240 45488.54277569 0 2113.00925142 0 7620.02930182 0 -4071.08346164 0 -12912.87737325 0 1683
0.04050000 0.04050350 44021.12756748 0 -1487.77721356 0 10178.04636002 0 -429.71249728 0 -15902.84796728 0 1822
0.04150000 0.04152450 46541.07797295 0 -358.62374302 0 14360.91601303 0 2286.06968833 0 -12202.91990588 0 1887
0.04250000 0.04250150 46184.21694405 0 -584.81251611 0 10614.42882577 0 4693.28168250 0 -15606.22038539 0 1920
0.04350000 0.04349210 47749.84367340 0 2205.58495922 0 15652.83487287 0 -2058.71057051 0 -9511.53669524 0 2005
0.04450000 0.04448520 42772.28005118 0 5734.76669960 0 15742.52070390 0 -1767.82952519 0 -5776.58687044 0 2151
0.04550000 0.04548030 40209.81191840 0 2552.10443675 0 17396.61530856 0 -115.42677177 0 -2240.86138610 0 2274
0.04650000 0.04648670 38402.25489176 0 -207.16762629 0 18371.20133910 0 3730.07800188 0 1677.92224767 0 2311
0.04750000 0.04749250 39768.02615814 0 -1596.85068535 0 17699.44339235 0 5060.65034766 0 -218.86332299 0 2568
0.04850000 0.04851840 39139.00738519 0 -814.52782466 0 17200.19226628 0 5037.67527366 0 1417.98835022 0 2493
0.04950000 0.04949480 39771.01568584 0 1358.77355709 0 13339.93694151 0 3342.41376533 0 2327.39160455 0 2644
0.05050000 0.05050630 39976.96092747 0 945.27426504 0 13922.56267346 0 1065.51306918 0 6542.90247113 0 2829
0.05150000 0.05149060 38359.29427146 0 1726.26401783 0 13206.18325770 0 -894.09576527 0 4826.50389472 0 2784
0.05250000 0.05249300 36062.56193433 0 1827.02217368 0 12238.12989880 0 162.15530420 0 3899.39599301 0 3055
0.05350000 0.05348950 35399.10823120 0 471.48837882 0 14029.29988471 0 1824.77449174 0 3372.99552648 0 3009
0.05450000 0.05448610 35409.29477003 0 -573.05813608 0 10294.28362596 0 2800.47882708 0 1606.91542861 0 3336
0.05550000 0.05550870 35527.65792234 0 -2011.83034722 0 8277.24928608 0 2947.27570953 0 -2348.52867263 0 3349
0.05650000 0.05647670 36620.16421220 0 -433.50033960 0 6626.01134122 0 234.30589442 0 -3669.89991649 0 3324
0.05750000 0.05747970 36473.56663160 0 1169.04927133 0 7392.29372495 0 -487.80123498 0 -2144.51001553 0 3639
0.05850000 0.05849280 34914.80474363 0 1575.38144752 0 6928.37438737 0 -1539.81714020 0 -3750.66145372 0 3846
0.05950000 0.05951020 34775.95779040 0 1478.60932861 0 7457.16647606 0 -1246.85449783 0 -1105.25607188 0 3787
0.06050000 0.06049470 33477.28481243 0 1326.29842840 0 9393.30641082 0 -1177.50852749 0 -3790.89828211 0 3930
0.06150000 0.06148310 33236.35102437 0 187.18429445 0 10429.24419318 0 -447.14919441 0 -1773.33247063 0 4083
0.06250000 0.06249100 33175.45323787 0 881.64493601 0 9419.59210994 0 -202.48514012 0 -1442.36960948 0 4303
0.06350000 0.06350600 32990.54541340 0 -312.23291649 0 10881.41579412 0 -140.98723361 0 -1089.38610872 0 4470
0.06450000 0.06451750 32442.57605812 0 -165.19133567 0 9758.29452614 0 1408.98655015 0 -2132.24187963 0 4479
0.06550000 0.06550280 32946.47756062 0 -4.46571219 0 9737.77750825 0 1717.06291590 0 -3016.09020827 0 4636
0.06650000 0.06648880 32475.90375583 0 318.76448090 0 8900.51045012 0 670.14249456 0 -3531.01974629 0 4653
0.06750000 0.06749660 31780.34031072 0 1111.69462877 0 8658.01546427 0 1163.54632589 0 -2084.99626962 0 5220
0.06850000 0.06852730 30857.24059059 0 981.79411399 0 7893.73717133 0 2061.25720521 0 -1661.56842391 0 5029
0.06950000 0.06949320 30228.99688038 0 269.97760329 0 8775.92465126 0 657.27202419 0 -590.43725712 0 5040
0.07050000 0.07048030 29283.42034087 0 679.17308268 0 8639.64647739 0 1609.08560427 0 -307.05106848 0 5475
0.07150000 0.07148790 29155.97788220 0 882.56836790 0 7980.36704071 0 310.37608762 0 1477.04813081 0 5509
0.07250000 0.07249820 28246.82929135 0 747.44393028 0 8162.40713306 0 413.79049419 0 2740.06822287 0 5916
0.07350000 0.07351270 27665.08934537 0 540.64390517 0 8492.87173960 0 296.07950181 0 1304.58559943 0 5721
0.07450000 0.07449140 27144.80080215 0 294.05215914 0 7841.42043657 0 -909.64352378 0 62.38690347 0 6028
0.07550000 0.07549160 26669.57662093 0 516.54388297 0 8352.49680554 0 -275.55473330 0 -1935.12128088 0 6183
0.07650000 0.07648840 26206.97489001 0 202.57925488 0 7017.38480659 0 -760.22028589 0 -2271.88604024 0 6330
0.07750000 0.07749960 26786.38964777 0 -297.66284426 0 7083.99591270 0 -712.79641146 0 -2251.70119209 0 6583
0.07850000 0.07848650 26353.24030086 0 -47.25646088 0 6029.31268442 0 1129.18890198 0 -3177.02644951 0 6549
0.07950000 0.07947320 26651.63945472 0 427.58771815 0 5769.76631835 0 -5.52789138 0 -3554.27162841 0 6828
0.08050000 0.08048110 26038.01121327 0 1072.27161625 0 6971.73361136 0 -470.55719631 0 -2278.61801373 0 7147
0.08150000 0.08149960 25392.60539959 0 1086.98562870 0 6903.68310302 0 -707.26357074 0 -2377.36100646 0 7386
0.08250000 0.08250610 24384.02733186 0 821.59307512 0 7054.22243126 0 -458.15065635 0 -2352.20468447 0 7227
0.08350000 0.08350160 23688.79605650 0 491.09746608 0 7521.69598510 0 304.54429414 0 -2419.57978099 0 7798
0.08450000 0.08449610 23529.24385586 0 557.02319528 0 7983.73302746 0 -274.70880768 0 -3292.78760549 0 7371
0.08550000 0.08548940 22755.28835104 0 832.95992378 0 7495.08918856 0 1255.07016284 0 -2607.17818040 0 8256
0.08650000 0.08650700 22291.57938764 0 499.98743567 0 7319.34924904 0 1123.95169234 0 -2204.65488394 0 8037
0.08750000 0.08749060 21792.77115456 0 102.87108759 0 6319.98335556 0 1663.35106821 0 -1437.66387143 0 8155
0.08850000 0.08849210 21631.22593545 0 411.12649284 0 6425.52475573 0 627.36235315 0 -954.80532225 0 8718
0.08950000 0.08949900 21556.04484993 0 420.84356510 0 7021.89124279 0 81.62041746 0 -1024.84220566 0 8571
0.09050000 0.09049190 21097.65060244 0 516.89819737 0 6383.11775168 0 -542.96909339 0 -1352.55091055 0 8932
0.09150000 0.09150830 20514.13908450 0 897.42189164 0 6336.06037120 0 -242.47284120 0 -237.13819511 0 9285
0.09250000 0.09250820 19724.46087843 0 718.05576574 0 6638.29054945 0 -242.64446224 0 -89.45962343 0 9204
0.09350000 0.09350330 19568.11965199 0 537.18601813 0 6127.84530298 0 943.38200473 0 -1136.47449171 0 9349
0.09450000 0.09448040 18601.50569533 0 499.33195404 0 6042.34481073 0 589.35106205 0 558.43491669 0 9564
0.09550000 0.09549270 18347.61728723 0 403.46444407 0 6007.50020453 0 1133.82820608 0 -1003.20245403 0 10155
0.09650000 0.09649430 18087.19620750 0 7.98869343 0 5957.56401960 0 -203.79167445 0 405.02564187 0 9913
0.09750000 0.09749140 17881.58313562 0 788.34952709 0 6635.78820404 0 -49.60910846 0 -299.75551365 0 10476
0.09850000 0.09850240 17213.58977931 0 655.82487133 0 6752.75624342 0 -307.15182663 0 1658.15814787 0 10575
0.09950000 0.09950330 16882.19509749 0 274.73316680 0 6704.19302677 0 566.10139440 0 1773.48748318 0 10882
0.10050000 0.10051200 16780.10826266 0 -140.89422608 0 7143.01140398 0 1534.30312244 0 1575.37037520 0 10875
0.10150000 0.10150300 17034.32884049 0 -404.81748216 0 6257.31399709 0 901.47436253 0 1291.77491962 0 11118
0.10250000 0.10250800 16993.36123867 0 -117.33231887 0 5460.82631126 0 415.51556240 0 794.20014352 0 11575
0.10350000 0.10349800 16794.94517792 0 674.86816279 0 5549.53777770 0 35.20312808 0 2177.84878555 0 11364
0.10450000 0.10450100 16692.08328035 0 360.50160931 0 5180.50826382 0 78.57608175 0 2108.92356356 0 12093
0.10550000 0.10551000 16063.72884689 0 154.64937521 0 5310.80738229 0 411.34351041 0 2235.24771741 0 12067
0.10650000 0.10649700 16020.76822660 0 192.54662136 0 5060.76107091 0 774.59769966 0 916.65341262 0 12054
0.10750000 0.10749900 15876.82800395 0 216.72082814 0 5278.62013404 0 -157.80609501 0 1211.64450490 0 12807
0.10850000 0.10850100 15763.55812106 0 147.92404511 0 5077.77923416 0 -320.90254682 0 1300.38918833 0 12736
0.10950000 0.10950300 15824.78807731 0 -56.98969873 0 4644.37522378 0 -55.08725188 0 1072.92266895 0 12933
0.11050000 0.11050200 15913.03450611 0 -49.17950225 0 4644.43058540 0 126.35072744 0 1418.95164248 0 13428
0.11150000 0.11150900 15619.50717517 0 70.09966349 0 4518.02892527 0 900.47120990 0 210.77941864 0 13453
0.11250000 0.11250000 15730.45186985 0 322.25004875 0 4499.44956423 0 250.45155847 0 215.94022924 0 13668
0.11350000 0.11349100 15292.31997678 0 275.72856880 0 3908.50851633 0 475.12453029 0 -175.05013369 0 13791
0.11450000 0.11448600 15234.85461097 0 110.81182679 0 4037.60075139 0 -39.60792034 0 272.87965962 0 14205
0.11550000 0.11549300 14917.07888867 0 268.65446047 0 4209.58717280 0 -171.74504473 0 -406.08083442 0 14776
0.11650000 0.11649800 15086.26401190 0 236.13614971 0 4584.18606607 0 -304.61404978 0 -274.25262790 0 14553
0.11750000 0.11747300 14601.18546160 0 385.35012066 0 4544.90145761 0 -456.78654593 0 528.11114071 0 14568
0.11850000 0.11849100 14765.60948515 0 72.87782051 0 4275.60037337 0 396.62617626 0 206.59740156 0 16015
0.11950000 0.11950300 14543.05575630 0 -290.73156893 0 4247.91956132 0 735.16693652 0 -74.65005682 0 15270
0.12050000 0.12050700 14655.77202295 0 180.29841565 0 4020.22827375 0 769.08589637 0 -989.11956409 0 15999
0.12150000 0.12150000 14506.29563790 0 220.80651600 0 4029.00862733 0 -421.77585485 0 -756.81554600 0 15670
0.12250000 0.12250700 14332.68158474 0 463.94591116 0 4081.70182115 0 -190.16496430 0 -919.03949862 0 16887
0.12350000 0.12352200 13829.44442174 0 353.63233899 0 4182.67035117 0 -722.76150379 0 -649.68083829 0 16407
0.12450000 0.12449800 13859.33969875 0 67.60351858 0 3884.84695820 0 -196.17391497 0 -1218.79722674 0 16306
0.12550000 0.12549900 13497.60684692 0 222.06211763 0 4302.78293080 0 174.91283686 0 -1378.39371667 0 17523
0.12650000 0.12650100 13563.93007259 0 21.64462345 0 3545.45805785 0 533.57090408 0 -1908.50341202 0 17154
0.12750000 0.12750600 13439.36641838 0 27.21998189 0 3434.76802664 0 871.38089090 0 -1911.01682975 0 18007
0.12850000 0.12850300 13135.43110210 0 161.48210685 0 2945.70343940 0 426.83480006 0 -1778.37037842 0 17496
0.12950000 0.12949900 13099.44604644 0 357.27513385 0 2811.72830910 0 562.24268920 0 -1798.55522657 0 18405
0.13050000 0.13049000 12798.61098112 0 281.37877615 0 2596.93627994 0 -156.26593463 0 -1539.08636677 0 18100
0.13150000 0.13148800 12508.18390113 0 207.07240429 0 2731.49824346 0 -37.29325084 0 -1365.60518151 0 19059
0.13250000 0.13249300 12449.50057959 0 146.88435381 0 2733.36946636 0 247.69233512 0 -1469.27535878 0 18957
0.13350000 0.13349100 12180.55380974 0 75.95703404 0 2440.69470442 0 -145.17257239 0 -1348.23270387 0 19468
0.13450000 0.13450700 12319.84365596 0 231.06834664 0 2869.45941070 0 21.53821841 0 -1467.68094401 0 19953
0.13550000 0.13551000 11988.55969739 0 190.82376762 0 2979.66225962 0 -372.21834343 0 -1424.66496209 0 19956
0.13650000 0.13649900 11989.11331363 0 337.40473973 0 3209.13619149 0 -281.31898560 0 -1506.91019084 0 19723
0.13750000 0.13749600 11733.67478006 0 200.77889487 0 3602.25908417 0 -616.91340022 0 -1168.36278719 0 20946
0.13850000 0.13851100 11610.88269783 0 -15.81648383 0 3787.63194629 0 59.35696178 0 -1435.58227436 0 20955
0.13950000 0.13949800 11809.96309806 0 -43.02982233 0 3581.37667957 0 169.93250515 0 -1148.66512134 0 20506
0.14050000 0.14048300 11769.54911248 0 124.39646211 0 3566.49547501 0 423.20861368 0 -1376.16817938 0 21447
0.14150000 0.14148400 11632.80590097 0 192.67173863 0 3356.74135364 0 490.87269788 0 -995.84932312 0 21771
0.14250000 0.14249400 11342.15737448 0 271.33396308 0 3105.12277214 0 326.15747218 0 -932.23992427 0 22470
0.14350000 0.14350900 10965.16685905 0 246.90509283 0 2729.54951429 0 432.56251369 0 -737.78997027 0 22519
0.14450000 0.14449900 11015.08089933 0 15.41998388 0 2567.48389592 0 387.02536341 0 -621.39769177 0 22218
0.14550000 0.14550500 10799.48059047 0 27.71524698 0 2238.39225766 0 277.41266940 0 -338.31156314 0 23559
0.14650000 0.14650700 10747.56245939 0 264.06941076 0 2118.47897988 0 651.28743262 0 -250.75715463 0 23044
0.14750000 0.14750500 10560.77233970 0 107.80757289 0 2016.02675833 0 201.02802217 0 246.15106751 0 23649
0.14850000 0.14849900 10416.45565801 0 331.68477673 0 1870.42568696 0 518.59669200 0 714.32660675 0 23640
0.14950000 0.14949500 10203.52377943 0 135.10229297 0 1914.95857738 0 263.71066744 0 546.69825239 0 24457
0.15050000 0.15050000 10026.17835281 0 182.05116467 0 1820.36770646 0 179.18786147 0 513.75808605 0 24591
0.15150000 0.15149900 9988.13384473 0 97.61084752 0 1981.29287537 0 -530.07980007 0 347.43958772 0 25020
0.15250000 0.15250500 9946.66798828 0 138.85581109 0 2274.26659007 0 -614.88937925 0 244.98958063 0 25297
0.15350000 0.15350100 9855.86385245 0 130.51502880 0 2548.30662934 0 -564.46490479 0 210.83478027 0 25452
0.15450000 0.15450400 9809.21614798 0 227.23842949 0 2828.29250703 0 -30.40814710 0 156.23714659 0 26061
0.15550000 0.15549900 9684.35354100 0 39.34694565 0 2483.93213284 0 137.93902259 0 28.95235783 0 26128
0.15650000 0.15649500 9702.29070721 0 100.55021759 0 2807.43224707 0 170.81496944 0 -302.05966445 0 26331
0.15750000 0.15749700 9691.21838239 0 216.69979072 0 2986.29458219 0 -266.80095330 0 -314.68322197 0 27345
0.15850000 0.15849900 9371.39428001 0 362.14806401 0 3315.67410089 0 -374.47377599 0 -235.87927177 0 26980
0.15950000 0.15949700 9143.94658358 0 325.04359631 0 3402.39254887 0 -309.27217683 0 -26.48367229 0 27777
0.16050000 0.16050000 9009.19639054 0 31.83381964 0 3567.84629864 0 1.32826930 0 84.48327777 0 28224
0.16150000 0.16150500 9078.05517859 0 -15.99430537 0 3402.54756142 0 -37.39622346 0 -4.26068595 0 28075
0.16250000 0.16249700 9083.35882217 0 22.74576615 0 3482.73333776 0 302.26118076 0 92.30011764 0 28590
0.16350000 0.16349900 9072.31971433 0 62.46618131 0 3292.46650807 0 250.34194245 0 -320.88593834 0 29163
0.16450000 0.16449100 8972.15946402 0 116.00474712 0 3299.44207271 0 131.19265508 0 97.11934702 0 28996
0.16550000 0.16550500 8830.92088863 0 203.30892109 0 3093.15358901 0 -21.18501125 0 -459.19366934 0 30777
0.16650000 0.16650700 8585.93462970 0 259.05475485 0 2939.73545633 0 19.85766095 0 -91.51320752 0 29211
0.16750000 0.16749900 8491.58734992 0 105.64404062 0 2984.88839694 0 -24.42920242 0 -387.75392238 0 30922
0.16850000 0.16850800 8413.60496622 0 53.56015685 0 2922.66193145 0 173.29738467 0 2.65632823 0 30867
0.16950000 0.16949900 8495.42944663 0 -107.27300105 0 2641.91206335 0 342.23780952 0 -413.50593544 0 30852
0.17050000 0.17049200 8634.54213565 0 -227.92602086 0 2438.76811991 0 415.79347775 0 -365.72553215 0 31257
0.17150000 0.17149500 8784.84894506 0 -51.18060352 0 2329.21853815 0 168.28494322 0 -376.60076959 0 32608
0.17250000 0.17250900 8697.26685575 0 149.35901841 0 2362.14763216 0 69.71512165 0 -201.12435140 0 32361
0.17350000 0.17350400 8548.63196738 0 287.53166705 0 2193.90365654 0 178.00976611 0 115.34705103 0 32508
0.17450000 0.17449800 8307.22206936 0 137.46734155 0 2161.97107176 0 285.24301751 0 258.98942814 0 32791
0.17550000 0.17549800 8316.75534103 0 64.16268292 0 2080.33482088 0 405.12529279 0 243.87570476 0 33633
0.17650000 0.17650100 8177.99696640 0 161.22412168 0 1905.22600387 0 234.91597951 0 137.43412458 0 33984
0.17750000 0.17750300 8073.16419502 0 170.72971254 0 1732.37594113 0 41.24618152 0 303.94195967 0 34069
