### header ###
fiducial parameters:
Omega_m = 0.31
Omega_nu = 0
Omega_de = 0.69
Omega_k = 0
H_0 = 100
w_de = -1
zeff = 0
beta = 0
fgrowth = 0
b_1 = 2
gamma = 0.55
Lx = 3500 Ly = 3500 Lz = 3500
nx = 700 ny = 700 nz = 700
xoffset = -685.467585 yoffset = -31.7331281 zoffset = 572.489161
bins = 400 dk = 0.001
kx_ny = 0.628318531 ky_ny = 0.628318531 kz_ny = 0.628318531
############################
A(data) = 8.06711274 (not used)
A(ran) = 8.06813174 (used)
Ngal = 479301
weighted Ngal = 0
Nran = 23820508
weighted Nran = 0
SN(data) = 3487.58036
SN(ran) = 70.2763535
SN(data+ran) = 3557.85671
############################
13 columns: k_central k_mean P_0(k) sigma^{lin}_{P_0(k)} P^img_1(k) sigma^{lin}_{P_1(k)} P_2(k) sigma^{lin}_{P_2(k)} P^img_3(k) sigma^{lin}_{P_3(k)} P_4(k) sigma^{lin}_{P_4(k)} N_modes
### header ###
0.00050000 0 0 0 0 0 0 0 0 0 0 0 0
0.00150000 0.00179520 45824.69855719 0 -64367.52093097 0 25790.43403033 0 -144811.61460563 0 33179.32855156 0 3
0.00250000 0.00253879 57051.81447680 0 -25017.25358824 0 -18298.45616504 0 24609.23841868 0 32092.02625436 0 6
0.00350000 0.00331552 82446.19144836 0 -13675.64983001 0 5847.21723045 0 -30197.66220114 0 -4154.84559890 0 7
0.00450000 0.00420575 70149.15678153 0 11088.49041288 0 1672.95077382 0 -44235.37705272 0 34051.93847051 0 24
0.00550000 0.00557378 69562.76645913 0 10966.68376755 0 17392.96144137 0 -4411.10348450 0 23851.44850809 0 45
0.00650000 0.00659388 38969.82226196 0 -727.74515719 0 29555.13519192 0 -24302.09212821 0 22246.18285588 0 40
0.00750000 0.00754703 63595.22627487 0 3574.12430681 0 21869.39164230 0 43300.09777529 0 -22149.41073696 0 57
0.00850000 0.00846663 58901.77850750 0 -9328.56652761 0 34813.71441804 0 12613.14954041 0 22968.65205030 0 75
0.00950000 0.00948925 65536.64770857 0 1317.06410950 0 13145.94981068 0 15640.32314583 0 -7862.26962420 0 112
0.01050000 0.01054430 68838.19352300 0 -4258.94759684 0 9379.45493247 0 13180.38474087 0 695.91665227 0 105
0.01150000 0.01145670 73011.13130065 0 -2914.73414688 0 15532.14653235 0 -11256.56830363 0 -4296.88138167 0 144
0.01250000 0.01249090 67516.60083265 0 8481.34544946 0 11954.45693695 0 -6990.43476798 0 -6022.87966370 0 169
0.01350000 0.01339930 61167.28688864 0 7435.83010613 0 13116.38670342 0 -7591.28554659 0 -13831.99105645 0 180
0.01450000 0.01448870 59718.36246287 0 3496.33015263 0 19786.90879041 0 -12521.13852117 0 -29448.61942716 0 267
0.01550000 0.01550050 57287.32282569 0 713.06657618 0 26678.32375754 0 -304.91189532 0 -29591.56314057 0 238
0.01650000 0.01653350 65920.52521004 0 -10229.22264533 0 21511.97699716 0 -16311.41675309 0 -52818.20035914 0 315
0.01750000 0.01747870 72875.16315188 0 -5842.43398613 0 33141.12903093 0 -19831.08736644 0 -45191.69374730 0 297
0.01850000 0.01844180 82810.69238139 0 -5476.43828925 0 21266.50355593 0 -19298.28709616 0 -65380.19575889 0 388
0.01950000 0.01947590 83403.28320569 0 4408.77829629 0 36872.72394131 0 -15298.52047868 0 -49356.54872784 0 399
0.02050000 0.02045430 82982.75630907 0 7238.78701366 0 36083.82079798 0 -7222.83179360 0 -50829.50009846 0 462
0.02150000 0.02154770 76214.13342419 0 4235.99466749 0 35889.83366716 0 6666.56926703 0 -41599.05651340 0 571
0.02250000 0.02255340 73003.82356627 0 2934.75291016 0 33350.39597000 0 11590.39889691 0 -31804.03508583 0 510
0.02350000 0.02348930 71576.26872740 0 -1026.34804183 0 35153.85623646 0 20795.48685814 0 -40031.32604233 0 555
0.02450000 0.02439640 71778.11720885 0 -4302.92687102 0 24630.05438933 0 11290.89251057 0 -26390.00041926 0 592
0.02550000 0.02547300 74322.09455918 0 -796.72241912 0 23471.88921330 0 3289.04515970 0 -20139.34088939 0 837
0.02650000 0.02652900 75518.01636284 0 -15.60489171 0 25784.89786792 0 58.48700922 0 -11597.37446155 0 723
0.02750000 0.02749970 74971.92930278 0 2986.93677703 0 19902.28241502 0 -1341.04676506 0 -17866.52477386 0 826
0.02850000 0.02848090 72991.20111598 0 5272.34212587 0 26155.71002610 0 -973.90397533 0 -10823.86184972 0 831
0.02950000 0.02946900 67734.61490832 0 5499.85625624 0 15820.24842413 0 3293.98341657 0 -16634.28574480 0 996
0.03050000 0.03053250 62585.54097466 0 6017.06669317 0 25755.99910014 0 440.00200874 0 -11910.61053067 0 1041
0.03150000 0.03150510 60082.64194941 0 1287.75566571 0 21438.12459061 0 -6557.71724174 0 -22686.75066041 0 1036
0.03250000 0.03246190 56316.72283209 0 6173.87295725 0 27739.82753790 0 1348.36557177 0 -16177.99523902 0 1059
0.03350000 0.03345080 55164.75815796 0 2860.20294715 0 26029.48552316 0 -4869.40915339 0 -9339.74957567 0 1302
0.03450000 0.03451200 53402.15477008 0 -1407.61358187 0 29783.00363668 0 3788.13020090 0 115.77112107 0 1339
0.03550000 0.03553350 57926.97103046 0 -3895.17743725 0 27529.45336634 0 6890.50703649 0 -7394.29781574 0 1365
0.03650000 0.03647120 60266.66398789 0 -2722.28606921 0 29611.71477174 0 5354.00052141 0 -2028.27274958 0 1308
0.03750000 0.03744890 60054.62896761 0 4550.80300674 0 27421.16602962 0 1919.07748222 0 -1130.06361564 0 1579
0.03850000 0.03847530 55086.25537499 0 4950.04889505 0 25587.69976290 0 1449.04622134 0 681.58795672 0 1662
0.03950000 0.03950240 50635.07007465 0 4456.43358231 0 21845.58614394 0 2037.70637032 0 2206.84720425 0 1683
0.04050000 0.04050350 46342.10829596 0 1632.17140152 0 22260.02326190 0 4014.53709880 0 -5134.51382653 0 1822
0.04150000 0.04152450 45098.13260259 0 1071.05476775 0 19808.38910056 0 6868.41774848 0 -3735.59201964 0 1887
0.04250000 0.04250150 44689.56381678 0 351.05580900 0 14465.88165231 0 549.64238355 0 -9947.60913589 0 1920
0.04350000 0.04349210 44780.35688029 0 -75.26678531 0 16630.85332410 0 847.28751210 0 -8300.87762724 0 2005
0.04450000 0.04448520 43445.69884665 0 318.95381766 0 17396.28313882 0 -1266.90647807 0 -8065.10354255 0 2151
0.04550000 0.04548030 42544.19015992 0 3140.52099459 0 16242.10399972 0 -599.71032915 0 -7639.37265327 0 2274
0.04650000 0.04648670 41674.23759892 0 1188.60299696 0 16081.55528985 0 1857.73680272 0 -8007.84855091 0 2311
0.04750000 0.04749250 39875.20626238 0 204.06405364 0 15495.38641395 0 3552.02394647 0 -7528.20651210 0 2568
0.04850000 0.04851840 39477.59907815 0 1720.62820449 0 12431.78485988 0 -338.84303473 0 -10239.90743878 0 2493
0.04950000 0.04949480 37936.77435638 0 1285.02080148 0 13832.43394944 0 1479.27366810 0 -7971.96314618 0 2644
0.05050000 0.05050630 36790.89946090 0 1628.24072621 0 12232.26156665 0 -347.45951790 0 -8511.61718551 0 2829
0.05150000 0.05149060 36688.36973308 0 -150.91246558 0 11210.17526264 0 1175.28299020 0 -4259.50121308 0 2784
0.05250000 0.05249300 36455.29729565 0 -900.46235204 0 10376.04167243 0 1292.40604213 0 -3849.26050623 0 3055
0.05350000 0.05348950 37232.90666766 0 672.05800675 0 12920.84944712 0 1535.52107817 0 -3326.56926851 0 3009
0.05450000 0.05448610 36954.65914497 0 1404.88978996 0 13367.50703030 0 450.57165001 0 -4207.76023921 0 3336
0.05550000 0.05550870 35239.44530731 0 1032.23408971 0 12283.30498406 0 190.81048083 0 -1857.75894737 0 3349
0.05650000 0.05647670 34045.62724537 0 1656.69660099 0 12515.60235876 0 -108.55096878 0 441.00294690 0 3324
0.05750000 0.05747970 33942.10100831 0 -782.74139457 0 11540.68415848 0 2247.54907029 0 -3096.56386506 0 3639
0.05850000 0.05849280 33521.79555820 0 -1312.04834636 0 10075.02944991 0 1110.90849370 0 -3044.75645723 0 3846
0.05950000 0.05951020 35013.23771127 0 208.10655943 0 7730.83005628 0 1387.41766140 0 -8110.83224405 0 3787
0.06050000 0.06049470 32843.39421656 0 1660.88193977 0 7346.03355185 0 -184.11283155 0 -7021.33762655 0 3930
0.06150000 0.06148310 32961.20375263 0 1609.77208841 0 8054.03121773 0 -1074.49604631 0 -3798.30566741 0 4083
0.06250000 0.06249100 32744.85052567 0 -320.17398785 0 8363.75735988 0 -80.65480002 0 -1451.91395347 0 4303
0.06350000 0.06350600 32176.95098572 0 15.09191090 0 10793.86692178 0 775.74811421 0 605.76799806 0 4470
0.06450000 0.06451750 33552.13372820 0 -309.18249100 0 12344.75638681 0 1864.61271643 0 2488.38320742 0 4479
0.06550000 0.06550280 33953.39477963 0 166.92083280 0 13504.47168831 0 791.97571347 0 2771.84579510 0 4636
0.06650000 0.06648880 33732.61262274 0 -12.02919513 0 14192.83812229 0 1305.07278172 0 5698.79271626 0 4653
0.06750000 0.06749660 33780.33434271 0 479.60771461 0 13748.28428082 0 -139.47696851 0 6135.28590526 0 5220
0.06850000 0.06852730 33307.76751945 0 1106.39541411 0 14040.70437928 0 688.70303265 0 6814.89413030 0 5029
0.06950000 0.06949320 32068.88509549 0 765.34234335 0 13731.23290060 0 1762.48159231 0 6501.32589144 0 5040
0.07050000 0.07048030 31394.35906754 0 786.78611482 0 12797.83591838 0 2294.10819615 0 5345.36410805 0 5475
0.07150000 0.07148790 30576.77860293 0 1485.08663863 0 11729.02440364 0 623.73838124 0 3017.37459795 0 5509
0.07250000 0.07249820 29290.39590550 0 1390.06394703 0 12050.89688612 0 57.65724920 0 1564.65236477 0 5916
0.07350000 0.07351270 27302.35998431 0 1550.98911595 0 11891.12323899 0 -1696.98879101 0 3497.82491648 0 5721
0.07450000 0.07449140 26400.07623484 0 1304.19806806 0 11612.32210005 0 1055.49482968 0 2240.59565030 0 6028
0.07550000 0.07549160 26272.52305293 0 380.17602328 0 10990.61106148 0 883.24377971 0 1407.46964165 0 6183
0.07650000 0.07648840 25809.69987551 0 -335.47261905 0 8985.02550546 0 2508.09194559 0 1036.25555808 0 6330
0.07750000 0.07749960 24995.10893860 0 275.01108215 0 9455.41108073 0 912.71830838 0 1643.26587098 0 6583
0.07850000 0.07848650 25258.29809954 0 708.93881349 0 7338.01718869 0 1150.68028445 0 1373.25615796 0 6549
0.07950000 0.07947320 24439.16750946 0 74.49338342 0 8349.67336272 0 912.51789930 0 1854.99086617 0 6828
0.08050000 0.08048110 24103.23317446 0 411.16192428 0 8281.47891416 0 893.96400460 0 1417.30186609 0 7147
0.08150000 0.08149960 23953.53534291 0 264.05833844 0 7649.49275816 0 580.53195533 0 1778.31501680 0 7386
0.08250000 0.08250610 23847.79464090 0 455.59516378 0 9194.86820542 0 -395.87436540 0 2118.27967803 0 7227
0.08350000 0.08350160 23838.60461130 0 268.67328342 0 7345.47993561 0 -104.21847880 0 2972.43203151 0 7798
0.08450000 0.08449610 23032.98225749 0 507.70595330 0 8486.98126279 0 -156.05998939 0 3017.30816400 0 7371
0.08550000 0.08548940 23146.58431013 0 851.95338978 0 9025.18482758 0 240.96811226 0 2036.86487364 0 8256
0.08650000 0.08650700 22346.38739549 0 242.23700068 0 9430.32119269 0 101.88952600 0 954.20077331 0 8037
0.08750000 0.08749060 22260.90904789 0 508.34704091 0 8861.41407118 0 -289.11058057 0 1246.89878713 0 8155
0.08850000 0.08849210 21658.46385451 0 784.33359488 0 9859.61737056 0 -912.87110646 0 -333.09206922 0 8718
0.08950000 0.08949900 21304.70307655 0 439.71080659 0 9231.08577990 0 25.33646871 0 1165.42862111 0 8571
0.09050000 0.09049190 20962.23606991 0 231.33076074 0 8971.16295479 0 7.84733306 0 18.32569408 0 8932
0.09150000 0.09150830 20220.72247680 0 552.58097856 0 8120.86377034 0 1344.55669203 0 -337.61732837 0 9285
0.09250000 0.09250820 19919.77668823 0 407.24232129 0 8489.62754842 0 1105.89715949 0 -1176.95491125 0 9204
0.09350000 0.09350330 19357.19186420 0 446.10507418 0 7241.51080557 0 1351.99729431 0 -1796.04180883 0 9349
0.09450000 0.09448040 19023.58271741 0 303.11264254 0 6750.87394820 0 624.25656604 0 -729.54108828 0 9564
0.09550000 0.09549270 18454.02232874 0 -60.62706816 0 6319.03113563 0 565.19567823 0 -694.50825255 0 10155
0.09650000 0.09649430 18897.02604474 0 56.87465728 0 6302.86554139 0 418.92251675 0 -593.65487471 0 9913
0.09750000 0.09749140 18681.22643402 0 182.58927965 0 5707.71701006 0 -126.97852825 0 -222.35996317 0 10476
0.09850000 0.09850240 18711.12171103 0 514.78559779 0 5933.73637659 0 -301.41525514 0 -508.85526062 0 10575
0.09950000 0.09950330 17770.30627119 0 622.19600639 0 6558.55873843 0 -421.78581994 0 192.09376328 0 10882
0.10050000 0.10051200 17841.05842678 0 571.89775644 0 6509.13188044 0 15.93130384 0 222.59358922 0 10875
0.10150000 0.10150300 17476.11460076 0 -21.59490871 0 6430.40765098 0 275.78171596 0 636.77161479 0 11118
0.10250000 0.10250800 17605.32863139 0 -80.11214538 0 5929.60639943 0 824.13860260 0 4.37466446 0 11575
0.10350000 0.10349800 17420.53153017 0 178.30207548 0 5354.93059669 0 1162.91520338 0 125.33096632 0 11364
0.10450000 0.10450100 17390.41480666 0 157.44292276 0 5476.56008482 0 758.45092838 0 100.86079630 0 12093
0.10550000 0.10551000 16833.36614504 0 489.86400909 0 4750.21557672 0 523.51058975 0 -49.46162509 0 12067
0.10650000 0.10649700 16589.77499903 0 527.94284138 0 5044.39617483 0 458.33667140 0 34.70022309 0 12054
0.10750000 0.10749900 16031.84055141 0 563.27352264 0 4731.07152711 0 533.24759220 0 698.62937185 0 12807
0.10850000 0.10850100 15359.19681868 0 425.47622581 0 4796.39824354 0 432.67545140 0 701.19040058 0 12736
0.10950000 0.10950300 15478.22431048 0 110.02259147 0 4524.91591131 0 88.77790040 0 2084.90769103 0 12933
0.11050000 0.11050200 15221.89999093 0 190.14503411 0 4484.46870875 0 819.23356270 0 2191.35702183 0 13428
0.11150000 0.11150900 15220.12841896 0 137.15178030 0 4508.52887058 0 103.11157849 0 1929.86192659 0 13453
0.11250000 0.11250000 15010.86147989 0 80.85675922 0 4724.80459126 0 133.78800802 0 2120.39449207 0 13668
0.11350000 0.11349100 14934.24099214 0 467.34400764 0 4817.59067324 0 -87.25966322 0 1298.58439938 0 13791
0.11450000 0.11448600 14665.95856179 0 251.08600268 0 5029.13851123 0 -262.54253717 0 1924.37005348 0 14205
0.11550000 0.11549300 14513.60337228 0 129.82411573 0 4991.28223267 0 -366.51720338 0 1736.81594338 0 14776
0.11650000 0.11649800 14595.76002244 0 70.01905696 0 5551.54186850 0 320.36443184 0 1153.17155754 0 14553
0.11750000 0.11747300 14619.01190456 0 109.67857434 0 5659.28666131 0 -34.40315261 0 1213.49358315 0 14568
0.11850000 0.11849100 14235.68801933 0 443.62155172 0 5604.00254349 0 325.90502318 0 1761.46293842 0 16015
0.11950000 0.11950300 13985.34275518 0 195.18294190 0 5233.84365247 0 385.45309328 0 2153.85505767 0 15270
0.12050000 0.12050700 13841.40253254 0 146.55107683 0 5625.43856434 0 540.48003477 0 1964.86154534 0 15999
0.12150000 0.12150000 13942.16068839 0 122.83637154 0 5500.81954850 0 344.69032946 0 2243.06477874 0 15670
0.12250000 0.12250700 13512.22231568 0 50.11090622 0 5127.99222721 0 101.72775933 0 1529.45344417 0 16887
0.12350000 0.12352200 13711.41343917 0 119.12492826 0 5177.91733982 0 259.32381235 0 2046.13240951 0 16407
0.12450000 0.12449800 13557.39740094 0 -118.58570604 0 4662.85493390 0 291.63396340 0 2007.61179147 0 16306
0.12550000 0.12549900 13612.20540880 0 -89.29652809 0 4536.28718890 0 686.61589942 0 1545.77405096 0 17523
0.12650000 0.12650100 13661.69870073 0 76.00829891 0 4261.49423155 0 596.77062691 0 675.72405350 0 17154
0.12750000 0.12750600 13095.12783976 0 725.78203400 0 3978.03164387 0 -92.32381242 0 989.43180365 0 18007
0.12850000 0.12850300 12734.61294367 0 441.32515155 0 3564.60210747 0 -29.22805872 0 580.24518212 0 17496
0.12950000 0.12949900 12387.27411411 0 -115.73015347 0 3488.77882711 0 390.27066181 0 1096.64069594 0 18405
0.13050000 0.13049000 12724.20495834 0 -236.68201532 0 3200.21189768 0 541.28499278 0 73.14145256 0 18100
0.13150000 0.13148800 12708.15008735 0 -134.88970434 0 3094.65942519 0 176.57479281 0 73.86746490 0 19059
0.13250000 0.13249300 12885.08583796 0 127.85656361 0 3052.03097464 0 -48.58945806 0 375.70834021 0 18957
0.13350000 0.13349100 12736.82740863 0 163.35443698 0 3391.75204472 0 -275.46615470 0 818.43746255 0 19468
0.13450000 0.13450700 12570.74253635 0 425.32342772 0 3399.04870678 0 249.30446562 0 1003.31982067 0 19953
0.13550000 0.13551000 12407.86863827 0 224.34523101 0 3449.40564005 0 199.49893412 0 1086.90369350 0 19956
0.13650000 0.13649900 12061.63704119 0 165.90107169 0 3185.76251380 0 581.56943217 0 1132.14521271 0 19723
0.13750000 0.13749600 12132.16775029 0 155.53848289 0 2982.18674968 0 388.79472091 0 1311.98191241 0 20946
0.13850000 0.13851100 11806.41995412 0 285.82210010 0 2744.05425981 0 267.95136784 0 1000.14538515 0 20955
0.13950000 0.13949800 11550.42780432 0 191.88560357 0 2792.30745136 0 -316.55776657 0 518.33317067 0 20506
0.14050000 0.14048300 11262.21518929 0 312.28827812 0 2786.30625131 0 -454.00074900 0 433.62102794 0 21447
0.14150000 0.14148400 11181.05504837 0 256.75724745 0 2909.91768559 0 -370.36926518 0 219.54316374 0 21771
0.14250000 0.14249400 10903.61580538 0 -19.23672497 0 2873.45651996 0 -280.36455120 0 -272.75011342 0 22470
0.14350000 0.14350900 11102.22009566 0 30.04785365 0 3023.77440170 0 -206.35602488 0 -738.94702821 0 22519
0.14450000 0.14449900 10989.01664671 0 143.70548936 0 2973.05208170 0 105.79960679 0 -1121.49363623 0 22218
0.14550000 0.14550500 11002.49166602 0 145.14932051 0 3025.80063714 0 -156.38883744 0 -983.07407474 0 23559
0.14650000 0.14650700 10863.45648327 0 180.26852037 0 2897.37274157 0 156.88709205 0 -946.64944779 0 23044
0.14750000 0.14750500 10762.57653184 0 209.80837576 0 3012.97888500 0 28.17563424 0 -1077.43796301 0 23649
0.14850000 0.14849900 10422.66723224 0 111.22703897 0 2902.47708331 0 288.25579710 0 -322.13378934 0 23640
0.14950000 0.14949500 10631.94524363 0 42.90846965 0 3042.54199227 0 188.84071425 0 -898.28774744 0 24457
0.15050000 0.15050000 10454.56660004 0 97.17448720 0 2978.93148618 0 88.42834710 0 -560.86750646 0 24591
0.15150000 0.15149900 10359.98680144 0 213.59511084 0 3190.32431162 0 -101.73539924 0 -459.69856736 0 25020
0.15250000 0.15250500 10054.96639733 0 324.23199490 0 3370.84749546 0 119.71729764 0 378.43213212 0 25297
0.15350000 0.15350100 9891.82676346 0 347.34436572 0 3329.00517997 0 241.00022200 0 634.84503027 0 25452
0.15450000 0.15450400 9660.53697032 0 197.03644908 0 3210.54237674 0 487.90199313 0 794.12817341 0 26061
0.15550000 0.15549900 9436.46633297 0 45.93464674 0 3085.38081699 0 731.15543324 0 1102.04509769 0 26128
0.15650000 0.15649500 9441.19421566 0 18.95471286 0 2606.50276858 0 450.19740543 0 835.88633923 0 26331
0.15750000 0.15749700 9434.66154402 0 0.39683766 0 2647.88004643 0 176.13189982 0 738.03466865 0 27345
0.15850000 0.15849900 9376.31039223 0 172.11707484 0 2634.78148617 0 -397.36580756 0 798.15407071 0 26980
0.15950000 0.15949700 9230.75361016 0 165.86231855 0 2750.87481189 0 -232.25308540 0 970.30436253 0 27777
0.16050000 0.16050000 9155.11855932 0 15.80530079 0 2704.30461371 0 -255.76848885 0 675.38634759 0 28224
0.16150000 0.16150500 9133.93720195 0 93.54276466 0 2934.42074041 0 -21.38254152 0 521.21086789 0 28075
0.16250000 0.16249700 9081.34365906 0 196.69431424 0 2790.29228825 0 98.87663569 0 -62.70678293 0 28590
0.16350000 0.16349900 9037.53046975 0 139.00860917 0 2609.49229628 0 -10.64784510 0 187.00381556 0 29163
0.16450000 0.16449100 8839.56837432 0 54.74478488 0 2614.27554061 0 199.18448009 0 32.89465908 0 28996
0.16550000 0.16550500 8755.54050127 0 103.89572053 0 2160.70882673 0 468.55421275 0 -37.56385846 0 30777
0.16650000 0.16650700 8830.11260892 0 -84.75997517 0 2064.78927683 0 460.07391917 0 -166.51337125 0 29211
0.16750000 0.16749900 8660.53995432 0 57.94014710 0 1735.77514484 0 415.02838011 0 27.18787215 0 30922
0.16850000 0.16850800 8658.19262146 0 177.35428448 0 1699.36934084 0 194.90945548 0 105.78787012 0 30867
0.16950000 0.16949900 8503.15792935 0 203.88578921 0 1870.35925302 0 -125.13055724 0 282.28227786 0 30852
0.17050000 0.17049200 8421.58811241 0 163.99220289 0 1878.14309736 0 -195.72770028 0 491.49939147 0 31257
0.17150000 0.17149500 8231.80846502 0 129.47755196 0 2177.00728887 0 -226.78335694 0 617.58549034 0 32608
0.17250000 0.17250900 8351.57780258 0 94.04622327 0 2185.73228082 0 -255.79727689 0 579.00065281 0 32361
0.17350000 0.17350400 8198.77972009 0 53.44201514 0 2267.22459149 0 -60.65685271 0 500.25981486 0 32508
0.17450000 0.17449800 8221.84337268 0 107.04158946 0 2287.04405292 0 5.98937481 0 135.33038286 0 32791
0.17550000 0.17549800 7989.94460168 0 109.12894414 0 2158.89296546 0 95.88522570 0 196.16394988 0 33633
0.17650000 0.17650100 8015.58810596 0 112.96982289 0 1993.89318102 0 111.70757786 0 -253.61713613 0 33984
0.17750000 0.17750300 7933.37609418 0 41.23012665 0 1918.90032502 0 172.18129432 0 -108.07906630 0 34069
