### header ###
fiducial parameters:
Omega_m = 0.31
Omega_nu = 0
Omega_de = 0.69
Omega_k = 0
H_0 = 100
w_de = -1
zeff = 0
beta = 0
fgrowth = 0
b_1 = 2
gamma = 0.55
Lx = 3500 Ly = 3500 Lz = 3500
nx = 700 ny = 700 nz = 700
xoffset = -685.467585 yoffset = -31.7331281 zoffset = 572.489161
bins = 400 dk = 0.001
kx_ny = 0.628318531 ky_ny = 0.628318531 kz_ny = 0.628318531
############################
A(data) = 8.00613411 (not used)
A(ran) = 8.00012448 (used)
Ngal = 475481
weighted Ngal = 0
Nran = 23820508
weighted Nran = 0
SN(data) = 3495.72282
SN(ran) = 69.6839856
SN(data+ran) = 3565.40681
############################
13 columns: k_central k_mean P_0(k) sigma^{lin}_{P_0(k)} P^img_1(k) sigma^{lin}_{P_1(k)} P_2(k) sigma^{lin}_{P_2(k)} P^img_3(k) sigma^{lin}_{P_3(k)} P_4(k) sigma^{lin}_{P_4(k)} N_modes
### header ###
0.00050000 0 0 0 0 0 0 0 0 0 0 0 0
0.00150000 0.00179520 62000.92222424 0 -45401.07140963 0 60010.56111484 0 31689.43652396 0 -167326.07989187 0 3
0.00250000 0.00253879 109831.59386882 0 -37430.54766567 0 34250.46525451 0 5133.19621987 0 109133.92668199 0 6
0.00350000 0.00331552 98410.93371138 0 3946.63053068 0 21814.03001821 0 -27623.01451106 0 136669.02693400 0 7
0.00450000 0.00420575 84343.32358279 0 33574.72127083 0 13033.78716027 0 -43081.97297636 0 28208.40832422 0 24
0.00550000 0.00557378 70012.41357002 0 -3657.97502266 0 21585.82940370 0 -642.61226613 0 -13856.57161754 0 45
0.00650000 0.00659388 78957.63406775 0 -2223.02387081 0 46212.22992584 0 5211.61042424 0 39922.26364286 0 40
0.00750000 0.00754703 74328.29506108 0 1148.29973462 0 18775.23047173 0 10671.92740855 0 -10911.48822833 0 57
0.00850000 0.00846663 84012.70396371 0 1290.06978159 0 24442.71065340 0 32352.22588760 0 41692.50693487 0 75
0.00950000 0.00948925 81896.00762812 0 799.45839058 0 23248.33897522 0 26772.32779525 0 18023.64106304 0 112
0.01050000 0.01054430 84031.63763915 0 1027.21389763 0 308.39192701 0 27295.71658942 0 25894.62460687 0 105
0.01150000 0.01145670 73886.62002406 0 2051.84572912 0 -340.61349947 0 28988.89650069 0 24826.92032461 0 144
0.01250000 0.01249090 77768.68782873 0 -1886.58020887 0 -10715.15376465 0 -287.29029037 0 10225.93416486 0 169
0.01350000 0.01339930 87247.04076648 0 -15235.74039695 0 -2186.72879006 0 -8629.16098579 0 17459.06322054 0 180
0.01450000 0.01448870 88952.17878855 0 285.52536180 0 -2537.56647426 0 -21072.07353211 0 -20140.55884512 0 267
0.01550000 0.01550050 83857.69141624 0 1021.57808430 0 13412.01777607 0 -22130.91995452 0 2414.81868132 0 238
0.01650000 0.01653350 89974.04364606 0 5214.07955267 0 17325.08809023 0 -21065.43013722 0 -12081.12433287 0 315
0.01750000 0.01747870 91433.81895015 0 5799.48443816 0 29397.57600975 0 -20860.92429782 0 -3959.16440238 0 297
0.01850000 0.01844180 85148.06015061 0 3584.86446188 0 34848.92441096 0 2063.44952553 0 -32318.23385041 0 388
0.01950000 0.01947590 81744.09533161 0 6656.73704259 0 39036.36693412 0 5865.11010736 0 -8074.65895887 0 399
0.02050000 0.02045430 77674.57306777 0 3777.13538236 0 32729.01710118 0 3581.03343750 0 -9980.01783064 0 462
0.02150000 0.02154770 75216.62768128 0 3871.31657727 0 36096.44324828 0 12870.35964595 0 -2975.35512527 0 571
0.02250000 0.02255340 77103.35183037 0 450.51961008 0 34868.96531888 0 12155.86252540 0 4221.67815150 0 510
0.02350000 0.02348930 72145.60766958 0 1573.91990065 0 32631.13774978 0 11707.21192375 0 -1446.30028479 0 555
0.02450000 0.02439640 72681.72963730 0 4378.14117352 0 38896.08057867 0 5540.09308463 0 20153.62418840 0 592
0.02550000 0.02547300 65049.68686305 0 3520.26851889 0 35416.71322766 0 6634.47059738 0 8498.26396178 0 837
0.02650000 0.02652900 66813.28676016 0 1542.85095720 0 43901.76790593 0 5173.76521801 0 17349.22575834 0 723
0.02750000 0.02749970 67603.07568948 0 -1814.47722966 0 38807.28053363 0 1311.55009174 0 13097.23158148 0 826
0.02850000 0.02848090 65096.85496678 0 3180.25956836 0 43648.87600707 0 3047.44703216 0 14237.23814481 0 831
0.02950000 0.02946900 63917.32020385 0 4331.80349415 0 36498.36863919 0 -4111.74103838 0 10462.02934697 0 996
0.03050000 0.03053250 62273.41213802 0 3385.38545795 0 43263.44838014 0 6498.74603976 0 5887.40976955 0 1041
0.03150000 0.03150510 58099.14568139 0 335.17477352 0 33078.23822596 0 1546.72627089 0 8136.71933948 0 1036
0.03250000 0.03246190 60748.64228725 0 2871.30848895 0 33853.63313301 0 8833.95470563 0 -596.86917060 0 1059
0.03350000 0.03345080 57182.68935615 0 -1199.92998525 0 24519.33114115 0 6804.79617007 0 -11142.30191150 0 1302
0.03450000 0.03451200 55875.93358106 0 1039.40120556 0 21002.31788575 0 6072.89335491 0 -7879.17706420 0 1339
0.03550000 0.03553350 51316.57166724 0 3800.36511983 0 14915.41803995 0 8951.73102473 0 -13201.42215802 0 1365
0.03650000 0.03647120 51118.59849948 0 2944.40797740 0 13650.51565267 0 834.20113139 0 -5754.24291895 0 1308
0.03750000 0.03744890 44280.66286123 0 3215.92352660 0 10078.63902780 0 2656.02927750 0 -1455.85570110 0 1579
0.03850000 0.03847530 44854.20928683 0 2455.80842780 0 12833.93169729 0 4054.70749324 0 3309.86113036 0 1662
0.03950000 0.03950240 43699.36580825 0 -1421.03323955 0 8638.48388329 0 7757.87974581 0 6148.80521386 0 1683
0.04050000 0.04050350 43994.33254142 0 -2469.11736223 0 9372.90011618 0 6070.99998736 0 9001.88865616 0 1822
0.04150000 0.04152450 45380.58760871 0 -2173.20948145 0 5461.03668543 0 3491.60226994 0 874.18440355 0 1887
0.04250000 0.04250150 46028.98295009 0 1230.55603569 0 8082.97427481 0 15.06500515 0 8334.07245705 0 1920
0.04350000 0.04349210 46377.42901213 0 2067.50199641 0 5983.96044196 0 -5296.70124047 0 1824.61947919 0 2005
0.04450000 0.04448520 42951.31954350 0 2354.66274058 0 8549.56204267 0 -4524.93805596 0 8978.37103824 0 2151
0.04550000 0.04548030 43214.95159743 0 1839.65569629 0 11161.56775668 0 -6675.00637855 0 1964.18613353 0 2274
0.04650000 0.04648670 43449.79560684 0 528.25286647 0 14705.37603814 0 983.41510235 0 4905.99211459 0 2311
0.04750000 0.04749250 41481.91131682 0 727.76730184 0 18271.43969248 0 -2217.64272095 0 2474.38778885 0 2568
0.04850000 0.04851840 42512.08041794 0 862.36580404 0 17591.59894862 0 4757.80011922 0 1204.35891517 0 2493
0.04950000 0.04949480 41297.11421559 0 -443.34806530 0 13913.92626010 0 3486.24326472 0 4440.23477110 0 2644
0.05050000 0.05050630 41363.32671801 0 876.14199057 0 15180.82166585 0 3798.92571760 0 2413.02496470 0 2829
0.05150000 0.05149060 41058.50561575 0 1398.55642017 0 13201.53288127 0 -1250.75195616 0 918.90663072 0 2784
0.05250000 0.05249300 38561.25347615 0 3192.38376404 0 12499.99038076 0 1181.80458952 0 5812.61621540 0 3055
0.05350000 0.05348950 35296.91067312 0 2946.14633240 0 13079.07296878 0 109.07070371 0 7200.03387680 0 3009
0.05450000 0.05448610 34551.07887334 0 892.74604887 0 13219.69149397 0 1701.77203533 0 5561.89449220 0 3336
0.05550000 0.05550870 33604.83799434 0 -340.31676116 0 13666.45980041 0 2663.79097719 0 4872.75299549 0 3349
0.05650000 0.05647670 34146.27467797 0 -228.21168684 0 12693.42389534 0 1682.11865877 0 3840.24763383 0 3324
0.05750000 0.05747970 34210.16199217 0 -126.33301172 0 12308.88205439 0 929.00791265 0 6016.69023413 0 3639
0.05850000 0.05849280 34351.33413361 0 -537.73077652 0 10969.83938012 0 856.93815041 0 3998.61509571 0 3846
0.05950000 0.05951020 34044.63073613 0 499.40835309 0 11112.07446475 0 266.27723233 0 511.50265348 0 3787
0.06050000 0.06049470 34556.94720549 0 1140.68197514 0 10842.85088678 0 -999.52644219 0 335.79039478 0 3930
0.06150000 0.06148310 31743.80163882 0 1729.63000457 0 8638.70532978 0 -1399.04360246 0 -908.37242089 0 4083
0.06250000 0.06249100 31766.49990470 0 649.77273859 0 10275.62675865 0 -1445.14876300 0 -1214.10256101 0 4303
0.06350000 0.06350600 31497.99602784 0 -160.08588669 0 11670.45180535 0 1053.62914295 0 -196.00783010 0 4470
0.06450000 0.06451750 32228.10512639 0 -617.09941528 0 11644.65328852 0 1641.49429901 0 466.74942380 0 4479
0.06550000 0.06550280 32047.51550859 0 -334.98543676 0 9621.37415744 0 2802.42755625 0 475.11456520 0 4636
0.06650000 0.06648880 33243.21586576 0 -57.39073834 0 10611.52787667 0 3072.10509953 0 2025.34965583 0 4653
0.06750000 0.06749660 32409.35908367 0 265.81219469 0 10843.58166022 0 310.45913005 0 1107.36534976 0 5220
0.06850000 0.06852730 31556.56862613 0 1706.66600290 0 11364.30202411 0 -69.80115361 0 2983.26076519 0 5029
0.06950000 0.06949320 31645.14722468 0 1908.11588065 0 11479.01130924 0 -617.53455765 0 4052.38230503 0 5040
0.07050000 0.07048030 29007.38728314 0 1549.28397792 0 11485.87615062 0 297.96622596 0 4237.30120182 0 5475
0.07150000 0.07148790 28572.79853401 0 1344.65634295 0 12580.48618219 0 310.21553891 0 5634.17462862 0 5509
0.07250000 0.07249820 28087.38781396 0 265.28625926 0 12696.52414629 0 128.41128708 0 3718.37455455 0 5916
0.07350000 0.07351270 28096.02422732 0 0.00132248 0 13317.23867563 0 94.89613492 0 5026.91297394 0 5721
0.07450000 0.07449140 27868.70939879 0 -228.90038544 0 12790.52818400 0 1146.67210287 0 4699.89186042 0 6028
0.07550000 0.07549160 27910.45206335 0 -178.02305290 0 12876.89231759 0 1746.53744457 0 4773.47853117 0 6183
0.07650000 0.07648840 27261.72455223 0 858.00662975 0 12070.71634754 0 1264.48163894 0 4911.15181796 0 6330
0.07750000 0.07749960 27402.01090768 0 859.01199685 0 11789.92219014 0 2456.28453777 0 5582.13470197 0 6583
0.07850000 0.07848650 26521.53963810 0 -345.68351700 0 9518.88871892 0 2105.28076869 0 5605.46409036 0 6549
0.07950000 0.07947320 26450.45531277 0 -176.73755599 0 9665.32021464 0 1638.84801338 0 5632.48056292 0 6828
0.08050000 0.08048110 26646.32473881 0 159.81129304 0 9309.32282707 0 582.84496399 0 4209.72004070 0 7147
0.08150000 0.08149960 26703.90082787 0 740.06754748 0 9149.74848179 0 -450.43988934 0 4459.26809746 0 7386
0.08250000 0.08250610 25345.54801912 0 617.88997927 0 8290.12639984 0 -674.64560906 0 4161.65507866 0 7227
0.08350000 0.08350160 25585.15312819 0 901.65705589 0 8814.20167816 0 -284.80676792 0 2159.72338983 0 7798
0.08450000 0.08449610 24285.70508747 0 671.68265494 0 8389.58909369 0 106.90694999 0 1507.57453033 0 7371
0.08550000 0.08548940 23611.51122927 0 676.40500147 0 8584.49522747 0 306.76872419 0 -17.91358215 0 8256
0.08650000 0.08650700 23060.88451604 0 638.13904690 0 7054.67639658 0 589.25473283 0 -442.44124189 0 8037
0.08750000 0.08749060 22196.46811744 0 486.94755873 0 7019.43318668 0 1623.47962653 0 -217.84024018 0 8155
0.08850000 0.08849210 21434.58144667 0 407.85683532 0 6517.25896685 0 678.05145617 0 172.05064089 0 8718
0.08950000 0.08949900 21707.51425345 0 479.71954509 0 6346.94446649 0 177.92008028 0 -449.11785376 0 8571
0.09050000 0.09049190 20527.20442778 0 777.31152648 0 6417.99557485 0 171.62878532 0 972.37710174 0 8932
0.09150000 0.09150830 20428.77146015 0 700.99331320 0 6988.64105136 0 -1137.67030279 0 649.50257386 0 9285
0.09250000 0.09250820 20028.83908770 0 365.71556706 0 7845.09644841 0 -713.31570349 0 1767.01017316 0 9204
0.09350000 0.09350330 19797.53822224 0 168.63482869 0 7811.13762819 0 153.58864649 0 1487.16823569 0 9349
0.09450000 0.09448040 20058.40219496 0 91.18070560 0 7844.09993917 0 282.19148479 0 745.51845299 0 9564
0.09550000 0.09549270 19506.88969575 0 535.58274550 0 7533.48801103 0 374.10063865 0 403.20535167 0 10155
0.09650000 0.09649430 19441.45225607 0 233.02482644 0 7353.36343088 0 1169.52538129 0 814.28534074 0 9913
0.09750000 0.09749140 18966.11735160 0 -86.04801871 0 6647.54701299 0 965.94740271 0 247.04238966 0 10476
0.09850000 0.09850240 18937.77220007 0 319.51518452 0 6029.15767187 0 931.93432810 0 -161.31602198 0 10575
0.09950000 0.09950330 18206.33442255 0 696.14806386 0 6279.56936997 0 595.35336934 0 105.48947097 0 10882
0.10050000 0.10051200 17626.03387880 0 733.71978366 0 5637.88385743 0 446.49482001 0 1440.57589285 0 10875
0.10150000 0.10150300 17080.16826524 0 449.80212343 0 5761.91604005 0 302.21246253 0 1382.62334475 0 11118
0.10250000 0.10250800 16836.24494949 0 455.04265477 0 5901.50483904 0 152.35961843 0 1702.71318294 0 11575
0.10350000 0.10349800 16637.16454925 0 268.05987663 0 6275.20687399 0 42.58305402 0 1939.66093406 0 11364
0.10450000 0.10450100 16055.75677302 0 687.92354098 0 5962.32511927 0 -429.18324016 0 2567.48389592 0 12093
0.10550000 0.10551000 16003.27395338 0 218.33517310 0 6728.10924838 0 282.89125572 0 2423.48831166 0 12067
0.10650000 0.10649700 15775.51623186 0 152.24889519 0 6526.89188945 0 852.95875687 0 2230.34267752 0 12054
0.10750000 0.10749900 15732.44488832 0 -62.31814433 0 5789.89580487 0 715.27439775 0 2039.38936370 0 12807
0.10850000 0.10850100 15801.75764168 0 77.63626282 0 5901.20588627 0 -26.00623364 0 1205.61008788 0 12736
0.10950000 0.10950300 15753.70375197 0 72.57532460 0 5461.62351864 0 65.15808492 0 940.74346973 0 12933
0.11050000 0.11050200 15625.70767707 0 -218.72491893 0 5397.89121699 0 -270.94200278 0 -92.82284210 0 13428
0.11150000 0.11150900 15393.96391861 0 259.20755293 0 4839.53602103 0 -236.25794528 0 -172.48689049 0 13453
0.11250000 0.11250000 15529.59989764 0 73.30177983 0 4834.39846232 0 218.69170196 0 -1355.08647293 0 13668
0.11350000 0.11349100 15258.66010933 0 158.68191591 0 4684.06950825 0 257.63860451 0 -791.88049147 0 13791
0.11450000 0.11448600 15228.65410907 0 317.74250532 0 4733.33028137 0 299.14099963 0 -1504.27497754 0 14205
0.11550000 0.11549300 14763.28429694 0 272.03262677 0 5019.12912959 0 87.98722568 0 -240.74223683 0 14776
0.11650000 0.11649800 14948.85646090 0 425.32896389 0 5157.92072119 0 -118.38861866 0 51.86509464 0 14553
0.11750000 0.11747300 14367.67013117 0 259.48325382 0 5095.42851992 0 148.10452401 0 777.57726227 0 14568
0.11850000 0.11849100 14208.78227002 0 228.96571216 0 5696.55610665 0 398.13754860 0 930.93892610 0 16015
0.11950000 0.11950300 14208.22865378 0 111.05431070 0 5200.32772525 0 185.41715141 0 897.20930301 0 15270
0.12050000 0.12050700 14073.36773749 0 159.48908839 0 5477.61195568 0 476.40891997 0 1148.63190436 0 15999
0.12150000 0.12150000 13956.00109441 0 97.65092934 0 5160.20162011 0 642.43953786 0 939.95954913 0 15670
0.12250000 0.12250700 13706.65233950 0 145.66861255 0 4835.35068225 0 513.61414583 0 1115.79138895 0 16887
0.12350000 0.12352200 13829.88731473 0 343.61963565 0 4573.60092354 0 906.67392626 0 1402.61996338 0 16407
0.12450000 0.12449800 13356.21325899 0 273.21957999 0 4012.35585081 0 556.65670133 0 1470.07256617 0 16306
0.12550000 0.12549900 13009.87093866 0 337.52764254 0 4011.59186039 0 537.70752463 0 1957.78632978 0 17523
0.12650000 0.12650100 12773.14463404 0 260.38343383 0 3855.59387602 0 -6.42057543 0 1753.67909408 0 17154
0.12750000 0.12750600 12793.18554196 0 82.93902063 0 3916.60238577 0 -69.61380988 0 1840.75185645 0 18007
0.12850000 0.12850300 12506.08015941 0 81.04266355 0 4051.25292789 0 -63.06541553 0 1840.82936272 0 17496
0.12950000 0.12949900 12711.36106155 0 107.70825414 0 4156.53966460 0 -120.66619587 0 1684.47706396 0 18405
0.13050000 0.13049000 12561.10961376 0 44.24456708 0 4312.95839731 0 -210.56793724 0 1548.77465098 0 18100
0.13150000 0.13148800 12492.79336963 0 175.92595458 0 4379.07124880 0 74.99562408 0 864.55369542 0 19059
0.13250000 0.13249300 12372.99081509 0 143.95018773 0 3654.59796359 0 217.56011036 0 616.34096103 0 18957
0.13350000 0.13349100 12305.56035695 0 -32.68893529 0 3822.36582924 0 199.58751272 0 633.91606221 0 19468
0.13450000 0.13450700 12285.18727928 0 -169.30359710 0 3299.58601293 0 620.79425007 0 -198.44041986 0 19953
0.13550000 0.13551000 12377.08757528 0 -73.26524116 0 3126.69166089 0 257.50241491 0 -701.50596184 0 19956
0.13650000 0.13649900 12276.10797293 0 230.83693505 0 2711.59020344 0 -63.32827252 0 -707.23588993 0 19723
0.13750000 0.13749600 12048.79314440 0 220.50645600 0 2877.30968900 0 82.39116199 0 -408.40602263 0 20946
0.13850000 0.13851100 12084.77820006 0 161.57179268 0 2657.57940297 0 -146.06278731 0 -731.72897966 0 20955
0.13950000 0.13949800 11739.32166572 0 386.38538303 0 3002.30516388 0 58.23721757 0 -512.50469888 0 20506
0.14050000 0.14048300 11482.22228343 0 414.44486859 0 2991.05568186 0 -42.61239568 0 -168.91385127 0 21447
0.14150000 0.14148400 11182.49445059 0 344.32051382 0 2907.02780881 0 46.17015509 0 376.31953254 0 21771
0.14250000 0.14249400 10939.49013780 0 247.16197076 0 3360.81596918 0 298.18656523 0 159.11152211 0 22470
0.14350000 0.14350900 10751.51527935 0 177.58791053 0 3460.27866302 0 184.66976949 0 413.44282319 0 22519
0.14450000 0.14449900 10816.96379135 0 133.68835709 0 3446.32753375 0 57.02103341 0 238.05941253 0 22218
0.14550000 0.14550500 10595.83839240 0 40.99085371 0 3389.28291629 0 -258.88091935 0 819.38193186 0 23559
0.14650000 0.14650700 10718.70798091 0 39.99733401 0 3502.04347224 0 -14.18929498 0 558.14703625 0 23044
0.14750000 0.14750500 10644.16909023 0 86.57616861 0 3604.18566869 0 -150.24369716 0 309.00754827 0 23649
0.14850000 0.14849900 10518.27675705 0 203.77395873 0 3104.67987915 0 345.21626489 0 733.06651650 0 23640
0.14950000 0.14949500 10254.42325662 0 300.40545912 0 3143.72089646 0 398.72216735 0 278.63505406 0 24457
0.15050000 0.15050000 9965.26949398 0 133.40712004 0 2778.07951397 0 671.83766749 0 709.00414020 0 24591
0.15150000 0.15149900 9790.52606369 0 74.58329070 0 2446.29730078 0 764.43330548 0 378.90824208 0 25020
0.15250000 0.15250500 9711.28143496 0 38.66090440 0 2201.48819904 0 255.33888264 0 614.67457614 0 25297
0.15350000 0.15350100 9716.86188667 0 110.07584935 0 2293.73173711 0 148.43890822 0 324.45011970 0 25452
0.15450000 0.15450400 9529.88353746 0 156.83394489 0 2351.18603059 0 -183.52821280 0 977.04408665 0 26061
0.15550000 0.15549900 9537.77810506 0 166.46686749 0 2554.51820356 0 -422.36047360 0 767.54130706 0 26128
0.15650000 0.15649500 9464.22465129 0 51.12446683 0 2781.66694721 0 -185.59209415 0 795.72923158 0 26331
0.15750000 0.15749700 9506.33270257 0 113.80135449 0 3058.44185071 0 -363.93181553 0 431.13750549 0 27345
0.15850000 0.15849900 9397.56925588 0 216.53702755 0 3217.70617090 0 -366.34447511 0 -51.36130386 0 26980
0.15950000 0.15949700 9381.91298858 0 166.04833361 0 3350.34154990 0 -307.03113829 0 105.68002568 0 27777
0.16050000 0.16050000 9186.56396181 0 77.67833766 0 3445.35316917 0 -2.18627482 0 79.03956927 0 28224
0.16150000 0.16150500 9166.33482436 0 175.82962535 0 3583.87902497 0 214.56283203 0 66.51931654 0 28075
0.16250000 0.16249700 8982.11348403 0 174.45222815 0 3418.25919034 0 71.09119018 0 -73.42612203 0 28590
0.16350000 0.16349900 8893.87812755 0 181.12994724 0 3350.46334547 0 409.26634227 0 109.96612262 0 29163
0.16450000 0.16449100 8783.44275981 0 130.19393138 0 3209.33549333 0 93.53744994 0 177.69420485 0 28996
0.16550000 0.16550500 8702.98017535 0 -19.16929451 0 3188.22056991 0 205.97292244 0 387.20584230 0 30777
0.16650000 0.16650700 8673.58315296 0 76.75335564 0 3138.66084402 0 3.57574087 0 475.99149333 0 29211
0.16750000 0.16749900 8703.16840488 0 55.45618175 0 2923.95739346 0 321.32440240 0 565.61199764 0 30922
0.16850000 0.16850800 8643.33356156 0 31.29293657 0 2947.64109625 0 351.99031322 0 764.49641773 0 30867
0.16950000 0.16949900 8518.55953317 0 8.49071264 0 2839.26518092 0 439.29448718 0 620.70124254 0 30852
0.17050000 0.17049200 8550.32603308 0 112.03199698 0 2713.82681305 0 249.41740333 0 426.93777268 0 31257
0.17150000 0.17149500 8335.85510134 0 170.11076958 0 2719.78372380 0 29.87689695 0 500.66395472 0 32608
0.17250000 0.17250900 8296.76979473 0 194.22629304 0 2504.70381420 0 -74.89375869 0 846.19245917 0 32361
0.17350000 0.17350400 8095.30884466 0 129.77982643 0 2479.17103317 0 235.11306690 0 891.56241735 0 32508
0.17450000 0.17449800 8097.24650150 0 89.38488524 0 2474.40993350 0 139.27323773 0 1012.98706747 0 32791
0.17550000 0.17549800 7995.82400616 0 93.56668088 0 2277.95367424 0 365.71778153 0 681.03876941 0 33633
0.17650000 0.17650100 7868.74693422 0 154.96050753 0 2106.41014582 0 109.04147277 0 481.81332172 0 33984
0.17750000 0.17750300 7718.52870340 0 135.98032833 0 2102.90021886 0 194.75887186 0 979.45896069 0 34069
0.17850000 0.17849800 7754.11515537 0 -109.76593498 0 2085.49452424 0 141.85198218 0 550.03545109 0 34536
