### header ###
fiducial parameters:
Omega_m = 0.31
Omega_nu = 0
Omega_de = 0.69
Omega_k = 0
H_0 = 100
w_de = -1
zeff = 0
beta = 0
fgrowth = 0
b_1 = 2
gamma = 0.55
Lx = 3500 Ly = 3500 Lz = 3500
nx = 700 ny = 700 nz = 700
xoffset = -685.467585 yoffset = -31.7331281 zoffset = 572.489161
bins = 400 dk = 0.001
kx_ny = 0.628318531 ky_ny = 0.628318531 kz_ny = 0.628318531
############################
A(data) = 7.94924784 (not used)
A(ran) = 7.94343975 (used)
Ngal = 472116
weighted Ngal = 0
Nran = 23820508
weighted Nran = 0
SN(data) = 3492.66112
SN(ran) = 69.1902411
SN(data+ran) = 3561.85136
############################
13 columns: k_central k_mean P_0(k) sigma^{lin}_{P_0(k)} P^img_1(k) sigma^{lin}_{P_1(k)} P_2(k) sigma^{lin}_{P_2(k)} P^img_3(k) sigma^{lin}_{P_3(k)} P_4(k) sigma^{lin}_{P_4(k)} N_modes
### header ###
0.00050000 0 0 0 0 0 0 0 0 0 0 0 0
0.00150000 0.00179520 24268.10009101 0 -31661.64498866 0 12487.25720722 0 -28119.16538619 0 -29249.20685718 0 3
0.00250000 0.00253879 50596.42766103 0 -42635.75828617 0 -9822.45864847 0 -26977.38725089 0 16297.46562381 0 6
0.00350000 0.00331552 62042.88633530 0 -23358.17643742 0 -13907.61503496 0 -10237.37187640 0 7726.03573963 0 7
0.00450000 0.00420575 81903.20463926 0 -14971.44400353 0 -19473.11910505 0 -44596.66701155 0 5877.73255765 0 24
0.00550000 0.00557378 92523.66788205 0 -965.75031533 0 10725.06349536 0 -56966.66829894 0 -123.18293530 0 45
0.00650000 0.00659388 83893.78719515 0 11837.42246361 0 -15938.50085319 0 -26400.40840459 0 20554.99596308 0 40
0.00750000 0.00754703 81759.15369337 0 11083.61858996 0 28244.83627288 0 -26274.07317841 0 294.70321184 0 57
0.00850000 0.00846663 76678.39600383 0 7483.38574123 0 25851.33181683 0 -6931.52999994 0 214.94704170 0 75
0.00950000 0.00948925 82101.73142326 0 -5551.58615780 0 32520.08233185 0 20871.55372964 0 -26161.79980475 0 112
0.01050000 0.01054430 75261.35987354 0 -10384.05803559 0 26274.18390165 0 9094.46436397 0 828.40809105 0 105
0.01150000 0.01145670 89556.61700040 0 -3094.88087168 0 13849.04243667 0 23534.33712528 0 -17249.90700471 0 144
0.01250000 0.01249090 88417.71766956 0 2689.77772354 0 15497.15798592 0 1836.37828815 0 -7431.64476735 0 169
0.01350000 0.01339930 83068.67754967 0 14195.05258725 0 12628.31862541 0 -10181.01374307 0 -20340.41430809 0 180
0.01450000 0.01448870 72687.70869270 0 6950.72941118 0 10125.85142082 0 -18321.37587741 0 -532.09607041 0 267
0.01550000 0.01550050 74288.54541498 0 860.68170343 0 29890.40518742 0 -20269.32998276 0 -13319.56386384 0 238
0.01650000 0.01653350 73750.76259854 0 -1829.28092794 0 30448.89325128 0 -3470.32126163 0 -20950.38868235 0 315
0.01750000 0.01747870 83331.64526411 0 -7626.78341996 0 38251.44982773 0 10460.52351079 0 -19441.56297932 0 297
0.01850000 0.01844180 79703.46586754 0 -1205.47721998 0 24975.62164692 0 2017.27793103 0 -17811.05242652 0 388
0.01950000 0.01947590 85485.21244134 0 -820.62092500 0 33622.44299080 0 8087.48071101 0 -13837.30577236 0 399
0.02050000 0.02045430 88859.83559956 0 2780.96939075 0 28289.78991164 0 12194.83710876 0 -8478.55522360 0 462
0.02150000 0.02154770 76261.85514416 0 7508.99602854 0 32471.14265615 0 6116.83941211 0 -7675.09197314 0 571
0.02250000 0.02255340 73933.12378830 0 5898.70354086 0 32062.13097735 0 6110.47282534 0 -9714.59206008 0 510
0.02350000 0.02348930 70890.11675839 0 2743.74423471 0 29591.89531031 0 2706.81803144 0 897.85703401 0 555
0.02450000 0.02439640 68078.74276369 0 2220.82047818 0 26537.59450909 0 -810.24062049 0 619.15554600 0 592
0.02550000 0.02547300 67980.86341229 0 3734.30762996 0 26987.24161998 0 -4267.06361093 0 -3564.03741890 0 837
0.02650000 0.02652900 63521.26314508 0 4162.20869490 0 24017.20121062 0 2783.10634944 0 35.96700777 0 723
0.02750000 0.02749970 63496.57186074 0 -329.87002269 0 25679.26788915 0 -3946.84090485 0 -11621.95502264 0 826
0.02850000 0.02848090 59608.63572392 0 1040.34788933 0 23329.05622314 0 6143.86695699 0 -5640.96196373 0 831
0.02950000 0.02946900 64169.54776322 0 -2015.15204467 0 18410.95098520 0 6570.02966694 0 -17106.29895182 0 996
0.03050000 0.03053250 62287.03109755 0 -4269.04555708 0 16878.20906055 0 4730.09716253 0 -7919.95643650 0 1041
0.03150000 0.03150510 67518.48312786 0 -2264.14648519 0 16831.26240332 0 -478.02658663 0 -9217.10143366 0 1036
0.03250000 0.03246190 66499.93996780 0 4785.35913570 0 17238.39178690 0 -28.96387305 0 -12427.02376021 0 1059
0.03350000 0.03345080 59165.29983818 0 6899.12130520 0 13762.34613334 0 -4368.85149299 0 -3488.62381456 0 1302
0.03450000 0.03451200 57190.66143002 0 4464.33922223 0 16258.82321020 0 -2587.01547690 0 -3049.07466391 0 1339
0.03550000 0.03553350 51236.96165179 0 1670.61451329 0 17955.76771190 0 -427.76376811 0 -4619.77251803 0 1365
0.03650000 0.03647120 55251.89735428 0 2577.75901335 0 23406.45177363 0 2087.32145784 0 -7099.36429954 0 1308
0.03750000 0.03744890 48027.86974960 0 2052.68722580 0 17940.59862690 0 2644.01580507 0 -4153.79372804 0 1579
0.03850000 0.03847530 49922.34452607 0 2207.99872604 0 22405.18144028 0 -2081.28704081 0 -3026.73071243 0 1662
0.03950000 0.03950240 48421.60162015 0 -1299.99058463 0 24191.70104976 0 2186.44090961 0 -2202.27433410 0 1683
0.04050000 0.04050350 47128.35408133 0 2814.81748772 0 26444.14408762 0 2103.04415908 0 5633.05632381 0 1822
0.04150000 0.04152450 46459.03204605 0 2362.04798124 0 26120.83220292 0 3975.47393684 0 1139.76297218 0 1887
0.04250000 0.04250150 43571.92334959 0 1983.93916101 0 26469.83188120 0 4915.27072279 0 8811.88756227 0 1920
0.04350000 0.04349210 44130.85430643 0 645.26519515 0 21105.95484606 0 5219.11746047 0 3429.12114098 0 2005
0.04450000 0.04448520 41484.56867477 0 458.98329517 0 20180.08704472 0 2537.50004031 0 4356.67193569 0 2151
0.04550000 0.04548030 42862.85166820 0 16.51304379 0 18246.52696164 0 3664.28624781 0 2045.25769585 0 2274
0.04650000 0.04648670 40257.09074538 0 -283.04405380 0 14422.36741578 0 8.16590599 0 -1402.37637223 0 2311
0.04750000 0.04749250 41172.99345438 0 987.11768777 0 11541.56994446 0 831.65449669 0 -3341.28438820 0 2568
0.04850000 0.04851840 39604.59864382 0 1063.63298843 0 11551.97792979 0 -1430.51114959 0 -6179.02158829 0 2493
0.04950000 0.04949480 38042.51505840 0 1712.94401107 0 12267.80372932 0 -1146.55030730 0 -4685.88536952 0 2644
0.05050000 0.05050630 37362.78503778 0 1627.63174834 0 14009.25897679 0 669.76492828 0 -5826.97702068 0 2829
0.05150000 0.05149060 35414.83093244 0 1209.29717204 0 11500.60234263 0 1059.60819835 0 -2358.42733102 0 2784
0.05250000 0.05249300 35446.05488843 0 1444.90517186 0 12412.07612170 0 1451.53749443 0 -5572.34676683 0 3055
0.05350000 0.05348950 34970.16636772 0 -82.47907625 0 12158.85205310 0 1201.19223028 0 -2768.90055670 0 3009
0.05450000 0.05448610 35186.07670169 0 -20.75695517 0 12862.83046507 0 2058.42269006 0 -202.28694551 0 3336
0.05550000 0.05550870 34913.03317166 0 139.24444969 0 11304.17930035 0 1817.75463780 0 -519.64856285 0 3349
0.05650000 0.05647670 35857.17030895 0 -890.97890583 0 11561.94302213 0 2335.61834189 0 125.80486182 0 3324
0.05750000 0.05747970 34580.75270385 0 272.42680154 0 9361.34060907 0 1404.61298184 0 -32.67133029 0 3639
0.05850000 0.05849280 35228.26225925 0 848.32056000 0 8259.60000032 0 1895.47128570 0 -1503.10131111 0 3846
0.05950000 0.05951020 33437.09227333 0 825.25026401 0 9062.70893639 0 -784.00917576 0 -2879.44664769 0 3787
0.06050000 0.06049470 33196.04776203 0 1865.68673194 0 9712.45510139 0 -1773.04459018 0 -4056.72265635 0 3930
0.06150000 0.06148310 31527.44841186 0 1512.06989421 0 11802.32319394 0 -1501.79477678 0 -1533.62771063 0 4083
0.06250000 0.06249100 30821.25553493 0 1122.71159196 0 11056.35852626 0 -103.83903023 0 -145.30765476 0 4303
0.06350000 0.06350600 30459.41195986 0 69.09341061 0 12298.58479231 0 200.76560808 0 -1320.13114348 0 4470
0.06450000 0.06451750 30832.32785975 0 129.84626038 0 14243.10647696 0 -242.21817773 0 1125.36894992 0 4479
0.06550000 0.06550280 31038.60527112 0 83.68352375 0 13924.55569193 0 1580.25327044 0 359.84059151 0 4636
0.06650000 0.06648880 31062.07859973 0 -89.69313877 0 15058.91536960 0 -558.42384437 0 2508.32446442 0 4653
0.06750000 0.06749660 31424.14362130 0 343.86433403 0 13920.56965499 0 -834.51558542 0 791.89820719 0 5220
0.06850000 0.06852730 30747.51385164 0 934.39681314 0 16230.25661216 0 620.62484350 0 1444.49549584 0 5029
0.06950000 0.06949320 29718.89487598 0 1233.94416709 0 13345.03021092 0 714.74181893 0 -378.98242666 0 5040
0.07050000 0.07048030 29028.42470029 0 1174.90653116 0 13857.12523378 0 1726.30830712 0 1936.50532148 0 5475
0.07150000 0.07148790 28036.78728954 0 -139.20458932 0 11067.38656178 0 3417.66128480 0 292.97260747 0 5509
0.07250000 0.07249820 27716.02203954 0 -444.47190626 0 10364.78111809 0 3031.41430582 0 443.37242441 0 5916
0.07350000 0.07351270 28090.37734166 0 247.88167188 0 9885.10586229 0 2357.54154504 0 913.55426890 0 5721
0.07450000 0.07449140 27672.95069599 0 128.79992569 0 8648.34932470 0 1597.45966321 0 1692.74809060 0 6028
0.07550000 0.07549160 27922.96379040 0 -129.91047986 0 8213.89344346 0 1274.74568405 0 3675.07069218 0 6183
0.07650000 0.07648840 28145.18534951 0 -342.05733062 0 9012.54023263 0 1577.93915455 0 3457.28913532 0 6330
0.07750000 0.07749960 27611.94218624 0 629.46830933 0 8557.21301912 0 -208.36011567 0 2217.19982796 0 6583
0.07850000 0.07848650 27368.12959374 0 1303.41193300 0 9305.91255103 0 -1044.63620073 0 2750.01117056 0 6549
0.07950000 0.07947320 25860.85401617 0 1242.89060554 0 9600.70212700 0 -970.24346474 0 3553.85088007 0 6828
0.08050000 0.08048110 25227.95992954 0 1209.15323182 0 9175.00445470 0 -1066.88603746 0 2804.96311863 0 7147
0.08150000 0.08149960 24789.27442023 0 107.01955553 0 9010.64686509 0 358.13988242 0 731.96039125 0 7386
0.08250000 0.08250610 24249.83075506 0 115.74676196 0 8649.45655718 0 126.36401423 0 69.05997219 0 7227
0.08350000 0.08350160 24391.88868249 0 132.28549354 0 8830.02403032 0 309.67742392 0 -490.91255825 0 7798
0.08450000 0.08449610 23791.32578432 0 639.57623466 0 8201.52565664 0 522.30924251 0 -1675.15416646 0 7371
0.08550000 0.08548940 23169.72546900 0 745.92148562 0 8095.15383211 0 695.50919072 0 194.02699119 0 8256
0.08650000 0.08650700 22893.47096478 0 266.59832975 0 7233.46122542 0 1050.73483725 0 -1515.09263888 0 8037
0.08750000 0.08749060 22229.35292216 0 699.63473894 0 7678.02613922 0 352.45092193 0 -970.24235751 0 8155
0.08850000 0.08849210 22016.09994615 0 966.03930301 0 6924.33298881 0 -716.66951068 0 -3865.27108792 0 8718
0.08950000 0.08949900 20566.84335064 0 942.03228834 0 7959.07496009 0 -1624.63114832 0 -1962.66922503 0 8571
0.09050000 0.09049190 20041.57226124 0 740.01661479 0 7408.83577823 0 -769.84988678 0 -3965.27632568 0 8932
0.09150000 0.09150830 19767.42149873 0 -210.36974262 0 7864.60588474 0 -537.82046235 0 -3371.51183495 0 9285
0.09250000 0.09250820 19685.81846482 0 161.62161815 0 7566.80463641 0 1056.39058076 0 -3915.79410606 0 9204
0.09350000 0.09350330 19797.53822224 0 194.57617850 0 7628.82072772 0 890.71649173 0 -4384.90636398 0 9349
0.09450000 0.09448040 19334.49359832 0 257.31639986 0 6928.00900065 0 1582.89955607 0 -2297.03128990 0 9564
0.09550000 0.09549270 19159.88303593 0 172.66183322 0 6716.67153684 0 1160.34642402 0 -1889.49223030 0 10155
0.09650000 0.09649430 19374.24324442 0 -91.10231355 0 6722.93847268 0 938.78698993 0 -1550.01475136 0 9913
0.09750000 0.09749140 18776.22698096 0 277.61086402 0 6211.82888673 0 780.19808156 0 -1677.80045209 0 10476
0.09850000 0.09850240 18702.15312793 0 548.42442782 0 6302.52229932 0 527.36818772 0 -128.02375572 0 10575
0.09950000 0.09950330 18479.48867582 0 -88.33279294 0 5449.43288902 0 474.83664985 0 -463.65138732 0 10882
0.10050000 0.10051200 18315.83971500 0 314.08420920 0 5596.13012054 0 563.18272958 0 -136.47304678 0 10875
0.10150000 0.10150300 18048.77524038 0 540.30066311 0 4519.96658212 0 34.33860096 0 -890.09090538 0 11118
0.10250000 0.10250800 17461.72057849 0 678.20979042 0 4116.96717569 0 -332.84294191 0 -1601.94395476 0 11575
0.10350000 0.10349800 16616.34857859 0 461.59968553 0 4587.80671628 0 -395.29085389 0 -1394.80290205 0 11364
0.10450000 0.10450100 16699.50173798 0 376.80007144 0 4817.39137140 0 -804.56494678 0 -2895.65653122 0 12093
0.10550000 0.10551000 15825.34169355 0 643.54234141 0 4778.64930686 0 -302.91776962 0 -2000.33727406 0 12067
0.10650000 0.10649700 15722.36907273 0 583.83925876 0 4899.14941786 0 93.40580000 0 -2711.03658720 0 12054
0.10750000 0.10749900 15317.78632386 0 16.32348559 0 4641.20853888 0 1531.03678662 0 -1686.01611711 0 12807
0.10850000 0.10850100 15300.62422039 0 -293.67791456 0 4012.51086335 0 1787.94793939 0 -1384.22883185 0 12736
0.10950000 0.10950300 15445.45022902 0 -222.97115550 0 2775.90933831 0 1681.88613995 0 -1838.73669333 0 12933
0.11050000 0.11050200 15430.28114402 0 -116.89385481 0 2792.52889786 0 965.41925282 0 -1082.79143206 0 13428
0.11150000 0.11150900 15428.95246504 0 455.77232097 0 2124.73484340 0 49.23220652 0 -886.39939229 0 13453
0.11250000 0.11250000 14779.44989118 0 563.99211652 0 2174.20599069 0 -622.44845540 0 -152.69510988 0 13668
0.11350000 0.11349100 14665.29422230 0 311.19986859 0 2338.50821867 0 -4.13152728 0 -317.78458016 0 13791
0.11450000 0.11448600 14420.92801355 0 -34.85689648 0 2246.35325921 0 28.92777727 0 -75.82582699 0 14205
0.11550000 0.11549300 14567.19342440 0 -39.64124804 0 2499.35588131 0 439.86692637 0 -547.50210317 0 14776
0.11650000 0.11649800 14676.58799361 0 290.08937409 0 3115.55290212 0 -423.95710284 0 160.40034072 0 14553
0.11750000 0.11747300 14403.76591008 0 394.44824997 0 2800.01378944 0 -369.71156909 0 -173.96726032 0 14568
0.11850000 0.11849100 14021.99215033 0 310.53110017 0 3457.48843717 0 -404.26497315 0 1021.45518149 0 16015
0.11950000 0.11950300 13980.91382526 0 231.37283557 0 3993.16751190 0 -18.69373816 0 470.02683195 0 15270
0.12050000 0.12050700 13978.03502080 0 136.31249807 0 4173.74605736 0 154.56633277 0 1174.13146842 0 15999
0.12150000 0.12150000 13626.15653807 0 236.78055901 0 4306.21535149 0 248.14740767 0 1592.88679306 0 15670
0.12250000 0.12250700 13698.45881913 0 186.07263304 0 4104.28936378 0 311.74130527 0 1640.80781488 0 16887
0.12350000 0.12352200 13619.51314318 0 -30.42641643 0 4026.55057122 0 291.21100059 0 1681.24394511 0 16407
0.12450000 0.12449800 13530.93454463 0 -62.11707091 0 3878.23678028 0 409.45346456 0 1679.46130082 0 16306
0.12550000 0.12549900 13722.70721049 0 -98.28271619 0 4020.52722652 0 -11.00087511 0 1335.05663733 0 17523
0.12650000 0.12650100 13615.63782949 0 83.04885809 0 3988.04102550 0 -224.05513610 0 929.20278557 0 17154
0.12750000 0.12750600 13764.67132155 0 262.21479636 0 4087.18262193 0 -133.07384307 0 793.67088640 0 18007
0.12850000 0.12850300 13309.04515526 0 265.26743631 0 3635.96324092 0 -102.82868059 0 921.65588897 0 17496
0.12950000 0.12949900 13323.66062402 0 306.41108810 0 3588.08650841 0 184.46382425 0 11.15381713 0 18405
0.13050000 0.13049000 12781.44887765 0 206.73026946 0 3393.01428975 0 201.31258092 0 514.70366259 0 18100
0.13150000 0.13148800 12814.00151262 0 23.52514710 0 3066.66858805 0 565.56549388 0 -965.43032514 0 19059
0.13250000 0.13249300 12704.49622016 0 -42.75378927 0 2815.00571724 0 -4.68153395 0 -584.48366806 0 18957
0.13350000 0.13349100 12601.52359935 0 145.48149026 0 2795.38555766 0 85.72470683 0 -1281.34478964 0 19468
0.13450000 0.13450700 12428.79533218 0 343.37383004 0 3102.80865625 0 -419.68872162 0 -769.93292922 0 19953
0.13550000 0.13551000 12101.16524079 0 448.29739449 0 3086.82021922 0 -212.98391851 0 -929.15185288 0 19956
0.13650000 0.13649900 11790.69725288 0 342.40057269 0 3072.50370323 0 -115.03813317 0 -599.06370538 0 19723
0.13750000 0.13749600 11631.92011498 0 229.16833570 0 3023.38687033 0 634.98011263 0 113.49354386 0 20946
0.13850000 0.13851100 11369.72746328 0 117.41536131 0 3160.35152834 0 263.44160995 0 -688.50262357 0 20955
0.13950000 0.13949800 11403.94094696 0 89.71794077 0 2504.64845258 0 586.28956424 0 189.05773181 0 20506
0.14050000 0.14048300 11440.25817237 0 -247.31809054 0 2555.75830394 0 400.26454219 0 -6.70112599 0 21447
0.14150000 0.14148400 11291.99974305 0 94.71919917 0 2360.04389044 0 -86.59122697 0 -69.96458113 0 21771
0.14250000 0.14249400 11373.60277696 0 328.70521412 0 2862.32883352 0 -205.50124140 0 -114.70374896 0 22470
0.14350000 0.14350900 10857.44421089 0 530.10748088 0 2686.48924307 0 -138.09624960 0 254.60146581 0 22519
0.14450000 0.14449900 10539.59098232 0 445.67214628 0 2718.75399759 0 -54.75209261 0 633.49309941 0 22218
0.14550000 0.14550500 10355.82360731 0 20.44781586 0 2709.69683589 0 612.19326815 0 736.09147564 0 23559
0.14650000 0.14650700 10374.31438975 0 -166.80789509 0 2450.29441004 0 792.72863155 0 733.34996802 0 23044
0.14750000 0.14750500 10335.40624034 0 17.31656240 0 2250.57181496 0 322.90220869 0 211.66520463 0 23649
0.14850000 0.14849900 10386.93684005 0 77.31483323 0 2187.07203213 0 21.15511597 0 674.37544433 0 23640
0.14950000 0.14949500 10233.46334574 0 215.89261824 0 1915.96615894 0 -240.67801735 0 374.71183098 0 24457
0.15050000 0.15050000 10016.18004349 0 198.32305322 0 2188.73288085 0 -345.64144217 0 284.77908710 0 24591
0.15150000 0.15149900 10002.27320352 0 232.03938953 0 2516.77264825 0 -358.16645600 0 15.06445153 0 25020
0.15250000 0.15250500 9943.22449526 0 240.38349351 0 2611.18636198 0 -376.21655992 0 -21.86164101 0 25297
0.15350000 0.15350100 9744.84165149 0 88.46012467 0 2764.68200094 0 -103.92362279 0 296.74827023 0 25452
0.15450000 0.15450400 9937.48903101 0 -268.93237582 0 2464.28982861 0 361.72620843 0 82.61227632 0 26061
0.15550000 0.15549900 9909.16602412 0 -46.44884551 0 2524.56756493 0 428.92414775 0 -151.07190706 0 26128
0.15650000 0.15649500 10021.33974686 0 255.95782560 0 2366.08937980 0 69.24465857 0 -238.96512870 0 26331
0.15750000 0.15749700 9607.17943702 0 327.37542791 0 2188.53357900 0 97.62335925 0 56.51558179 0 27345
0.15850000 0.15849900 9394.20326913 0 379.65451678 0 2129.42950912 0 -63.88720348 0 -23.01615232 0 26980
0.15950000 0.15949700 8963.64484623 0 367.46167269 0 2269.90409410 0 56.84210464 0 -204.01312095 0 27777
0.16050000 0.16050000 8847.48508656 0 257.82351233 0 2375.92160423 0 -37.10933952 0 -276.54681360 0 28224
0.16150000 0.16150500 8563.59067821 0 130.77301397 0 2297.10879618 0 -11.40560180 0 1.65805850 0 28075
0.16250000 0.16249700 8590.19747475 0 -25.02843664 0 2399.20670333 0 315.94657424 0 278.58412137 0 28590
0.16350000 0.16349900 8720.90626924 0 -303.10267745 0 2089.61342907 0 428.81674620 0 174.92944534 0 29163
0.16450000 0.16449100 8919.46627021 0 -205.68504199 0 1967.61855422 0 271.21991813 0 -250.20796732 0 28996
0.16550000 0.16550500 9099.74586291 0 -7.19954669 0 2010.18057083 0 -105.95340138 0 -582.50061469 0 30777
0.16650000 0.16650700 8966.83367578 0 244.57215399 0 2082.17282680 0 -454.35174170 0 -187.23522715 0 29211
0.16750000 0.16749900 8839.80089314 0 347.51820122 0 2315.11239633 0 -299.65364826 0 -71.69596056 0 30922
0.16850000 0.16850800 8676.57268066 0 205.01627357 0 2205.39672970 0 -160.54538817 0 26.38634655 0 30867
0.16950000 0.16949900 8519.38995754 0 -3.74537995 0 2484.05392841 0 181.00040104 0 -160.83769755 0 30852
0.17050000 0.17049200 8554.40064861 0 116.46867753 0 2352.94653024 0 338.06575753 0 -58.48457331 0 31257
0.17150000 0.17149500 8404.68067241 0 113.13701500 0 2081.98459727 0 326.50957211 0 -217.99746719 0 32608
0.17250000 0.17250900 8244.90702528 0 94.45999605 0 2006.20560622 0 391.62148544 0 166.95404978 0 32361
0.17350000 0.17350400 8178.86060774 0 120.71712857 0 1745.58522463 0 16.16913738 0 121.50879979 0 32508
0.17450000 0.17449800 8119.53509136 0 165.71727110 0 1986.07611970 0 -94.54746741 0 1.19947602 0 32791
0.17550000 0.17549800 7897.02565180 0 270.55447141 0 1868.21122200 0 38.17017896 0 185.01965495 0 33633
0.17650000 0.17650100 7810.28505918 0 107.62177928 0 1770.99621009 0 185.42822374 0 118.99648929 0 33984
0.17750000 0.17750300 7765.27605879 0 -154.73463211 0 1915.88865267 0 8.51334447 0 231.63192797 0 34069
