### header ###
fiducial parameters:
Omega_m = 0.31
Omega_nu = 0
Omega_de = 0.69
Omega_k = 0
H_0 = 100
w_de = -1
zeff = 0
beta = 0
fgrowth = 0
b_1 = 2
gamma = 0.55
Lx = 3500 Ly = 3500 Lz = 3500
nx = 700 ny = 700 nz = 700
xoffset = -685.467585 yoffset = -31.7331281 zoffset = 572.489161
bins = 400 dk = 0.001
kx_ny = 0.628318531 ky_ny = 0.628318531 kz_ny = 0.628318531
############################
A(data) = 8.02650754 (not used)
A(ran) = 8.0193314 (used)
Ngal = 476442
weighted Ngal = 0
Nran = 23820508
weighted Nran = 0
SN(data) = 3492.84397
SN(ran) = 69.8512848
SN(data+ran) = 3562.69525
############################
13 columns: k_central k_mean P_0(k) sigma^{lin}_{P_0(k)} P^img_1(k) sigma^{lin}_{P_1(k)} P_2(k) sigma^{lin}_{P_2(k)} P^img_3(k) sigma^{lin}_{P_3(k)} P_4(k) sigma^{lin}_{P_4(k)} N_modes
### header ###
0.00050000 0 0 0 0 0 0 0 0 0 0 0 0
0.00150000 0.00179520 22579.90272591 0 -20387.13951883 0 2515.55469252 0 -29273.34452528 0 25270.36693360 0 3
0.00250000 0.00253879 40475.32626755 0 -17882.91181460 0 -2673.49033374 0 15886.79309629 0 23705.84743672 0 6
0.00350000 0.00331552 50724.20228944 0 -10279.92282068 0 22737.12973834 0 -60876.30619241 0 19527.48421991 0 7
0.00450000 0.00420575 61415.52841107 0 -2749.15860155 0 19980.89592123 0 -12939.34022957 0 15190.12241870 0 24
0.00550000 0.00557378 64189.92084088 0 5853.21843051 0 49803.64920402 0 -7225.81024897 0 8839.85625476 0 45
0.00650000 0.00659388 56640.03471679 0 24258.91006141 0 55013.84237068 0 18552.01240339 0 -15733.33067430 0 40
0.00750000 0.00754703 58974.63440480 0 6448.11229836 0 67667.62734317 0 25489.15607201 0 24144.20077629 0 57
0.00850000 0.00846663 46699.08004812 0 -3911.68627356 0 43971.85572203 0 43860.24668786 0 20494.98396256 0 75
0.00950000 0.00948925 70874.61550364 0 -14166.37526597 0 32510.67085576 0 43705.23414040 0 -21679.39054841 0 112
0.01050000 0.01054430 75872.44148028 0 -21694.11674042 0 14036.82906559 0 24913.06301170 0 -12585.24728187 0 105
0.01150000 0.01145670 87055.60027037 0 3783.52411378 0 8445.27181520 0 8107.36660638 0 7488.93297596 0 144
0.01250000 0.01249090 83390.88220189 0 7188.30828481 0 10721.50927909 0 -841.52215256 0 24093.82169837 0 169
0.01350000 0.01339930 81790.82054235 0 -7384.00055366 0 9359.44724153 0 19157.33640122 0 22473.16551466 0 180
0.01450000 0.01448870 88192.28513625 0 1259.94198576 0 22271.09558672 0 11326.98828948 0 21295.29160045 0 267
0.01550000 0.01550050 89780.05651524 0 8428.57474937 0 34590.60707294 0 5080.73554488 0 40337.80799331 0 238
0.01650000 0.01653350 78857.42952814 0 9276.46016701 0 49073.76155197 0 -1097.39693573 0 30926.88551370 0 315
0.01750000 0.01747870 78581.72864016 0 7853.14602855 0 45241.29776249 0 15658.48175853 0 44774.59927139 0 297
0.01850000 0.01844180 73961.13677009 0 3537.86244303 0 56545.25561634 0 5473.32696598 0 24930.55728491 0 388
0.01950000 0.01947590 75914.40559135 0 -706.07993922 0 55742.06917400 0 6137.13498350 0 23278.34497547 0 399
0.02050000 0.02045430 75161.70895018 0 -134.25526012 0 54549.02617479 0 10809.06922376 0 18736.92022786 0 462
0.02150000 0.02154770 72558.93755506 0 2757.65107468 0 37449.70278761 0 6899.91851259 0 12122.09193470 0 571
0.02250000 0.02255340 72696.12365956 0 2980.59233491 0 38772.51343369 0 15086.04256541 0 764.73115102 0 510
0.02350000 0.02348930 73303.77284561 0 -2826.29948856 0 26158.25666080 0 7032.29922812 0 -1741.94242977 0 555
0.02450000 0.02439640 71484.14698491 0 -1543.60387529 0 27848.00415138 0 13062.68592805 0 -2839.94059273 0 592
0.02550000 0.02547300 72091.68544771 0 2217.01159844 0 22516.01541171 0 3538.88109691 0 4389.97748875 0 837
0.02650000 0.02652900 70807.40649200 0 2713.50571563 0 24777.53775592 0 4385.92501786 0 7180.14798142 0 723
0.02750000 0.02749970 66150.82956627 0 3308.60995766 0 19228.53144981 0 3740.74065068 0 -2826.72023690 0 826
0.02850000 0.02848090 64348.91942528 0 2587.69088872 0 23368.25225300 0 59.28089491 0 2806.80112455 0 831
0.02950000 0.02946900 63889.63939180 0 4414.02657825 0 19837.39859158 0 -778.74317807 0 5784.97969265 0 996
0.03050000 0.03053250 59406.01217974 0 339.34128934 0 25135.72746380 0 540.96721706 0 -792.96779377 0 1041
0.03150000 0.03150510 60818.61938010 0 -1776.57666180 0 22494.20293182 0 3556.95113102 0 1780.61806036 0 1036
0.03250000 0.03246190 59277.24104210 0 -1622.91493797 0 17782.37510524 0 -2419.48013007 0 -17396.94747831 0 1059
0.03350000 0.03345080 60644.56243395 0 1282.21950330 0 20558.31766053 0 -2706.70730819 0 -15315.46113565 0 1302
0.03450000 0.03451200 56257.15372456 0 4074.74840116 0 23208.36788262 0 -4540.53896163 0 -15335.61276682 0 1339
0.03550000 0.03553350 56984.27329540 0 5495.38303702 0 19439.01634461 0 -2523.61534499 0 -17908.48888493 0 1365
0.03650000 0.03647120 50558.78175665 0 2655.78568635 0 23079.15385199 0 2135.94003612 0 -5066.37473959 0 1308
0.03750000 0.03744890 51823.13052769 0 3186.50435956 0 22410.60687944 0 5149.16251226 0 -13683.17901088 0 1579
0.03850000 0.03847530 48312.76066718 0 1919.56466451 0 19973.80963335 0 7453.76727234 0 -5558.73887963 0 1662
0.03950000 0.03950240 45577.56426723 0 1273.00732905 0 21992.95878728 0 6047.79239454 0 -4188.32830915 0 1683
0.04050000 0.04050350 47262.77210463 0 672.53965288 0 18221.06061456 0 3708.25444966 0 2671.92913594 0 1822
0.04150000 0.04152450 46372.44646597 0 -37.59740760 0 21782.14172273 0 858.38641050 0 -2399.01847381 0 1887
0.04250000 0.04250150 45924.46020380 0 1314.25173900 0 21740.84195116 0 -1502.60305649 0 683.82456633 0 1920
0.04350000 0.04349210 45202.76607212 0 268.94676984 0 21573.98201614 0 -1017.37170810 0 3805.08193020 0 2005
0.04450000 0.04448520 44986.96646141 0 -417.38457083 0 18520.34555441 0 3418.74637263 0 4326.26733174 0 2151
0.04550000 0.04548030 47505.14529491 0 -1925.62122619 0 16501.08567723 0 6261.96437351 0 933.90188022 0 2274
0.04650000 0.04648670 47261.11125591 0 -1356.03869286 0 12802.59701806 0 5214.00204640 0 -3059.70409574 0 2311
0.04750000 0.04749250 44527.35425819 0 4042.94868428 0 10771.37903008 0 1440.68661610 0 -2927.89914109 0 2568
0.04850000 0.04851840 41665.37973906 0 4506.15939307 0 12696.41342305 0 263.44050271 0 -96.05596095 0 2493
0.04950000 0.04949480 38184.46226258 0 1505.21612515 0 7884.76858823 0 1024.17011554 0 1002.08636369 0 2644
0.05050000 0.05050630 36643.41609432 0 470.42432841 0 10251.82126029 0 2864.88654055 0 -421.41046813 0 2829
0.05150000 0.05149060 37330.78601906 0 -919.79352394 0 9218.99480120 0 3099.15478906 0 -820.19685496 0 2784
0.05250000 0.05249300 37960.13696175 0 -584.40948349 0 8688.46435752 0 222.75967410 0 -1389.79821124 0 3055
0.05350000 0.05348950 37685.54330625 0 273.87838332 0 9471.99742331 0 -3727.94104319 0 -416.31387702 0 3009
0.05450000 0.05448610 38111.38491877 0 919.00517441 0 10894.45899276 0 -4101.14482353 0 -2856.26119952 0 3336
0.05550000 0.05550870 36732.43758586 0 778.44090361 0 11268.52641443 0 -2641.62418291 0 -3238.54428621 0 3349
0.05650000 0.05647670 36806.06854590 0 1362.93675123 0 12285.07655603 0 -2732.31759550 0 -4915.19321652 0 3324
0.05750000 0.05747970 36394.28878590 0 1127.59448721 0 11951.02451625 0 225.45024903 0 -5043.14500212 0 3639
0.05850000 0.05849280 35289.93510849 0 404.79201581 0 10762.72047207 0 285.69033944 0 -5564.74007968 0 3846
0.05950000 0.05951020 35632.06994538 0 6.13135523 0 10004.37694524 0 1894.30869160 0 -5671.34442303 0 3787
0.06050000 0.06049470 35102.59137255 0 60.35646054 0 10058.39881803 0 3870.94011822 0 -5715.39013116 0 3930
0.06150000 0.06148310 34921.55886177 0 609.26574547 0 9516.82926650 0 2668.72923406 0 -4149.35372579 0 4083
0.06250000 0.06249100 33788.52786308 0 1090.87644364 0 8644.73974681 0 1951.92906995 0 -2344.36547850 0 4303
0.06350000 0.06350600 32898.64511740 0 124.94454218 0 7450.22412840 0 1846.69769488 0 -519.39611385 0 4470
0.06450000 0.06451750 33088.64621129 0 32.21160736 0 8469.83023165 0 -318.05031595 0 1084.36480942 0 4479
0.06550000 0.06550280 33481.16012611 0 399.40975872 0 6911.04619903 0 201.09999229 0 473.91100349 0 4636
0.06650000 0.06648880 32469.92470042 0 986.79548311 0 8677.15951388 0 -1692.50449945 0 -1423.38057241 0 4653
0.06750000 0.06749660 31003.06310845 0 2194.26904326 0 8776.76614795 0 -1920.25114865 0 137.74193521 0 5220
0.06850000 0.06852730 29934.47304020 0 1694.37572235 0 10072.84820192 0 -876.64688859 0 -1359.73684935 0 5029
0.06950000 0.06949320 29127.85417716 0 751.73445614 0 9751.88365007 0 -1870.48104859 0 -2385.43273125 0 5040
0.07050000 0.07048030 28147.62126097 0 -15.71771870 0 10817.49526295 0 1239.40282322 0 -1604.78954224 0 5475
0.07150000 0.07148790 28999.41520927 0 586.38921516 0 11461.95992901 0 249.34321875 0 -1842.88881514 0 5509
0.07250000 0.07249820 28349.80191216 0 221.65022715 0 9917.21560427 0 1576.35581211 0 -1990.87043634 0 5916
0.07350000 0.07351270 27666.41802435 0 -23.01271990 0 9510.21908858 0 1314.84964454 0 -1945.86143595 0 5721
0.07450000 0.07449140 27863.50540612 0 460.05952514 0 10368.93323989 0 819.74842581 0 -3214.17409928 0 6028
0.07550000 0.07549160 27021.23365717 0 457.42099014 0 9599.43988197 0 803.93603873 0 -2281.43038423 0 6183
0.07650000 0.07648840 26395.64730492 0 1009.55464678 0 9228.98203819 0 503.42096360 0 -1978.67980672 0 6330
0.07750000 0.07749960 25803.49937361 0 956.16832543 0 9339.31775501 0 593.49986216 0 -1074.86032579 0 6583
0.07850000 0.07848650 25209.46914709 0 685.80761971 0 8953.13720998 0 882.93043292 0 -2076.01661420 0 6549
0.07950000 0.07947320 24272.97191393 0 869.40448092 0 8873.59362848 0 384.69021010 0 -510.33673768 0 6828
0.08050000 0.08048110 23882.00812459 0 327.62344799 0 9415.12996304 0 -29.33557099 0 -626.83198880 0 7147
0.08150000 0.08149960 24203.21626758 0 -296.34413038 0 8072.72130203 0 198.88663455 0 -1805.53079120 0 7386
0.08250000 0.08250610 23527.47228389 0 320.26367368 0 8919.06766651 0 96.78695583 0 -567.00268164 0 7227
0.08350000 0.08350160 24130.24964702 0 318.79105448 0 7911.45289104 0 -175.09995915 0 -2544.78563004 0 7798
0.08450000 0.08449610 22621.97756022 0 496.90047151 0 7771.52084999 0 949.37766862 0 -1860.10628023 0 7371
0.08550000 0.08548940 22756.94919976 0 690.51557222 0 7351.87973936 0 850.12424172 0 -2475.04105601 0 8256
0.08650000 0.08650700 22079.54436736 0 -367.69751320 0 6221.67218350 0 1481.37740981 0 -2840.98139127 0 8037
0.08750000 0.08749060 22555.10071832 0 5.33073757 0 6140.72241675 0 1402.25457666 0 -2559.16857998 0 8155
0.08850000 0.08849210 22343.28714454 0 453.74387107 0 5375.35903598 0 -182.04452127 0 -2472.49442130 0 8718
0.08950000 0.08949900 21668.76111659 0 803.73784412 0 6146.85648470 0 -451.00457791 0 -606.99924058 0 8571
0.09050000 0.09049190 20964.22908838 0 1234.29848148 0 6758.56921395 0 -730.85315877 0 -627.88053796 0 8932
0.09150000 0.09150830 20579.24435443 0 391.66134581 0 7301.99891605 0 -262.74958964 0 460.63417880 0 9285
0.09250000 0.09250820 20203.67109658 0 47.73201723 0 7815.88765553 0 390.62940514 0 200.17877486 0 9204
0.09350000 0.09350330 20345.17540777 0 134.79448234 0 7366.34019557 0 779.99435078 0 426.11620618 0 9349
0.09450000 0.09448040 19822.78312282 0 558.95531596 0 7417.85972295 0 801.37722447 0 1325.39049777 0 9564
0.09550000 0.09549270 19696.22645015 0 285.55414984 0 7354.33779547 0 922.00355997 0 1449.11265529 0 10155
0.09650000 0.09649430 19062.11440778 0 713.92578859 0 6689.37825616 0 870.23269082 0 1420.21388751 0 9913
0.09750000 0.09749140 18315.50754526 0 823.25392385 0 6640.32785721 0 837.67119799 0 1174.66294001 0 10476
0.09850000 0.09850240 18017.55128439 0 176.02671273 0 6160.57509515 0 807.46700312 0 1626.08162287 0 10575
0.09950000 0.09950330 17490.28717653 0 166.71599479 0 5827.54170925 0 -17.31789108 0 991.99172515 0 10882
0.10050000 0.10051200 17561.03933212 0 332.22178449 0 5983.01929435 0 -287.06109325 0 532.94088880 0 10875
0.10150000 0.10150300 17055.69842739 0 381.91880720 0 6280.11191389 0 -502.80866404 0 218.59869443 0 11118
0.10250000 0.10250800 16593.65031271 0 835.68150122 0 6131.64311039 0 -784.52846779 0 703.26978318 0 11575
0.10350000 0.10349800 16230.92095165 0 442.57964595 0 6851.36636826 0 497.36329469 0 1096.03946871 0 11364
0.10450000 0.10450100 16176.44511355 0 87.73555174 0 6609.77931304 0 920.78117531 0 863.20619349 0 12093
0.10550000 0.10551000 16063.28595390 0 17.88091880 0 6826.24326324 0 459.09623289 0 1700.99697259 0 12067
0.10650000 0.10649700 15936.50783473 0 342.42936074 0 6563.10946393 0 934.08457358 0 1369.93446051 0 12054
0.10750000 0.10749900 15679.51917569 0 342.71724118 0 6060.81344853 0 875.78878341 0 2820.51973500 0 12807
0.10850000 0.10850100 15323.76537926 0 98.15427722 0 6111.28110505 0 303.28979973 0 1980.25207684 0 12736
0.10950000 0.10950300 15403.37539471 0 121.86643588 0 5463.04077622 0 305.34039429 0 1740.25943640 0 12933
0.11050000 0.11050200 15202.96631549 0 26.43894009 0 6179.75236173 0 -184.20583908 0 1516.15558207 0 13428
0.11150000 0.11150900 15124.02063953 0 148.70464401 0 5872.63928824 0 35.97398334 0 1487.07965709 0 13453
0.11250000 0.11250000 15030.68094131 0 327.25806127 0 6168.58038599 0 -417.78317452 0 1560.04627765 0 13668
0.11350000 0.11349100 14883.19757473 0 296.07285842 0 5499.51301417 0 202.33787820 0 1567.42044598 0 13791
0.11450000 0.11448600 14711.46581679 0 -74.67242292 0 5865.99589335 0 263.30099142 0 1501.69512585 0 14205
0.11550000 0.11549300 14860.61003210 0 60.66759287 0 6049.30930304 0 503.01903821 0 1396.71841425 0 14776
0.11650000 0.11649800 14798.05139687 0 143.23048662 0 5659.13164876 0 74.75878705 0 1087.39419749 0 14553
0.11750000 0.11747300 14362.90903150 0 236.06417960 0 4995.96582607 0 692.30485991 0 927.10347278 0 14568
0.11850000 0.11849100 14339.21425639 0 268.66221110 0 4575.80431618 0 322.23233303 0 742.16796750 0 16015
0.11950000 0.11950300 14089.64405498 0 -64.46230003 0 4310.64428142 0 530.80393011 0 105.13105981 0 15270
0.12050000 0.12050700 13929.53823810 0 177.93558153 0 3716.87979070 0 620.95258432 0 -331.53197865 0 15999
0.12150000 0.12150000 13795.89527754 0 159.07609067 0 3658.01931196 0 -318.22747315 0 -453.84573646 0 15670
0.12250000 0.12250700 13815.49329247 0 194.04581414 0 3655.66090677 0 -282.98315602 0 -451.18394957 0 16887
0.12350000 0.12352200 13619.62386642 0 159.99066470 0 3974.42206598 0 -234.89051317 0 -208.13313301 0 16407
0.12450000 0.12449800 13594.93258208 0 24.65452423 0 3884.91339214 0 28.95745110 0 -53.87117845 0 16306
0.12550000 0.12549900 13550.75400605 0 120.84003137 0 4415.60992070 0 118.60452899 0 -241.67231212 0 17523
0.12650000 0.12650100 13333.18282337 0 424.83403097 0 4278.74491362 0 376.79010635 0 -133.80461650 0 17154
0.12750000 0.12750600 13000.23801607 0 416.29062514 0 4113.18044061 0 387.59005197 0 81.61831372 0 18007
0.12850000 0.12850300 12834.92820653 0 200.69142350 0 3838.38748326 0 474.71042534 0 384.70460413 0 17496
0.12950000 0.12949900 12531.43578325 0 88.44185534 0 4131.40548726 0 87.09291401 0 236.18818964 0 18405
0.13050000 0.13049000 12508.51607087 0 197.72846938 0 3812.97649780 0 -89.12734297 0 -38.52161455 0 18100
0.13150000 0.13148800 12189.41166960 0 276.25450423 0 4089.98392011 0 -211.00418684 0 550.17385515 0 19059
0.13250000 0.13249300 12230.15782493 0 210.26123384 0 4148.49008445 0 -209.56478461 0 450.87835341 0 18957
0.13350000 0.13349100 12170.47799416 0 -45.69105560 0 4399.34467554 0 -62.00258307 0 518.12058203 0 19468
0.13450000 0.13450700 12345.75289604 0 152.02634146 0 4693.27061018 0 -101.14280841 0 281.50278619 0 19953
0.13550000 0.13551000 12014.02604447 0 217.70737228 0 4481.52347035 0 71.52777194 0 128.94054421 0 19956
0.13650000 0.13649900 11950.58162326 0 127.42252848 0 4637.13392335 0 381.69403901 0 135.02257223 0 19723
0.13750000 0.13749600 11733.12116382 0 308.93889986 0 4509.13784844 0 149.97796137 0 173.07925987 0 20946
0.13850000 0.13851100 11590.62034341 0 163.03333956 0 4341.84609276 0 498.79162459 0 -49.06667526 0 20955
0.13950000 0.13949800 11295.87505673 0 32.67841658 0 3911.77485215 0 319.36902984 0 -17.90228838 0 20506
0.14050000 0.14048300 11294.32493126 0 169.16408581 0 3711.25504969 0 155.79425359 0 -301.34549950 0 21447
0.14150000 0.14148400 11068.96990423 0 127.80673815 0 3569.67323223 0 651.22764207 0 -67.07293278 0 21771
0.14250000 0.14249400 10970.70302146 0 50.33489935 0 3016.76562009 0 467.84558396 0 151.21584728 0 22470
0.14350000 0.14350900 10887.33948790 0 -26.13655490 0 3031.56931837 0 329.77037177 0 -317.83994178 0 22519
0.14450000 0.14449900 10858.21927363 0 147.82550142 0 2877.42041225 0 256.55019498 0 -45.21871022 0 22218
0.14550000 0.14550500 10604.54123971 0 351.54963469 0 2858.04384381 0 -232.29183853 0 -170.04655010 0 23559
0.14650000 0.14650700 10379.05334478 0 381.05959480 0 3114.17993384 0 -330.44024742 0 373.59906233 0 23044
0.14750000 0.14750500 10364.71468414 0 120.90867979 0 3311.32267724 0 -7.97940375 0 376.82996672 0 23649
0.14850000 0.14849900 10136.17082755 0 68.93075816 0 3360.94883708 0 28.50769326 0 339.22170824 0 23640
0.14950000 0.14949500 10162.34580343 0 76.49891362 0 3263.47916170 0 258.77351780 0 241.59923478 0 24457
0.15050000 0.15050000 10175.06790464 0 25.23061729 0 3276.19019059 0 91.38443638 0 182.09545397 0 24591
0.15150000 0.15149900 10044.68020758 0 172.52121470 0 2994.35523466 0 -96.97352450 0 82.09586309 0 25020
0.15250000 0.15250500 9913.99355774 0 248.96011631 0 3362.89756624 0 51.21880304 0 -111.56031594 0 25297
0.15350000 0.15350100 9822.04897245 0 -85.19943574 0 3358.25826215 0 -102.84152449 0 265.10578037 0 25452
0.15450000 0.15450400 9823.55480862 0 71.45292303 0 3263.26878753 0 246.25182566 0 73.74677656 0 26061
0.15550000 0.15549900 9814.98482922 0 108.61994936 0 3363.86085850 0 62.96111423 0 353.14072777 0 26128
0.15650000 0.15649500 9671.95253721 0 155.87508156 0 3050.73551263 0 682.53021156 0 358.94041151 0 26331
0.15750000 0.15749700 9642.93197386 0 40.58870687 0 2762.61147620 0 396.46784201 0 592.19997123 0 27345
0.15850000 0.15849900 9475.21946983 0 130.27808105 0 2644.75765083 0 402.03722140 0 410.24402855 0 26980
0.15950000 0.15949700 9443.36439133 0 39.41858359 0 2527.08098266 0 103.28032072 0 484.04771686 0 27777
0.16050000 0.16050000 9420.53325755 0 -47.66060074 0 2366.87551486 0 67.30545160 0 403.15884790 0 28224
0.16150000 0.16150500 9440.65167175 0 154.92618333 0 2304.18401173 0 -134.62064684 0 497.83276126 0 28075
0.16250000 0.16249700 9283.61288884 0 74.25997882 0 2386.91642278 0 -110.46459868 0 464.96235057 0 28590
0.16350000 0.16349900 9250.78344576 0 119.36630494 0 2373.96180274 0 -59.29938569 0 384.16648914 0 29163
0.16450000 0.16449100 9248.02643688 0 175.66132602 0 2620.30995763 0 -229.54036582 0 94.10623527 0 28996
0.16550000 0.16550500 8983.47537998 0 224.20461249 0 2632.01340497 0 148.72014527 0 42.66653935 0 30777
0.16650000 0.16650700 8820.20287821 0 233.72349013 0 2680.82021277 0 229.61122869 0 404.77872902 0 29211
0.16750000 0.16749900 8710.60900715 0 71.47329611 0 2223.62177635 0 529.02017858 0 369.73260651 0 30922
0.16850000 0.16850800 8699.66955023 0 2.48232665 0 2257.12663126 0 307.59361239 0 322.97196433 0 30867
0.16950000 0.16949900 8472.34364938 0 156.56378017 0 1864.76772898 0 334.93118237 0 258.36494902 0 30852
0.17050000 0.17049200 8529.24432662 0 152.35186781 0 1860.68204112 0 233.46771943 0 605.22434691 0 31257
0.17150000 0.17149500 8360.43566244 0 0.84142029 0 1686.84654147 0 133.60199296 0 725.54397902 0 32608
0.17250000 0.17250900 8413.84855736 0 -43.97207717 0 1614.23423531 0 123.61918490 0 391.22952514 0 32361
0.17350000 0.17350400 8383.63218293 0 8.29988112 0 1575.44788147 0 62.43307506 0 411.86390967 0 32508
0.17450000 0.17449800 8381.50629657 0 105.59952988 0 1545.24257937 0 -160.50552780 0 318.61721898 0 32791
0.17550000 0.17549800 8342.12203719 0 130.36776688 0 1588.77896055 0 -156.12199441 0 393.48717217 0 33633
0.17650000 0.17650100 8271.17057975 0 104.79612199 0 1595.82095914 0 -215.36446835 0 244.90100204 0 33984
0.17750000 0.17750300 8081.68988513 0 217.49589088 0 1817.06815366 0 -60.46142618 0 278.15119347 0 34069
0.17850000 0.17849800 8023.78162633 0 131.48717892 0 1728.24596397 0 299.88063092 0 -29.08046463 0 34536
