### header ###
fiducial parameters:
Omega_m = 0.31
Omega_nu = 0
Omega_de = 0.69
Omega_k = 0
H_0 = 100
w_de = -1
zeff = 0
beta = 0
fgrowth = 0
b_1 = 2
gamma = 0.55
Lx = 3500 Ly = 3500 Lz = 3500
nx = 700 ny = 700 nz = 700
xoffset = -685.467585 yoffset = -31.7331281 zoffset = 572.489161
bins = 400 dk = 0.001
kx_ny = 0.628318531 ky_ny = 0.628318531 kz_ny = 0.628318531
############################
A(data) = 8.10761094 (not used)
A(ran) = 8.10078531 (used)
Ngal = 481007
weighted Ngal = 0
Nran = 23820508
weighted Nran = 0
SN(data) = 3491.86347
SN(ran) = 70.560778
SN(data+ran) = 3562.42425
############################
13 columns: k_central k_mean P_0(k) sigma^{lin}_{P_0(k)} P^img_1(k) sigma^{lin}_{P_1(k)} P_2(k) sigma^{lin}_{P_2(k)} P^img_3(k) sigma^{lin}_{P_3(k)} P_4(k) sigma^{lin}_{P_4(k)} N_modes
### header ###
0.00050000 0 0 0 0 0 0 0 0 0 0 0 0
0.00150000 0.00179520 18927.25349149 0 3459.57003424 0 48325.05094773 0 -69711.02488845 0 -65514.61378219 0 3
0.00250000 0.00253879 46003.40587976 0 -10940.38699611 0 -2499.09014552 0 10775.97404488 0 -14182.98375320 0 6
0.00350000 0.00331552 46774.92547312 0 -22613.11970037 0 -13925.77364766 0 19052.59220844 0 143895.93334313 0 7
0.00450000 0.00420575 61019.36062906 0 -30528.39254348 0 -23813.91332695 0 -9497.43055342 0 -16418.15396434 0 24
0.00550000 0.00557378 121962.76510987 0 -40376.00751393 0 9189.07737954 0 -29986.07007386 0 -51241.94419796 0 45
0.00650000 0.00659388 123995.64394657 0 -9787.41474042 0 18416.70859410 0 -32570.68285627 0 38112.38142801 0 40
0.00750000 0.00754703 115815.41037056 0 32693.91783151 0 40272.25983038 0 -49785.82276106 0 21556.81991267 0 57
0.00850000 0.00846663 105673.38228317 0 31004.83468042 0 17101.20568240 0 9640.77287052 0 38879.47209144 0 75
0.00950000 0.00948925 87906.50843268 0 4197.88372547 0 33393.24586705 0 58988.14264108 0 22745.32325870 0 112
0.01050000 0.01054430 86742.25347800 0 -16024.42209379 0 -744.39350479 0 55747.49461316 0 20227.80876469 0 105
0.01150000 0.01145670 92917.73192235 0 -11117.49990391 0 -8817.26871213 0 38129.10063848 0 -11039.07462722 0 144
0.01250000 0.01249090 91402.15210117 0 -267.73767197 0 -25073.05810533 0 4977.14287388 0 14228.49100820 0 169
0.01350000 0.01339930 86428.13162289 0 7111.14525315 0 -15303.83519459 0 -21977.78970228 0 6054.21434294 0 180
0.01450000 0.01448870 75231.24315004 0 11564.60038008 0 -10585.61863659 0 -22787.06592327 0 26491.42291460 0 267
0.01550000 0.01550050 74981.45150213 0 2321.24646428 0 -7781.31985745 0 -20381.04974018 0 24309.95347883 0 238
0.01650000 0.01653350 72302.39178901 0 3143.26693114 0 5726.40709436 0 -17769.86337820 0 2932.09555220 0 315
0.01750000 0.01747870 77330.99882865 0 -675.30441239 0 10874.76132691 0 -13188.35681474 0 -7884.54714173 0 297
0.01850000 0.01844180 71288.72045186 0 6513.42794247 0 21728.21950086 0 -5227.95317567 0 -3421.90198520 0 388
0.01950000 0.01947590 75686.09425359 0 131.87692475 0 30784.16324679 0 -9165.51547233 0 -5551.03254155 0 399
0.02050000 0.02045430 70085.93380681 0 -6.38471217 0 24214.62076214 0 4634.68693956 0 -12127.96026686 0 462
0.02150000 0.02154770 72087.14579453 0 6512.56430113 0 36721.58670754 0 -3138.45046985 0 -3668.10619987 0 571
0.02250000 0.02255340 64112.74673690 0 8732.94188631 0 26397.97249313 0 -1716.67538453 0 13468.37590940 0 510
0.02350000 0.02348930 66787.82041308 0 -272.33933017 0 36525.38511175 0 13104.42859261 0 4987.19654481 0 555
0.02450000 0.02439640 61225.52731719 0 -444.82068450 0 28229.99935762 0 6240.56156964 0 8294.85428254 0 592
0.02550000 0.02547300 61104.50680692 0 3914.19969129 0 33869.02366451 0 7411.80316128 0 -15038.87446168 0 837
0.02650000 0.02652900 55691.24720308 0 3527.07799865 0 29613.70779021 0 -669.04522717 0 -5647.02959773 0 723
0.02750000 0.02749970 52655.32646106 0 7263.02433269 0 30107.20130737 0 149.82516328 0 -3763.71572468 0 826
0.02850000 0.02848090 48341.77015821 0 1015.05205605 0 24606.58106072 0 1997.86814563 0 1636.43424657 0 831
0.02950000 0.02946900 51562.93089445 0 -5644.51618000 0 24952.59121130 0 5625.52714293 0 -6536.56910134 0 996
0.03050000 0.03053250 56982.61244668 0 -4261.80425665 0 23903.26698824 0 620.30153162 0 -4482.67499213 0 1041
0.03150000 0.03150510 58067.58955566 0 -959.98052687 0 25591.13218359 0 -1717.80476166 0 -1639.04731523 0 1036
0.03250000 0.03246190 60107.55468025 0 2296.20086554 0 25967.59122743 0 271.96951452 0 -1957.65346189 0 1059
0.03350000 0.03345080 59812.92011682 0 1987.07262893 0 26204.09608555 0 1134.18252047 0 1958.79391134 0 1302
0.03450000 0.03451200 56903.66677072 0 3707.53474855 0 29397.79745624 0 2586.49507764 0 3180.35921928 0 1339
0.03550000 0.03553350 55066.10374382 0 2839.70807391 0 30682.40858170 0 1427.93129791 0 869.26939856 0 1365
0.03650000 0.03647120 52513.71142663 0 1161.57545207 0 29679.92029262 0 4777.79673784 0 897.19048005 0 1308
0.03750000 0.03744890 50749.00429703 0 962.35996947 0 22395.54851768 0 5508.74733307 0 199.01396629 0 1579
0.03850000 0.03847530 50838.80085131 0 -836.24176086 0 21861.19812194 0 5673.24886290 0 1366.83420956 0 1662
0.03950000 0.03950240 49040.43385427 0 3308.65424696 0 18824.61304042 0 5830.36515208 0 -1250.85160709 0 1683
0.04050000 0.04050350 46220.75561595 0 1752.57186159 0 17769.64193170 0 4849.93293404 0 -994.56936237 0 1822
0.04150000 0.04152450 43794.91997143 0 2885.04924405 0 12851.09380076 0 2843.24014553 0 -2437.24013908 0 1887
0.04250000 0.04250150 42612.39568080 0 -931.94872213 0 14373.75990982 0 -369.51337448 0 -2449.28682848 0 1920
0.04350000 0.04349210 43786.50500457 0 -1414.32341071 0 13755.92418494 0 1681.27716209 0 -4344.12699167 0 2005
0.04450000 0.04448520 44724.10947021 0 -869.99685030 0 14623.66228098 0 -2682.39248289 0 -1658.36852204 0 2151
0.04550000 0.04548030 44728.64912339 0 684.54316022 0 10640.64809094 0 631.60969695 0 -6364.41659506 0 2274
0.04650000 0.04648670 43309.50925138 0 2487.66350630 0 13889.67786875 0 -2456.48383962 0 -7230.15060030 0 2311
0.04750000 0.04749250 40826.87258055 0 3051.68773257 0 14695.30022256 0 -756.22871279 0 -5183.02168156 0 2568
0.04850000 0.04851840 39865.35189330 0 3189.12850054 0 15353.54993302 0 -2139.00707009 0 -5922.78584734 0 2493
0.04950000 0.04949480 37955.26513883 0 1144.46871023 0 16955.05099479 0 -516.99452659 0 -1724.11598681 0 2644
0.05050000 0.05050630 37053.86717534 0 921.45437266 0 18069.81265753 0 -433.06076831 0 -1530.97035267 0 2829
0.05150000 0.05149060 36440.57110364 0 358.18195726 0 15109.95878701 0 4543.00809007 0 798.30908326 0 2784
0.05250000 0.05249300 36718.70790308 0 -613.18867015 0 15665.90021616 0 3287.53932353 0 991.48350544 0 3055
0.05350000 0.05348950 37016.55344071 0 -466.20245095 0 11125.91487077 0 5571.18417272 0 -1273.98169363 0 3009
0.05450000 0.05448610 36784.03461951 0 -714.41739981 0 10642.17607177 0 2923.09375212 0 -3161.90165381 0 3336
0.05550000 0.05550870 36777.94484086 0 601.57490865 0 8610.28267197 0 2607.86466454 0 -3516.17175871 0 3349
0.05650000 0.05647670 35332.56355904 0 1471.53411305 0 5524.17108154 0 787.61653918 0 -577.51474682 0 3324
0.05750000 0.05747970 35261.03634071 0 644.98949427 0 5225.45083026 0 1009.43506567 0 -648.13957068 0 3639
0.05850000 0.05849280 33903.90148769 0 574.54957823 0 6001.33291960 0 574.06350317 0 -262.11182373 0 3846
0.05950000 0.05951020 34223.78095170 0 268.43522844 0 5257.73772943 0 2133.38232908 0 -2551.16328914 0 3787
0.06050000 0.06049470 34604.00458597 0 -408.91645681 0 6048.47887868 0 -440.65749036 0 -595.35779827 0 3930
0.06150000 0.06148310 34886.12742235 0 -724.79881156 0 7238.89773691 0 -596.49824772 0 234.81854306 0 4083
0.06250000 0.06249100 35490.34418770 0 773.14058172 0 8652.19142141 0 -2880.81961597 0 -225.36609936 0 4303
0.06350000 0.06350600 35370.65235641 0 1419.15094433 0 11441.03323511 0 -2783.89248450 0 -896.23715289 0 4470
0.06450000 0.06451750 33296.47374814 0 2357.29795389 0 12125.85652514 0 -2941.09735228 0 3498.19030320 0 4479
0.06550000 0.06550280 32745.29341866 0 1138.68895667 0 14009.81259303 0 392.92469807 0 999.69474153 0 4636
0.06650000 0.06648880 31445.84537795 0 -413.68641434 0 13842.73121152 0 1781.86923306 0 2489.20255945 0 4653
0.06750000 0.06749660 32358.86928249 0 -191.63315457 0 13647.19395522 0 3968.04440688 0 964.98300322 0 5220
0.06850000 0.06852730 31977.42769249 0 603.33651553 0 12487.03576072 0 1597.36001229 0 574.00592709 0 5029
0.06950000 0.06949320 30687.94474411 0 1416.69288822 0 12441.41778247 0 611.14139730 0 2096.36754721 0 5040
0.07050000 0.07048030 30035.45264255 0 1473.65999941 0 12627.87573242 0 -611.33073405 0 2079.38260094 0 5475
0.07150000 0.07148790 28822.47945867 0 957.63430124 0 11172.30791176 0 -401.69508656 0 2998.06446347 0 5509
0.07250000 0.07249820 28200.98986660 0 733.73971385 0 12197.82663646 0 -951.98409388 0 1887.96424948 0 5916
0.07350000 0.07351270 27979.21120048 0 680.82396631 0 11330.75287991 0 699.25938713 0 -23.01947402 0 5721
0.07450000 0.07449140 27426.03785254 0 1097.19874111 0 12965.13874639 0 -903.69768535 0 -1043.97296848 0 6028
0.07550000 0.07549160 26169.88260186 0 608.99558075 0 11585.96996698 0 -1663.33999588 0 -1998.74285929 0 6183
0.07650000 0.07648840 25947.32887301 0 118.67982080 0 13379.90803410 0 831.55706023 0 -2653.72623393 0 6330
0.07750000 0.07749960 25779.47242876 0 153.98835742 0 11826.57158529 0 1415.36420924 0 -2485.21652252 0 6583
0.07850000 0.07848650 25439.77350332 0 26.01708452 0 11673.21988655 0 1788.76729143 0 -2927.09086138 0 6549
0.07950000 0.07947320 24940.19020750 0 680.09983627 0 10339.24833705 0 2371.26015549 0 -1030.36508128 0 6828
0.08050000 0.08048110 24963.44208962 0 38.34335012 0 8785.70151407 0 1509.82221227 0 -1104.94161786 0 7147
0.08150000 0.08149960 24484.12114822 0 165.98632859 0 9733.86897759 0 1482.72823344 0 481.22981020 0 7386
0.08250000 0.08250610 24397.42484489 0 632.47112383 0 9320.02976517 0 645.07032224 0 1547.35739341 0 7227
0.08350000 0.08350160 23552.38501474 0 702.21680509 0 8487.14734766 0 477.09540411 0 1403.64968958 0 7798
0.08450000 0.08449610 23441.21887356 0 595.97341953 0 9399.17474298 0 918.77376282 0 2044.68193496 0 7371
0.08550000 0.08548940 22245.07562340 0 614.12317437 0 8984.77084199 0 157.46285294 0 2043.10966484 0 8256
0.08650000 0.08650700 22532.95606868 0 579.55094736 0 9565.43677245 0 126.29647304 0 1405.62056340 0 8037
0.08750000 0.08749060 21617.60697593 0 612.56640550 0 8601.66840326 0 470.48301173 0 2351.13066897 0 8155
0.08850000 0.08849210 20975.30141320 0 515.27610178 0 8373.72245222 0 694.07864635 0 1735.90801274 0 8718
0.08950000 0.08949900 20716.98407518 0 467.19563849 0 7499.55133546 0 334.07086273 0 776.63722189 0 8571
0.09050000 0.09049190 20444.16199164 0 291.94620296 0 7542.61160668 0 822.58294096 0 2030.37649129 0 8932
0.09150000 0.09150830 20134.80123621 0 149.54724793 0 7603.12186182 0 711.15549292 0 1573.77596042 0 9285
0.09250000 0.09250820 20099.25907354 0 33.33600195 0 6696.08808500 0 934.65812001 0 1681.35466836 0 9204
0.09350000 0.09350330 19982.77821645 0 57.80949366 0 6774.91196538 0 71.99369537 0 1547.23559783 0 9349
0.09450000 0.09448040 19639.86831682 0 651.50998635 0 6295.42493911 0 300.10761358 0 1883.09242656 0 9564
0.09550000 0.09549270 19441.56297932 0 172.10046635 0 7204.66210857 0 556.53047682 0 2820.65260290 0 10155
0.09650000 0.09649430 19267.83820291 0 -125.36196883 0 6678.53845016 0 947.83086485 0 2837.72612777 0 9913
0.09750000 0.09749140 19325.85718496 0 207.97590600 0 6801.21980915 0 1047.80288563 0 2718.86472084 0 10476
0.09850000 0.09850240 18900.67991193 0 242.37872644 0 5993.16154389 0 322.95535585 0 2444.52572881 0 10575
0.09950000 0.09950330 19023.36127092 0 333.41205940 0 6008.82888351 0 373.71089281 0 3002.55982735 0 10882
0.10050000 0.10051200 18618.99996854 0 241.77085581 0 6079.96857047 0 278.93289960 0 2141.63121107 0 10875
0.10150000 0.10150300 18114.98774279 0 508.88515590 0 6198.89641134 0 -4.25353323 0 3161.01586783 0 11118
0.10250000 0.10250800 17705.20100126 0 827.67842484 0 5680.42372939 0 441.18231856 0 1985.81038390 0 11575
0.10350000 0.10349800 17500.47371536 0 400.77054744 0 4999.22108957 0 693.39216221 0 2247.64872121 0 11364
0.10450000 0.10450100 16665.39897754 0 137.99659868 0 4918.01665935 0 610.39844430 0 2175.90005639 0 12093
0.10550000 0.10551000 16832.92325204 0 10.80480638 0 4597.12961378 0 352.09660754 0 1220.59094336 0 12067
0.10650000 0.10649700 16522.67671062 0 88.57472324 0 4479.18720981 0 259.93943360 0 796.53086790 0 12054
0.10750000 0.10749900 16725.30025481 0 236.03317709 0 4873.84915565 0 -89.90882765 0 1576.21187188 0 12807
0.10850000 0.10850100 16396.34148444 0 170.84375749 0 4080.00775545 0 106.00068020 0 1161.55330742 0 12736
0.10950000 0.10950300 16528.32359628 0 58.76348517 0 4947.05936735 0 288.83487968 0 1992.01088580 0 12933
0.11050000 0.11050200 16581.58147866 0 -38.45938809 0 4728.07092708 0 -46.94388915 0 1813.34785252 0 13428
0.11150000 0.11150900 16302.78033973 0 325.19196546 0 5511.26075081 0 299.52520930 0 2145.59510336 0 13453
0.11250000 0.11250000 16501.41784697 0 261.72318513 0 5242.25861934 0 -150.58804646 0 2361.56079894 0 13668
0.11350000 0.11349100 15992.09090532 0 235.70765074 0 5451.04944844 0 1.12613294 0 1988.22415071 0 13791
0.11450000 0.11448600 15644.41990601 0 553.93069496 0 5512.00259657 0 -252.35710557 0 2225.90267527 0 14205
0.11550000 0.11549300 15291.65563729 0 506.05617691 0 5350.90027046 0 -78.72987635 0 1839.31245422 0 14776
0.11650000 0.11649800 15044.52134734 0 125.41733045 0 5222.19556677 0 -137.11856332 0 1320.06470953 0 14553
0.11750000 0.11747300 14897.70232024 0 120.40931794 0 5665.53145250 0 189.90144296 0 699.03794064 0 14568
0.11850000 0.11849100 14802.81249654 0 190.78944342 0 5319.65416982 0 54.79804276 0 -28.73146495 0 16015
0.11950000 0.11950300 14490.79438316 0 283.50134082 0 5060.53962441 0 490.44419891 0 922.97128116 0 15270
0.12050000 0.12050700 14234.69151010 0 211.76374832 0 4856.10021896 0 311.09025257 0 434.38058943 0 15999
0.12150000 0.12150000 14077.35377443 0 210.14829613 0 4630.59017938 0 737.42790525 0 1112.62470405 0 15670
0.12250000 0.12250700 14075.13930946 0 28.51533317 0 4418.82089490 0 720.05653484 0 634.44199764 0 16887
0.12350000 0.12352200 13965.85546350 0 71.89891627 0 4389.78925922 0 215.42979507 0 859.94760829 0 16407
0.12450000 0.12449800 13866.64743313 0 43.27883891 0 3931.07391431 0 -352.59486215 0 544.34427613 0 16306
0.12550000 0.12549900 13778.06883458 0 169.87271460 0 3948.02564361 0 316.74045992 0 1118.83627827 0 17523
0.12650000 0.12650100 13934.63150751 0 -126.19903659 0 3888.13543867 0 -289.88564331 0 524.53920873 0 17154
0.12750000 0.12750600 13748.83789706 0 124.50386366 0 3540.16548659 0 454.48682406 0 -166.09926630 0 18007
0.12850000 0.12850300 13787.36958743 0 183.72640741 0 3561.38006094 0 -247.25387106 0 -616.15826767 0 17496
0.12950000 0.12949900 13381.23671308 0 211.34964337 0 3401.11923152 0 336.66400120 0 -782.60520497 0 18405
0.13050000 0.13049000 13444.79185754 0 245.96837415 0 3422.16772100 0 -233.53636784 0 -951.46480185 0 18100
0.13150000 0.13148800 12909.00205956 0 391.35132072 0 3592.42685973 0 -246.57070862 0 -534.88408180 0 19059
0.13250000 0.13249300 12796.17506966 0 494.63950279 0 3542.41316853 0 -478.36650700 0 -432.56472816 0 18957
0.13350000 0.13349100 12422.92700002 0 191.10832637 0 4157.75762033 0 373.20931650 0 63.69133405 0 19468
0.13450000 0.13450700 12402.44319911 0 70.69203287 0 3761.85557411 0 585.62301029 0 236.87799547 0 19953
0.13550000 0.13551000 12291.05561143 0 45.96564925 0 3818.56802183 0 772.13964355 0 247.35020029 0 19956
0.13650000 0.13649900 12137.70391270 0 156.34011921 0 3428.86647751 0 84.40643583 0 114.87204830 0 19723
0.13750000 0.13749600 12031.29887119 0 226.05258350 0 3741.41606249 0 422.71368076 0 375.63194117 0 20946
0.13850000 0.13851100 12125.19218565 0 10.34655607 0 3618.54647398 0 -249.88576267 0 582.97229572 0 20955
0.13950000 0.13949800 11801.88030095 0 182.19953382 0 3536.54483637 0 -55.55605412 0 731.68358313 0 20506
0.14050000 0.14048300 11774.86382839 0 226.67816985 0 3846.53671432 0 -192.81457162 0 525.41835132 0 21447
0.14150000 0.14148400 11654.28621111 0 296.38066905 0 3692.44316982 0 -74.54907722 0 710.14016073 0 21771
0.14250000 0.14249400 11343.48605345 0 376.63509380 0 3629.54129253 0 176.85935156 0 653.88167833 0 22470
0.14350000 0.14350900 11168.32187482 0 91.70841261 0 3747.82693856 0 262.88467201 0 881.03485091 0 22519
0.14450000 0.14449900 11088.71185938 0 -32.42973216 0 3536.44518545 0 336.07052459 0 545.11048101 0 22218
0.14550000 0.14550500 11121.48594084 0 -44.81955291 0 3250.93421768 0 506.80909499 0 297.33621068 0 23559
0.14650000 0.14650700 11075.53579284 0 -41.11187422 0 3325.80527810 0 336.99949265 0 701.59343320 0 23044
0.14750000 0.14750500 11210.50743238 0 -10.51262987 0 2731.44288184 0 257.24885867 0 -151.18595200 0 23649
0.14850000 0.14849900 10842.36370449 0 209.56810631 0 2743.45635426 0 141.41683982 0 143.83282109 0 23640
0.14950000 0.14949500 10887.54986207 0 467.21224698 0 2843.01869903 0 -400.18371422 0 -386.32227078 0 24457
0.15050000 0.15050000 10366.50840076 0 375.96078922 0 2984.11333420 0 -331.59951983 0 -239.10131830 0 24591
0.15150000 0.15149900 10269.01658073 0 240.89392768 0 3084.93792400 0 -332.70232338 0 -369.71267632 0 25020
0.15250000 0.15250500 10006.46961463 0 152.96084567 0 3282.18031832 0 -324.85536678 0 -433.69631975 0 25297
0.15350000 0.15350100 10041.82354777 0 252.44014801 0 3560.10674359 0 102.33053670 0 -106.51742560 0 25452
0.15450000 0.15450400 9743.83406993 0 118.32882810 0 3171.08061109 0 444.50844494 0 -76.96096173 0 26061
0.15550000 0.15549900 9635.34743136 0 122.37908452 0 3155.81187516 0 500.39157553 0 -75.12771691 0 26128
0.15650000 0.15649500 9593.07329520 0 41.27840199 0 2944.75121947 0 300.00353373 0 -245.62291761 0 26331
0.15750000 0.15749700 9404.35659099 0 113.35403256 0 3093.44146946 0 101.40322949 0 -198.99403611 0 27345
0.15850000 0.15849900 9400.60307288 0 207.39350171 0 2998.50735646 0 -215.16295204 0 46.83803772 0 26980
0.15950000 0.15949700 9190.31747992 0 129.47090857 0 3109.10880908 0 65.01237313 0 253.06573436 0 27777
0.16050000 0.16050000 9240.04329068 0 180.48443071 0 3138.50583147 0 -32.56160355 0 269.78494483 0 28224
0.16150000 0.16150500 9225.21744775 0 67.45481726 0 3111.53364821 0 218.78360225 0 340.59024758 0 28075
0.16250000 0.16249700 9091.80700601 0 2.36518145 0 3302.34302181 0 170.29014125 0 534.87300948 0 28590
0.16350000 0.16349900 9150.37960430 0 140.41479442 0 3021.75923858 0 178.28325253 0 187.92171129 0 29163
0.16450000 0.16449100 9118.15913908 0 35.62022256 0 3369.43023789 0 60.56982424 0 423.57400040 0 28996
0.16550000 0.16550500 9021.94063640 0 82.30490858 0 3174.91163547 0 106.75780578 0 744.15212811 0 30777
0.16650000 0.16650700 8970.74220644 0 196.92129690 0 3107.60297290 0 128.60062384 0 860.41375317 0 29211
0.16750000 0.16749900 8776.19038705 0 83.88758669 0 2889.17922120 0 186.72257851 0 964.57221997 0 30922
0.16850000 0.16850800 8830.97625026 0 9.76800496 0 2734.11131212 0 389.88534491 0 887.42911849 0 30867
0.16950000 0.16949900 8642.56957114 0 53.62005812 0 2425.66955964 0 330.38045687 0 369.61081093 0 30852
0.17050000 0.17049200 8629.26063671 0 161.49650087 0 2385.94205820 0 122.45105463 0 461.11471770 0 31257
0.17150000 0.17149500 8509.90097517 0 73.93102005 0 2145.15221036 0 -27.65645293 0 161.47546346 0 32608
0.17250000 0.17250900 8339.70827038 0 103.81511401 0 2018.78376721 0 -50.42414229 0 145.20357490 0 32361
0.17350000 0.17350400 8345.78697670 0 117.79514205 0 2037.21918803 0 -3.55503562 0 176.59250853 0 32508
0.17450000 0.17449800 8279.82913776 0 108.32863650 0 2245.07994185 0 192.65180845 0 37.83358029 0 32791
0.17550000 0.17549800 8122.93429508 0 33.54006489 0 1950.12428101 0 245.89640404 0 516.14306482 0 33633
0.17650000 0.17650100 8156.94847692 0 92.07258137 0 2147.21166278 0 318.72572776 0 334.11736649 0 33984
0.17750000 0.17750300 8054.64019560 0 137.52823934 0 1962.85745455 0 172.43374333 0 543.49059989 0 34069
0.17850000 0.17849800 7911.35324012 0 162.60926952 0 1914.60426299 0 212.97948958 0 785.86379017 0 34536
