### header ###
fiducial parameters:
Omega_m = 0.31
Omega_nu = 0
Omega_de = 0.69
Omega_k = 0
H_0 = 100
w_de = -1
zeff = 0
beta = 0
fgrowth = 0
b_1 = 2
gamma = 0.55
Lx = 3500 Ly = 3500 Lz = 3500
nx = 700 ny = 700 nz = 700
xoffset = -685.467585 yoffset = -31.7331281 zoffset = 572.489161
bins = 400 dk = 0.001
kx_ny = 0.628318531 ky_ny = 0.628318531 kz_ny = 0.628318531
############################
A(data) = 8.0876477 (not used)
A(ran) = 8.08919276 (used)
Ngal = 480689
weighted Ngal = 0
Nran = 23820508
weighted Nran = 0
SN(data) = 3485.85511
SN(ran) = 70.4598026
SN(data+ran) = 3556.31491
############################
13 columns: k_central k_mean P_0(k) sigma^{lin}_{P_0(k)} P^img_1(k) sigma^{lin}_{P_1(k)} P_2(k) sigma^{lin}_{P_2(k)} P^img_3(k) sigma^{lin}_{P_3(k)} P_4(k) sigma^{lin}_{P_4(k)} N_modes
### header ###
0.00050000 0 0 0 0 0 0 0 0 0 0 0 0
0.00150000 0.00179520 11663.69768721 0 -11871.30377756 0 -7592.24883885 0 19907.37568444 0 -8813.36018147 0 3
0.00250000 0.00253879 30407.92564945 0 -18022.09093757 0 980.92161480 0 -27555.36260642 0 -27291.28765950 0 6
0.00350000 0.00331552 42983.76145522 0 -26193.24520723 0 -27323.72957121 0 7524.57478955 0 63984.19704575 0 7
0.00450000 0.00420575 57836.62085994 0 -22685.20053494 0 -13290.66509606 0 -30352.23185561 0 -3545.75701062 0 24
0.00550000 0.00557378 70191.78523208 0 -7001.30779095 0 -1751.35390586 0 -23823.32480305 0 -15705.98203200 0 45
0.00650000 0.00659388 57343.68095902 0 11044.01288409 0 22289.36492267 0 -15325.64767448 0 -4475.15688358 0 40
0.00750000 0.00754703 62807.31964078 0 4946.40610018 0 5655.11239485 0 -26901.32037938 0 -19711.94915139 0 57
0.00850000 0.00846663 54436.97424763 0 5738.94096605 0 17426.84275532 0 -7947.60403158 0 -9686.16940228 0 75
0.00950000 0.00948925 59097.75865679 0 14299.02171730 0 29941.67005134 0 -13326.65015172 0 -1900.86350789 0 112
0.01050000 0.01054430 51369.94027286 0 2738.47380810 0 38893.20177422 0 -4671.08167124 0 28889.57774707 0 105
0.01150000 0.01145670 57425.72688592 0 2021.17538937 0 50765.50206101 0 25157.53994369 0 25533.99898753 0 144
0.01250000 0.01249090 63672.62182536 0 -2297.69562939 0 61582.27762284 0 32462.50624280 0 38735.42114555 0 169
0.01350000 0.01339930 71316.29054066 0 -5380.79554747 0 76923.42655207 0 30906.18026629 0 24562.62393119 0 180
0.01450000 0.01448870 77187.61222224 0 -557.92558975 0 75979.17869154 0 28561.94765568 0 28786.71584950 0 267
0.01550000 0.01550050 82216.21926188 0 4685.44247653 0 79725.94268692 0 18131.15333703 0 42339.57359727 0 238
0.01650000 0.01653350 72984.44699784 0 2436.37649774 0 66307.06006946 0 14505.74202166 0 34230.42434659 0 315
0.01750000 0.01747870 76506.33207615 0 2987.96650324 0 61877.68724900 0 18373.19435757 0 22793.15570192 0 297
0.01850000 0.01844180 73241.87854987 0 -4279.11030034 0 42553.60163601 0 17690.25336275 0 -877.85709369 0 388
0.01950000 0.01947590 75423.45870889 0 -3757.38235488 0 19792.44495282 0 29651.79658758 0 991.00628824 0 399
0.02050000 0.02045430 75252.16984394 0 49.11937953 0 16673.59249790 0 2017.31114801 0 -19607.53712835 0 462
0.02150000 0.02154770 77009.79068566 0 377.50870023 0 6416.89941470 0 4939.10943813 0 -10475.77010207 0 571
0.02250000 0.02255340 73384.04720054 0 -3459.20464752 0 4301.23280533 0 2315.31169818 0 -3870.82939497 0 510
0.02350000 0.02348930 79421.23230791 0 244.46585967 0 13202.08649751 0 3878.75717954 0 1667.64713024 0 555
0.02450000 0.02439640 80568.43588237 0 -816.74671855 0 13876.39107897 0 -2419.00402010 0 1343.83699091 0 592
0.02550000 0.02547300 80431.80339411 0 4988.63594704 0 23897.06648634 0 4431.01152452 0 9841.17087741 0 837
0.02650000 0.02652900 74848.14071131 0 7244.47818862 0 21602.54861417 0 -4518.54932454 0 27135.05715630 0 723
0.02750000 0.02749970 75282.50801395 0 3006.01439269 0 28936.41368105 0 4205.02537498 0 8552.70658292 0 826
0.02850000 0.02848090 66367.51496297 0 3134.45336059 0 34531.48085841 0 4339.56519385 0 20613.56856137 0 831
0.02950000 0.02946900 70207.61865657 0 2020.30067571 0 35061.51304748 0 4769.72501305 0 17535.90515478 0 996
0.03050000 0.03053250 65757.87275845 0 -2185.67691920 0 27313.76447888 0 3790.20072565 0 20777.10679894 0 1041
0.03150000 0.03150510 68578.65822925 0 1787.01786411 0 33802.81116209 0 7183.53611282 0 23454.06277035 0 1036
0.03250000 0.03246190 67207.90441670 0 238.21331785 0 23679.49530365 0 11067.88481639 0 14255.61820401 0 1059
0.03350000 0.03345080 67495.78486199 0 -161.04807172 0 27501.10821481 0 8136.75255645 0 16661.08077086 0 1302
0.03450000 0.03451200 65657.22532585 0 4478.76646147 0 30370.83336131 0 -1370.46593210 0 17091.46203656 0 1339
0.03550000 0.03553350 61930.39151514 0 4779.41329727 0 28133.00579221 0 742.90981326 0 12446.28960539 0 1365
0.03650000 0.03647120 57862.86226976 0 3527.48767467 0 27012.37579731 0 -2749.97795358 0 11891.34468548 0 1308
0.03750000 0.03744890 57401.81066432 0 1502.27088674 0 27748.35322801 0 -763.92176407 0 14462.22778512 0 1579
0.03850000 0.03847530 54684.44070732 0 1046.90824179 0 28612.99107310 0 6691.50414252 0 9077.86694906 0 1662
0.03950000 0.03950240 53784.59286931 0 2580.17278016 0 19804.07089388 0 3982.72630959 0 4397.46238032 0 1683
0.04050000 0.04050350 50492.56925423 0 3575.38655184 0 17988.09890037 0 4495.00956198 0 3842.19636299 0 1822
0.04150000 0.04152450 47887.14050116 0 2276.52534434 0 18589.76903102 0 2740.62183911 0 2037.09739246 0 1887
0.04250000 0.04250150 44620.91540290 0 4539.59781402 0 18076.45605243 0 506.46363846 0 5010.28234206 0 1920
0.04350000 0.04349210 42003.52853902 0 1610.34784930 0 15912.48088987 0 2367.22982925 0 8175.62748889 0 2005
0.04450000 0.04448520 42913.56291587 0 -1201.25866422 0 18778.99506217 0 1466.92802592 0 8270.62803584 0 2151
0.04550000 0.04548030 42137.61439258 0 -479.55788915 0 14362.68758500 0 4427.41301896 0 4985.84572119 0 2274
0.04650000 0.04648670 44772.49552967 0 -981.69889200 0 15901.63001155 0 3503.09534310 0 7065.48298560 0 2311
0.04750000 0.04749250 43039.01235606 0 -106.86398937 0 10793.16936532 0 2159.29156916 0 4693.28168250 0 2568
0.04850000 0.04851840 43484.89487651 0 1007.14198720 0 13006.54924122 0 2378.44609429 0 4596.76422706 0 2493
0.04950000 0.04949480 41709.66903834 0 2078.05392196 0 10078.82725732 0 404.63921773 0 2548.55022048 0 2644
0.05050000 0.05050630 40164.52610989 0 1802.91772254 0 10003.01504929 0 -1092.63029989 0 2848.15625775 0 2829
0.05150000 0.05149060 37427.89030772 0 1498.35128376 0 9557.42040928 0 -981.61695680 0 783.64157457 0 2784
0.05250000 0.05249300 36837.95684138 0 1596.20849051 0 9766.79807160 0 -2422.66895962 0 -2842.40972117 0 3055
0.05350000 0.05348950 36051.71105601 0 1608.65378360 0 11389.76837120 0 -3446.90329464 0 -2759.94304592 0 3009
0.05450000 0.05448610 36156.45524879 0 1689.23816363 0 12852.75464948 0 -2070.18149902 0 -5520.49506970 0 3336
0.05550000 0.05550870 34128.11606527 0 -76.06532138 0 12801.60050882 0 -1488.77372279 0 -3326.33674969 0 3349
0.05650000 0.05647670 35148.54152055 0 -1407.85717302 0 11867.31774063 0 2836.51924437 0 -5710.11970455 0 3324
0.05750000 0.05747970 36210.48819391 0 -712.84845138 0 12392.03521378 0 3210.96312508 0 -6276.48019135 0 3639
0.05850000 0.05849280 36168.85625259 0 1348.17734224 0 12038.38515907 0 2013.65728082 0 -4209.74218535 0 3846
0.05950000 0.05951020 34535.13472560 0 1422.57229270 0 11543.89513267 0 1064.83101397 0 -3423.26388116 0 3787
0.06050000 0.06049470 33207.23081010 0 1486.96893384 0 11991.65994834 0 427.77816214 0 -1458.44662511 0 3930
0.06150000 0.06148310 32834.31491021 0 714.13726999 0 12492.23975339 0 -87.06335090 0 -1616.92481024 0 4083
0.06250000 0.06249100 31497.11024186 0 301.05983352 0 12228.05408322 0 1339.06481892 0 -456.40344349 0 4303
0.06350000 0.06350600 32526.72572674 0 -667.95238871 0 12806.36160849 0 58.14144196 0 -1516.27737764 0 4470
0.06450000 0.06451750 32082.83622477 0 630.93539237 0 11359.31947795 0 61.84480244 0 -551.23790556 0 4479
0.06550000 0.06550280 31098.72799488 0 1327.27279299 0 11556.73902946 0 179.21000612 0 362.18460268 0 4636
0.06650000 0.06648880 30860.67301128 0 378.87945404 0 11578.10861636 0 1064.23532290 0 102.38523398 0 4653
0.06750000 0.06749660 30231.76496158 0 -365.02576123 0 11518.98240183 0 1675.80743363 0 576.74079132 0 5220
0.06850000 0.06852730 30695.47392499 0 639.97705282 0 10794.17694688 0 1341.89933407 0 -2230.84093214 0 5029
0.06950000 0.06949320 29866.26751932 0 617.26992908 0 11183.04806683 0 589.46510700 0 -914.59506744 0 5040
0.07050000 0.07048030 29735.28191672 0 726.24817888 0 11708.54060273 0 -1357.64417996 0 -589.64447866 0 5475
0.07150000 0.07148790 29277.44128546 0 855.18429416 0 10383.33833448 0 28.88736328 0 733.96005311 0 5509
0.07250000 0.07249820 29590.45590809 0 -470.48411896 0 11201.64957253 0 1058.91949975 0 -97.37290326 0 5916
0.07350000 0.07351270 28909.39720849 0 399.38539960 0 9864.99852042 0 -287.27589635 0 -1420.81179305 0 5721
0.07450000 0.07449140 29012.25910606 0 741.02198188 0 10177.11628473 0 1393.75103120 0 -1127.52805326 0 6028
0.07550000 0.07549160 28095.24916458 0 786.18488759 0 10311.62288663 0 1260.01949204 0 29.17313999 0 6183
0.07650000 0.07648840 27559.68081310 0 798.25815057 0 8497.15672930 0 1137.24955445 0 389.04606269 0 6330
0.07750000 0.07749960 26477.47178533 0 902.71999907 0 8644.24149219 0 1513.63109201 0 -909.97458629 0 6583
0.07850000 0.07848650 25405.11712664 0 848.37592163 0 8419.35150280 0 989.42294579 0 453.95092354 0 6549
0.07950000 0.07947320 25042.38776558 0 58.59728957 0 6681.90443691 0 1453.86268264 0 -697.56753590 0 6828
0.08050000 0.08048110 24864.34478250 0 54.12550975 0 6809.05901512 0 1796.23003835 0 688.29889279 0 7147
0.08150000 0.08149960 24626.95413838 0 157.01442379 0 6151.40721020 0 93.89918279 0 378.10106960 0 7386
0.08250000 0.08250610 24248.83424583 0 1038.22089573 0 6533.57957364 0 346.41761214 0 -298.71803682 0 7227
0.08350000 0.08350160 23366.48068103 0 1258.41400494 0 5872.35140779 0 -653.14869042 0 1308.88166146 0 7798
0.08450000 0.08449610 22329.22529202 0 676.41607380 0 6741.35174886 0 -222.35996317 0 2052.41041768 0 7371
0.08550000 0.08548940 22037.80170279 0 455.34382200 0 7026.57483619 0 -250.30651101 0 1875.68504125 0 8256
0.08650000 0.08650700 21744.93871134 0 437.99127455 0 7810.52865032 0 -213.62057719 0 1281.65481473 0 8037
0.08750000 0.08749060 21380.10560857 0 181.06019160 0 7834.99848817 0 -397.22408180 0 1891.69562294 0 8155
0.08850000 0.08849210 21388.07768243 0 368.92764849 0 8313.45578823 0 611.71383649 0 1376.17925171 0 8718
0.08950000 0.08949900 20895.35922800 0 50.85109113 0 8866.54055757 0 449.15107073 0 1203.76100963 0 8571
0.09050000 0.09049190 21249.23072921 0 177.46832943 0 8222.26412103 0 246.58067371 0 587.95927082 0 8932
0.09150000 0.09150830 20708.45838507 0 752.22385290 0 8861.72409628 0 51.84494301 0 1342.38651636 0 9285
0.09250000 0.09250820 20404.41234555 0 228.07549724 0 8966.65651859 0 193.08362912 0 2085.89312794 0 9204
0.09350000 0.09350330 20366.43427142 0 531.41180074 0 8672.17696771 0 -92.48258956 0 1925.43299666 0 9349
0.09450000 0.09448040 19884.45597206 0 278.88307414 0 8918.76871374 0 274.71988001 0 1895.79238312 0 9564
0.09550000 0.09549270 19652.04787412 0 502.93488854 0 9099.24760829 0 715.57224329 0 784.41331561 0 10155
0.09650000 0.09649430 19178.48454163 0 649.83142191 0 8392.30181327 0 147.20434400 0 916.28691867 0 9913
0.09750000 0.09749140 18577.92164346 0 567.11894105 0 8339.71934270 0 -190.29893943 0 506.80577330 0 10476
0.09850000 0.09850240 18026.96276049 0 633.90831159 0 7613.85094457 0 691.32053024 0 717.26520175 0 10575
0.09950000 0.09950330 17298.95740366 0 523.81064975 0 7679.01157613 0 322.07953495 0 -281.58472139 0 10882
0.10050000 0.10051200 16872.45145165 0 73.07667946 0 6444.97883044 0 1257.04103666 0 -202.73758913 0 10875
0.10150000 0.10150300 16788.30178302 0 -15.50513006 0 6507.60389961 0 909.57376813 0 -188.92707838 0 11118
0.10250000 0.10250800 17003.99067049 0 111.96667026 0 6197.63416631 0 786.99095283 0 205.16353549 0 11575
0.10350000 0.10349800 16897.36418249 0 71.68566330 0 6099.27870495 0 230.76717941 0 587.63153001 0 11364
0.10450000 0.10450100 16799.26338459 0 175.10881701 0 6208.48504464 0 304.95175569 0 1544.75539707 0 12093
0.10550000 0.10551000 16664.29174506 0 165.83463774 0 6047.34950155 0 -152.31422190 0 1501.03078636 0 12067
0.10650000 0.10649700 16590.77150826 0 112.21579757 0 6217.94081003 0 670.36394105 0 1531.42431799 0 12054
0.10750000 0.10749900 16482.92706453 0 5.60804394 0 5695.85855018 0 293.65798438 0 1520.80595849 0 12807
0.10850000 0.10850100 16222.50598479 0 546.70046685 0 5779.34387932 0 961.07336533 0 1411.54425718 0 12736
0.10950000 0.10950300 15920.01007075 0 240.30930893 0 5599.69540913 0 70.67653161 0 1092.85838979 0 12933
0.11050000 0.11050200 15392.63523963 0 340.01448669 0 5310.49735719 0 196.49944132 0 1569.10343935 0 13428
0.11150000 0.11150900 15227.54687659 0 455.02826075 0 5443.70849709 0 47.56249994 0 1152.90582174 0 13453
0.11250000 0.11250000 14837.80104297 0 358.57613202 0 5098.34054134 0 101.30778605 0 1169.01605435 0 13668
0.11350000 0.11349100 14667.73013376 0 145.24564974 0 5528.87681959 0 -179.00295365 0 1631.35204948 0 13791
0.11450000 0.11448600 14873.89682188 0 43.22845983 0 5590.81540463 0 823.37461219 0 1448.44831580 0 14205
0.11550000 0.11549300 14708.47628909 0 -4.03114559 0 5208.75376444 0 69.47750956 0 1163.33595172 0 14776
0.11650000 0.11649800 14695.18949931 0 313.06666255 0 5078.75359874 0 365.40332750 0 809.91066521 0 14553
0.11750000 0.11747300 14302.89703098 0 18.08254583 0 4528.12688551 0 82.40057347 0 738.75547699 0 14568
0.11850000 0.11849100 14411.73798395 0 92.24076998 0 4674.68017681 0 361.97201404 0 1034.98224073 0 16015
0.11950000 0.11950300 14235.35584959 0 100.15803584 0 4729.70963116 0 227.55177628 0 610.20357138 0 15270
0.12050000 0.12050700 14242.99575371 0 126.03295171 0 4147.74823869 0 172.10600252 0 -243.05524549 0 15999
0.12150000 0.12150000 13904.73623050 0 163.73975388 0 4022.30987082 0 225.37163552 0 228.09542743 0 15670
0.12250000 0.12250700 13932.63848905 0 132.53904978 0 3814.22767050 0 235.47845362 0 -454.73816584 0 16887
0.12350000 0.12352200 13675.87127650 0 205.20671756 0 4054.86250579 0 -124.08090085 0 -374.66754168 0 16407
0.12450000 0.12449800 13750.60946903 0 354.67535199 0 4513.04637911 0 -494.03827555 0 -644.28861610 0 16306
0.12550000 0.12549900 13179.94184788 0 528.62046765 0 4868.18012534 0 -694.21151425 0 -183.47506564 0 17523
0.12650000 0.12650100 13186.91741251 0 211.95308507 0 4964.48720661 0 -373.98991540 0 -21.19508706 0 17154
0.12750000 0.12750600 13017.84301253 0 -98.10290163 0 5199.39764996 0 158.88121775 0 463.08448429 0 18007
0.12850000 0.12850300 13092.02758882 0 74.28422721 0 5495.32767539 0 638.99272314 0 226.67706262 0 17496
0.12950000 0.12949900 13306.16635081 0 -33.10979435 0 5183.58637012 0 779.61567727 0 250.12381765 0 18405
0.13050000 0.13049000 13053.05300545 0 -48.55424807 0 4855.43587947 0 338.17426631 0 708.82809024 0 18100
0.13150000 0.13148800 13226.77778186 0 120.17901358 0 4703.11390694 0 365.33800079 0 283.14924089 0 19059
0.13250000 0.13249300 12820.86635401 0 290.60977335 0 4768.21917688 0 98.83832545 0 349.16576316 0 18957
0.13350000 0.13349100 12590.22982803 0 410.15434272 0 4504.95250966 0 -286.48090343 0 514.33938310 0 19468
0.13450000 0.13450700 12394.91401823 0 325.62600059 0 4737.02843786 0 -103.80182722 0 556.12633697 0 19953
0.13550000 0.13551000 12240.56581026 0 62.30552188 0 4704.76368334 0 81.03491293 0 327.17058990 0 19956
0.13650000 0.13649900 12041.04251703 0 185.26103163 0 4485.58701356 0 318.00159772 0 915.20736700 0 19723
0.13750000 0.13749600 11988.55969739 0 149.10989110 0 4362.91672689 0 210.78716927 0 468.38923511 0 20946
0.13850000 0.13851100 12088.54279050 0 16.17788452 0 4155.54315536 0 556.40425232 0 546.31404271 0 20955
0.13950000 0.13949800 11875.28981449 0 121.03047536 0 4227.15895229 0 464.66450504 0 536.77191319 0 20506
0.14050000 0.14048300 11783.27879525 0 291.05155911 0 4083.30730824 0 -33.12751007 0 105.91287667 0 21447
0.14150000 0.14148400 11470.26417263 0 352.88606430 0 4113.71191220 0 -185.49465769 0 531.08848886 0 21771
0.14250000 0.14249400 11234.42365399 0 255.45071312 0 4477.24955297 0 103.33092124 0 570.43067340 0 22470
0.14350000 0.14350900 10998.53884605 0 132.59994756 0 3924.23121757 0 89.53026487 0 680.29581641 0 22519
0.14450000 0.14449900 10969.03110041 0 90.60704846 0 4487.01534346 0 467.59867111 0 686.43209883 0 22218
0.14550000 0.14550500 10813.27670719 0 226.19984542 0 3855.57173137 0 250.98967345 0 497.60799307 0 23559
0.14650000 0.14650700 10603.53365815 0 211.70506500 0 4018.04702576 0 287.02676904 0 793.03976388 0 23044
0.14750000 0.14750500 10480.68621429 0 148.68692829 0 3878.03747843 0 -4.01898817 0 880.88648176 0 23649
0.14850000 0.14849900 10393.05983567 0 148.55848932 0 4014.96891946 0 174.90619346 0 1184.61696002 0 23640
0.14950000 0.14949500 10448.68719556 0 -75.19514737 0 3520.14672332 0 226.52758623 0 689.31754668 0 24457
0.15050000 0.15050000 10341.06419832 0 -17.85390232 0 3717.66592576 0 423.73122741 0 707.91905237 0 24591
0.15150000 0.15149900 10380.44845770 0 61.48760925 0 3461.34160621 0 121.41025610 0 459.89011857 0 25020
0.15250000 0.15250500 10247.76878940 0 259.94275530 0 3442.62937726 0 -56.77622431 0 441.49012919 0 25297
0.15350000 0.15350100 9883.98755749 0 419.19821763 0 3245.35376597 0 -156.45084245 0 427.86895520 0 25452
0.15450000 0.15450400 9489.40311792 0 348.08288979 0 3434.62408642 0 258.19111352 0 645.15004298 0 26061
0.15550000 0.15549900 9350.55616470 0 135.43556995 0 3476.00136427 0 -126.91430877 0 1007.94473075 0 26128
0.15650000 0.15649500 9327.55894605 0 39.16336650 0 3469.50190960 0 352.48303167 0 518.35420808 0 26331
0.15750000 0.15749700 9350.33471820 0 -3.85626929 0 3532.44807619 0 130.77965736 0 807.11711766 0 27345
0.15850000 0.15849900 9370.94031469 0 10.57388197 0 3560.69357680 0 -128.18430443 0 331.90733046 0 26980
0.15950000 0.15949700 9390.93693331 0 90.25583431 0 3661.47387730 0 -77.93477270 0 793.38854211 0 27777
0.16050000 0.16050000 9372.98869478 0 76.75678806 0 3599.59065389 0 -129.18745705 0 389.14460638 0 28224
0.16150000 0.16150500 9266.36220678 0 84.69021952 0 3508.67579481 0 230.03197704 0 813.10724538 0 28075
0.16250000 0.16249700 9263.10694328 0 57.75601434 0 3233.56174004 0 400.78383423 0 363.47452852 0 28590
0.16350000 0.16349900 9235.64757773 0 128.32713742 0 3218.03834064 0 217.44052925 0 443.36688825 0 29163
0.16450000 0.16449100 8980.19797184 0 256.29885320 0 3142.20398796 0 262.23029761 0 396.92955796 0 28996
0.16550000 0.16550500 8774.60704461 0 235.08981501 0 2880.65353109 0 134.82991378 0 437.36679543 0 30777
0.16650000 0.16650700 8624.30023519 0 63.64704476 0 2715.24407063 0 349.00853614 0 502.97917784 0 29211
0.16750000 0.16749900 8595.74470949 0 -3.99723106 0 2567.49496825 0 403.09573565 0 506.69615728 0 30922
0.16850000 0.16850800 8663.69556690 0 3.23639626 0 2388.71013940 0 471.59467314 0 464.28140260 0 30867
0.16950000 0.16949900 8484.22425391 0 39.83069552 0 2248.18019280 0 64.80177751 0 432.20155590 0 30852
0.17050000 0.17049200 8523.50886237 0 114.77350461 0 2323.23948275 0 -236.77613008 0 544.30773746 0 31257
0.17150000 0.17149500 8402.15618236 0 164.09738997 0 2449.48613033 0 -305.53748167 0 358.45876538 0 32608
0.17250000 0.17250900 8347.93500772 0 117.65230906 0 2632.26806844 0 -338.91057591 0 483.55721287 0 32361
0.17350000 0.17350400 8278.92120712 0 188.05236472 0 2729.11769362 0 -184.55572454 0 209.49724343 0 32508
0.17450000 0.17449800 8252.96767775 0 40.88455939 0 2964.61497019 0 53.16819655 0 477.39214242 0 32791
0.17550000 0.17549800 8144.09350781 0 106.03179344 0 2922.94981190 0 311.94946498 0 443.88507305 0 33633
0.17650000 0.17650100 8029.61674151 0 159.80464964 0 2726.51569729 0 423.83530727 0 407.33532882 0 33984
0.17750000 0.17750300 7814.03857729 0 173.05711522 0 2500.16416102 0 406.10851523 0 430.15760474 0 34069
0.17850000 0.17849800 7809.86431083 0 40.92120879 0 2186.06445057 0 447.51901006 0 514.46450037 0 34536
