### header ###
fiducial parameters:
Omega_m = 0.31
Omega_nu = 0
Omega_de = 0.69
Omega_k = 0
H_0 = 100
w_de = -1
zeff = 0
beta = 0
fgrowth = 0
b_1 = 2
gamma = 0.55
Lx = 3500 Ly = 3500 Lz = 3500
nx = 700 ny = 700 nz = 700
xoffset = -685.467585 yoffset = -31.7331281 zoffset = 572.489161
bins = 400 dk = 0.001
kx_ny = 0.628318531 ky_ny = 0.628318531 kz_ny = 0.628318531
############################
A(data) = 8.06318155 (not used)
A(ran) = 8.05369505 (used)
Ngal = 478961
weighted Ngal = 0
Nran = 23820508
weighted Nran = 0
SN(data) = 3497.74909
SN(ran) = 70.1506047
SN(data+ran) = 3567.8997
############################
13 columns: k_central k_mean P_0(k) sigma^{lin}_{P_0(k)} P^img_1(k) sigma^{lin}_{P_1(k)} P_2(k) sigma^{lin}_{P_2(k)} P^img_3(k) sigma^{lin}_{P_3(k)} P_4(k) sigma^{lin}_{P_4(k)} N_modes
### header ###
0.00050000 0 0 0 0 0 0 0 0 0 0 0 0
0.00150000 0.00179520 40092.44527533 0 -11393.86513138 0 29210.01082732 0 -6818.64764842 0 160.90302426 0 3
0.00250000 0.00253879 46118.55805787 0 19522.50167374 0 28982.80672204 0 25066.19326394 0 16223.94538702 0 6
0.00350000 0.00331552 50418.82757094 0 9620.18941868 0 51117.26982050 0 35087.20084106 0 98248.83487603 0 7
0.00450000 0.00420575 47198.44189744 0 -3682.73274096 0 69585.46472501 0 46538.08844525 0 17022.70289944 0 24
0.00550000 0.00557378 69756.86431320 0 711.75893462 0 87873.18073497 0 77100.80519567 0 15531.37146961 0 45
0.00650000 0.00659388 87598.47635622 0 14448.60882560 0 123752.05280056 0 90717.10736464 0 50343.53576217 0 40
0.00750000 0.00754703 70345.35837731 0 9819.03730010 0 101791.42520176 0 68971.28286732 0 53780.93900212 0 57
0.00850000 0.00846663 76193.87106977 0 11312.70499046 0 114849.90364637 0 77272.86912335 0 55109.95015010 0 75
0.00950000 0.00948925 72614.40990240 0 1692.43806550 0 96153.17595761 0 59854.10916515 0 49298.64046904 0 112
0.01050000 0.01054430 70097.78119437 0 3717.32268369 0 87014.41122204 0 49287.23597447 0 43323.34965741 0 105
0.01150000 0.01145670 73262.14090429 0 504.18384678 0 75445.49263528 0 22277.96042811 0 38001.10456358 0 144
0.01250000 0.01249090 70907.72175485 0 1405.31053831 0 58783.52607843 0 20402.53005033 0 -2133.31589513 0 169
0.01350000 0.01339930 73701.04786010 0 -1062.18029941 0 37293.91517741 0 10133.98957957 0 -5876.11599823 0 180
0.01450000 0.01448870 74421.52403605 0 -2835.00233587 0 48955.39839966 0 -4077.61613329 0 -16918.95521588 0 267
0.01550000 0.01550050 82855.20312716 0 4541.21437344 0 52902.46075101 0 1824.01050132 0 -7469.97715587 0 238
0.01650000 0.01653350 79082.86206145 0 3689.34291887 0 54358.02857167 0 11713.19097915 0 -14479.83278158 0 315
0.01750000 0.01747870 81334.75148307 0 -2014.74236865 0 54956.81989786 0 14106.03109571 0 16112.00418310 0 297
0.01850000 0.01844180 87620.62100586 0 -11286.35285739 0 39519.45246596 0 21010.17923637 0 -12846.66487083 0 388
0.01950000 0.01947590 91860.98924166 0 -802.94506566 0 37760.94583826 0 14462.55995487 0 -6768.94398231 0 399
0.02050000 0.02045430 91937.38828291 0 9146.14997622 0 37980.62076267 0 965.38271415 0 -1925.11189924 0 462
0.02150000 0.02154770 78028.11239923 0 13867.64394236 0 38185.45877181 0 -4629.83726129 0 10355.29213572 0 571
0.02250000 0.02255340 71307.43268081 0 3416.55405232 0 29315.19791310 0 -393.03763578 0 1614.67712830 0 510
0.02350000 0.02348930 70252.35084884 0 -2493.76435728 0 35748.99369547 0 9699.79943413 0 -4588.40462182 0 555
0.02450000 0.02439640 78246.34792140 0 -6141.75214295 0 42918.98835503 0 12786.32070057 0 -9456.76190436 0 592
0.02550000 0.02547300 77274.52997207 0 -2135.59679405 0 34358.64186799 0 12643.48771041 0 3749.22205149 0 837
0.02650000 0.02652900 79327.56043994 0 4213.98288575 0 32090.80829863 0 9072.12041248 0 3168.10215571 0 723
0.02750000 0.02749970 73379.28610087 0 9011.62122967 0 37217.40541292 0 -136.95801461 0 9340.21461332 0 826
0.02850000 0.02848090 68552.30609618 0 9302.08152664 0 32981.90900004 0 5139.90604871 0 21664.99652615 0 831
0.02950000 0.02946900 60398.42465323 0 3489.24386475 0 25334.14352455 0 10562.22281425 0 26270.86220421 0 996
0.03050000 0.03053250 54351.16373028 0 623.93103969 0 26820.71385470 0 13670.33511409 0 17157.78526222 0 1041
0.03150000 0.03150510 57645.18036383 0 -1149.45125640 0 19331.72551712 0 14852.52723498 0 13178.61316890 0 1036
0.03250000 0.03246190 55556.49701004 0 3034.27096563 0 15030.23804832 0 2749.25825247 0 9335.23206715 0 1059
0.03350000 0.03345080 52559.99374437 0 3004.59713511 0 8145.09001704 0 -3067.52115706 0 13693.36554972 0 1302
0.03450000 0.03451200 50362.24799112 0 -273.21293660 0 16168.91593267 0 -5976.86308175 0 11150.60615511 0 1339
0.03550000 0.03553350 51234.85791007 0 127.38709704 0 13271.73142062 0 497.12745417 0 7448.24218226 0 1365
0.03650000 0.03647120 53188.56962432 0 216.54809987 0 18960.02757295 0 118.42515733 0 9305.21499456 0 1308
0.03750000 0.03744890 51405.70388203 0 124.24920018 0 14197.70994521 0 4753.68121439 0 12321.39378144 0 1579
0.03850000 0.03847530 52885.74154053 0 -442.85977577 0 14003.50136789 0 728.92325255 0 443.85407054 0 1662
0.03950000 0.03950240 49838.30558070 0 4083.73912891 0 14301.23618226 0 -664.77573872 0 2094.59597524 0 1683
0.04050000 0.04050350 46250.87233946 0 3982.96990074 0 15108.96227778 0 -592.98278459 0 1339.77344771 0 1822
0.04150000 0.04152450 44902.37389979 0 148.13441928 0 12614.25677289 0 -1584.62683875 0 -871.94668670 0 1887
0.04250000 0.04250150 46239.13567515 0 -1642.71225474 0 15868.30231384 0 -281.91799837 0 -1068.05195326 0 1920
0.04350000 0.04349210 46911.44723814 0 -698.22523199 0 16252.95487804 0 1673.30508822 0 -7678.92299753 0 2005
0.04450000 0.04448520 46677.04612173 0 2523.48247709 0 16280.85713659 0 -1797.58086198 0 -969.63670134 0 2151
0.04550000 0.04548030 45229.89326793 0 2841.33570566 0 19792.99856906 0 -2295.76904487 0 -410.50976435 0 2274
0.04650000 0.04648670 41749.30796119 0 898.20359778 0 18520.78844740 0 2697.20725350 0 1492.02898629 0 2311
0.04750000 0.04749250 42182.56803134 0 1147.87898627 0 17510.54953094 0 4369.87014688 0 2322.40905839 0 2568
0.04850000 0.04851840 41265.77953636 0 -488.52204332 0 14622.88721824 0 5627.96305439 0 -92.82871043 0 2493
0.04950000 0.04949480 38993.95993007 0 756.08145087 0 11488.64423183 0 3671.05143827 0 -292.19422303 0 2644
0.05050000 0.05050630 39502.73325548 0 921.50862705 0 8594.71498328 0 999.51869156 0 -3519.52667313 0 2829
0.05150000 0.05149060 37026.51853304 0 1127.76057208 0 5982.97500505 0 3313.69215475 0 11.92777263 0 2784
0.05250000 0.05249300 37419.58606410 0 -320.04887058 0 4753.49298487 0 -111.18385690 0 -3177.51363181 0 3055
0.05350000 0.05348950 36670.65401337 0 -324.37482789 0 5741.57617936 0 2560.94015195 0 -887.99602153 0 3009
0.05450000 0.05448610 37983.16739737 0 104.30705740 0 6882.61246889 0 695.99305131 0 -3942.86594024 0 3336
0.05550000 0.05550870 36681.17272195 0 2692.40186453 0 8631.66333120 0 -957.65755312 0 1417.95513325 0 3349
0.05650000 0.05647670 35162.49264982 0 2483.73283099 0 9628.71510879 0 40.26982392 0 5714.99152747 0 3324
0.05750000 0.05747970 32846.05157451 0 1647.79445184 0 9111.36073164 0 -753.67986362 0 3866.46689900 0 3639
0.05850000 0.05849280 31827.95130744 0 1572.41406447 0 11300.41470991 0 -650.99290878 0 4324.60648302 0 3846
0.05950000 0.05951020 31278.09965695 0 1134.82471531 0 11234.86654698 0 -377.58509927 0 626.88402872 0 3787
0.06050000 0.06049470 29506.08479297 0 514.98600687 0 10914.34488813 0 -583.48715883 0 4300.69026141 0 3930
0.06150000 0.06148310 30626.49334137 0 -1078.93937026 0 10179.57434084 0 1438.81539321 0 1258.87904258 0 4083
0.06250000 0.06249100 31803.59219284 0 -1784.64838659 0 9918.69929579 0 2582.11043701 0 1246.45589413 0 4303
0.06350000 0.06350600 33279.53309116 0 -907.63943299 0 8393.02151438 0 1511.10660195 0 957.99083010 0 4470
0.06450000 0.06451750 34126.56593979 0 -500.49233368 0 9518.53440452 0 -1034.50391629 0 34.82168649 0 4479
0.06550000 0.06550280 33926.26758382 0 814.96185979 0 8498.52969758 0 -2443.97211257 0 126.33190448 0 4636
0.06650000 0.06648880 32307.93658833 0 2164.28518765 0 11328.98130794 0 -3229.80822192 0 1566.23570722 0 4653
0.06750000 0.06749660 31246.32208472 0 1419.23952293 0 11795.12618281 0 -2218.55065159 0 -731.24290460 0 5220
0.06850000 0.06852730 30333.07673367 0 991.50897179 0 13504.58241156 0 -518.41953480 0 -70.53790611 0 5029
0.06950000 0.06949320 29652.79309682 0 797.27714259 0 12298.03117607 0 3359.91911087 0 -976.21587675 0 5040
0.07050000 0.07048030 29692.32129642 0 -417.38124913 0 11936.74121724 0 3045.85261739 0 -1385.60180013 0 5475
0.07150000 0.07148790 28583.53868908 0 499.83242313 0 9698.08322378 0 3130.82163805 0 -258.32951758 0 5509
0.07250000 0.07249820 28918.25506835 0 840.52896503 0 10322.28553543 0 2062.32014840 0 713.17508496 0 5916
0.07350000 0.07351270 27215.22078799 0 451.09094204 0 8968.37272893 0 394.37849432 0 1933.22791334 0 5721
0.07450000 0.07449140 27171.81727470 0 881.53531999 0 9239.34573422 0 781.19901972 0 1585.84479448 0 6028
0.07550000 0.07549160 27156.75891295 0 -67.48903074 0 9284.26615601 0 -1697.70849212 0 1892.27138383 0 6183
0.07650000 0.07648840 27132.84269134 0 38.21147874 0 10172.35518506 0 -234.96359051 0 1828.64980542 0 6330
0.07750000 0.07749960 27196.84072879 0 741.05741332 0 10273.33478741 0 -1138.79967992 0 2646.10847446 0 6583
0.07850000 0.07848650 26803.55175123 0 661.36656990 0 9560.05562259 0 1905.94570498 0 2910.19449371 0 6549
0.07950000 0.07947320 26058.60573744 0 199.17672947 0 10567.86969991 0 1422.80481152 0 1595.73238054 0 6828
0.08050000 0.08048110 25843.58118946 0 1306.50111163 0 10752.15747419 0 1149.65055824 0 1925.93125128 0 7147
0.08150000 0.08149960 24291.01980339 0 1356.90233420 0 10178.75498881 0 751.47204205 0 2867.11207784 0 7386
0.08250000 0.08250610 23205.37835492 0 648.97885290 0 9075.89607525 0 1578.41526452 0 4170.72331269 0 7227
0.08350000 0.08350160 23285.54198661 0 -381.92434336 0 9063.34005890 0 915.80859424 0 4633.05930782 0 7798
0.08450000 0.08449610 23256.31104908 0 -567.36806836 0 8780.12106237 0 929.22714469 0 1771.56089866 0 7371
0.08550000 0.08548940 23538.32316222 0 109.57349798 0 8559.75965382 0 132.47593753 0 2504.06161936 0 8256
0.08650000 0.08650700 23271.36941084 0 616.74288642 0 8248.78233897 0 -265.92070347 0 1006.28277480 0 8037
0.08750000 0.08749060 22885.72033740 0 437.18963823 0 8508.70516409 0 -76.08469795 0 1749.50482762 0 8155
0.08850000 0.08849210 22207.54044226 0 501.31943635 0 7916.97798113 0 175.50631347 0 1738.12247771 0 8718
0.08950000 0.08949900 22520.66578813 0 281.13297054 0 7435.89654008 0 1574.90533755 0 1368.31790109 0 8571
0.09050000 0.09049190 21942.13681636 0 432.39642882 0 7342.22467212 0 663.29315442 0 2086.80105857 0 8932
0.09150000 0.09150830 21332.71605834 0 536.75419747 0 6300.57357015 0 1674.36803140 0 1988.72240533 0 9285
0.09250000 0.09250820 20677.67732207 0 676.74160015 0 5792.66388607 0 792.41307030 0 2651.91037266 0 9204
0.09350000 0.09350330 20381.93552616 0 284.48456326 0 5963.99704032 0 -44.43113576 0 2291.82729724 0 9349
0.09450000 0.09448040 19783.80853946 0 281.52603807 0 5897.68488698 0 677.96841374 0 2940.78732718 0 9564
0.09550000 0.09549270 19875.04449597 0 462.01379048 0 5516.55332207 0 -583.39636576 0 2328.93065770 0 10155
0.09650000 0.09649430 19672.53167503 0 380.86361465 0 6774.11475800 0 -15.16388101 0 2838.30188866 0 9913
0.09750000 0.09749140 19610.19448630 0 408.67729459 0 6507.19422359 0 -213.30723040 0 2699.33313986 0 10476
0.09850000 0.09850240 18840.33574166 0 561.69350189 0 6563.47485065 0 548.30484672 0 2861.15516709 0 10575
0.09950000 0.09950330 18741.01698804 0 455.83764769 0 6863.94452925 0 -0.52799156 0 2780.09467709 0 10882
0.10050000 0.10051200 17987.32383764 0 634.20837159 0 6904.02634509 0 -155.86843817 0 2204.88740276 0 10875
0.10150000 0.10150300 17925.20809540 0 782.81004298 0 7565.87456113 0 -452.71968102 0 2835.10198679 0 11118
0.10250000 0.10250800 16932.02055917 0 437.79529440 0 7295.21158094 0 -20.91119265 0 2756.55491453 0 11575
0.10350000 0.10349800 16772.80052828 0 290.05947881 0 7524.26476446 0 -7.53452881 0 2161.06314113 0 11364
0.10450000 0.10450100 16575.93459300 0 284.55764061 0 6992.60494364 0 227.73114794 0 1822.00641053 0 12093
0.10550000 0.10551000 16024.42209379 0 287.01016055 0 7784.38689142 0 8.11387713 0 1000.31147002 0 12067
0.10650000 0.10649700 15593.26576535 0 378.25829662 0 6466.12697084 0 940.38583364 0 816.90283833 0 12054
0.10750000 0.10749900 15861.65891895 0 -146.36395455 0 6676.02503243 0 426.73182744 0 720.05321314 0 12807
0.10850000 0.10850100 15788.36012865 0 -394.44492827 0 6061.45564337 0 1003.78818001 0 197.53581093 0 12736
0.10950000 0.10950300 16042.24853674 0 -56.33056324 0 6153.90955561 0 400.27782898 0 146.18458288 0 12933
0.11050000 0.11050200 15763.00450482 0 432.99765606 0 6151.38506555 0 -287.26814572 0 228.61250500 0 13428
0.11150000 0.11150900 15411.67963832 0 690.05385628 0 6045.14610891 0 -217.55900313 0 713.07764851 0 13453
0.11250000 0.11250000 15026.25201138 0 300.41099528 0 5859.62930658 0 749.58863959 0 1523.55189505 0 13668
0.11350000 0.11349100 15083.60665395 0 -407.57227657 0 5418.43037953 0 965.75142256 0 638.31841856 0 13791
0.11450000 0.11448600 15072.20215938 0 -198.74269433 0 4592.15813994 0 1155.03170811 0 582.01232516 0 14205
0.11550000 0.11549300 15238.61920141 0 228.68779680 0 4498.35340407 0 479.27333040 0 -561.37461893 0 14776
0.11650000 0.11649800 15007.65050569 0 211.83018227 0 3860.58749452 0 -490.20171500 0 -345.45985604 0 14553
0.11750000 0.11747300 14509.06371911 0 489.53073211 0 4148.02504681 0 -321.95552491 0 -512.03301784 0 14568
0.11850000 0.11849100 14458.02030169 0 277.78580675 0 4330.74055097 0 -559.35502689 0 -501.02380528 0 16015
0.11950000 0.11950300 14488.24774845 0 -168.25394071 0 4451.86071216 0 96.53727491 0 95.34611420 0 15270
0.12050000 0.12050700 14413.50955592 0 -2.23078557 0 4963.76750550 0 323.66952080 0 320.83389841 0 15999
0.12150000 0.12150000 14898.25593648 0 311.21094091 0 5200.98099241 0 128.77999550 0 338.81092499 0 15670
0.12250000 0.12250700 14270.67656576 0 364.03368092 0 5259.78610952 0 176.47182019 0 576.86258689 0 16887
0.12350000 0.12352200 14058.42009899 0 396.39476467 0 5005.01191545 0 -263.48700648 0 1074.18159228 0 16407
0.12450000 0.12449800 13742.30522541 0 297.05497363 0 5251.59258916 0 177.79053408 0 968.07771801 0 16306
0.12550000 0.12549900 13536.47070704 0 297.97729829 0 5174.92781211 0 -90.89227154 0 888.12113880 0 17523
0.12650000 0.12650100 13347.46612238 0 127.24647851 0 5123.65187588 0 357.51651053 0 357.54419135 0 17154
0.12750000 0.12750600 13008.09936669 0 174.10344991 0 4989.27814188 0 212.37383342 0 640.53177629 0 18007
0.12850000 0.12850300 13110.18620152 0 157.42631427 0 4927.54993102 0 59.90648126 0 146.17683226 0 17496
0.12950000 0.12949900 12972.88937377 0 204.38404383 0 4815.60872710 0 472.33873337 0 486.70618205 0 18405
0.13050000 0.13049000 12896.26888602 0 -135.47543032 0 4702.61565233 0 63.60629860 0 417.91714965 0 18100
0.13150000 0.13148800 12885.97162394 0 77.17155735 0 4527.16359325 0 316.61091372 0 495.97371793 0 19059
0.13250000 0.13249300 12942.77265026 0 297.28638522 0 4690.70183082 0 218.98068964 0 933.41137623 0 18957
0.13350000 0.13349100 12610.38145920 0 186.21435880 0 4445.54948701 0 377.65485491 0 1044.95619092 0 19468
0.13450000 0.13450700 12251.08451884 0 342.71170502 0 4231.87576266 0 141.38362284 0 650.79360694 0 19953
0.13550000 0.13551000 12070.16273130 0 330.95621776 0 4331.93636205 0 -177.31996027 0 308.61115904 0 19956
0.13650000 0.13649900 11850.59853015 0 222.91579388 0 4566.75822680 0 -383.70920213 0 166.10923139 0 19723
0.13750000 0.13749600 11662.25828498 0 173.18776865 0 4685.67499535 0 -86.01801271 0 337.68044062 0 20946
0.13850000 0.13851100 11569.25075651 0 213.16107571 0 4351.05826701 0 2.02540502 0 -135.30602375 0 20955
0.13950000 0.13949800 11619.85128093 0 -151.60891481 0 4129.13566067 0 282.12947977 0 -241.35342916 0 20506
0.14050000 0.14048300 11472.58936084 0 -107.41494825 0 4081.18142188 0 284.66947109 0 -818.47621569 0 21447
0.14150000 0.14148400 11503.03825409 0 183.38980874 0 3832.85132085 0 772.68329470 0 -192.63962889 0 21771
0.14250000 0.14249400 11403.05516098 0 193.16667155 0 3520.60068864 0 543.02224055 0 13.01651433 0 22470
0.14350000 0.14350900 11322.33791305 0 146.97514688 0 3321.68637327 0 636.99195405 0 387.91779279 0 22519
0.14450000 0.14449900 11136.98719559 0 29.63928486 0 3137.78613036 0 307.19390147 0 393.28344140 0 22218
0.14550000 0.14550500 11206.63211870 0 182.78636704 0 3252.52863245 0 -64.25923359 0 599.45012952 0 23559
0.14650000 0.14650700 10958.81134461 0 133.42705023 0 3334.40847449 0 -415.82669473 0 796.91175587 0 23044
0.14750000 0.14750500 11006.66593247 0 70.22566655 0 3616.44273227 0 -247.62811564 0 715.29211347 0 23649
0.14850000 0.14849900 11015.51272000 0 158.83028506 0 4026.88274097 0 -211.80360869 0 906.11698832 0 23640
0.14950000 0.14949500 10830.62704018 0 207.69134725 0 3784.84172043 0 163.07430716 0 759.10419554 0 24457
0.15050000 0.15050000 10748.20465423 0 180.84871019 0 4088.40057766 0 220.32044094 0 834.83779007 0 24591
0.15150000 0.15149900 10609.67879842 0 149.38337752 0 3650.49013108 0 585.08268083 0 467.63078086 0 25020
0.15250000 0.15250500 10271.86216821 0 170.96776752 0 3744.71561529 0 524.28786695 0 830.04125896 0 25297
0.15350000 0.15350100 10129.52743266 0 285.96382586 0 3214.35125648 0 291.89084133 0 600.16429447 0 25452
0.15450000 0.15450400 10009.23769583 0 142.58386285 0 2914.47948341 0 231.95634709 0 809.15885435 0 26061
0.15550000 0.15549900 9878.79463715 0 32.55739607 0 2814.83963237 0 243.01870682 0 934.82641935 0 26128
0.15650000 0.15649500 9877.79812791 0 30.23619389 0 2446.30837311 0 112.54464562 0 683.49350382 0 26331
0.15750000 0.15749700 9854.31372697 0 -2.23655425 0 2636.57520279 0 2.96414993 0 439.04425264 0 27345
0.15850000 0.15849900 9809.00577381 0 111.88694952 0 2593.70316109 0 -8.12776183 0 116.85177997 0 26980
0.15950000 0.15949700 9675.01957118 0 281.11414759 0 2765.35741276 0 -114.18113523 0 145.70625845 0 27777
0.16050000 0.16050000 9359.81262825 0 338.33481502 0 2954.33985276 0 -198.67072422 0 561.91273392 0 28224
0.16150000 0.16150500 9244.31720806 0 228.47520817 0 3049.15217018 0 93.42838754 0 470.71553055 0 28075
0.16250000 0.16249700 9035.32707711 0 128.94054421 0 3354.99192632 0 -134.78119555 0 564.24677999 0 28590
0.16350000 0.16349900 9062.88609358 0 98.88792946 0 3277.09812122 0 -57.18136068 0 284.38712680 0 29163
0.16450000 0.16449100 8874.46834215 0 30.01020774 0 3319.61584853 0 14.67182689 0 278.80113893 0 28996
0.16550000 0.16550500 8951.08882989 0 128.39467860 0 3225.77789569 0 -5.57711894 0 224.26440304 0 30777
0.16650000 0.16650700 8767.46539510 0 55.51818677 0 2932.58273449 0 265.06592000 0 33.17279588 0 29211
0.16750000 0.16749900 8822.12946273 0 176.71984027 0 2839.16553000 0 -44.20503888 0 -373.19270801 0 30922
0.16850000 0.16850800 8619.56128017 0 45.27119304 0 2682.91288216 0 -6.03364196 0 -369.36721979 0 30867
0.16950000 0.16949900 8610.57055242 0 213.92063719 0 2630.40791787 0 176.42642366 0 -455.37039558 0 30852
0.17050000 0.17049200 8356.89251850 0 173.28077618 0 2559.70005157 0 109.70592298 0 -400.51034781 0 31257
0.17150000 0.17149500 8390.40844572 0 33.48713918 0 2437.06298188 0 414.59877390 0 -85.67023099 0 32608
0.17250000 0.17250900 8302.30595714 0 6.40506310 0 2306.11059625 0 523.79514850 0 18.48823581 0 32361
0.17350000 0.17350400 8187.53023807 0 -7.61313124 0 2230.14337567 0 457.14861095 0 240.64147868 0 32508
0.17450000 0.17449800 8265.13616273 0 99.06043629 0 2310.27379039 0 409.77234752 0 698.53968602 0 32791
0.17550000 0.17549800 8109.65857762 0 188.61816052 0 2240.90567540 0 4.76442137 0 976.78610148 0 33633
0.17650000 0.17650100 8010.55019817 0 164.58900120 0 2135.22033500 0 150.99550802 0 1129.33284220 0 33984
0.17750000 0.17750300 7883.60599412 0 40.03342978 0 2267.97750958 0 -15.45353303 0 1225.92780392 0 34069
0.17850000 0.17849800 7894.58974034 0 5.90278923 0 2269.04045276 0 81.73811628 0 825.64222431 0 34536
