### header ###
fiducial parameters:
Omega_m = 0.31
Omega_nu = 0
Omega_de = 0.69
Omega_k = 0
H_0 = 100
w_de = -1
zeff = 0
beta = 0
fgrowth = 0
b_1 = 2
gamma = 0.55
Lx = 3500 Ly = 3500 Lz = 3500
nx = 700 ny = 700 nz = 700
xoffset = -685.467585 yoffset = -31.7331281 zoffset = 572.489161
bins = 400 dk = 0.001
kx_ny = 0.628318531 ky_ny = 0.628318531 kz_ny = 0.628318531
############################
A(data) = 8.00408862 (not used)
A(ran) = 7.99717233 (used)
Ngal = 475320
weighted Ngal = 0
Nran = 23820508
weighted Nran = 0
SN(data) = 3496.60232
SN(ran) = 69.6582713
SN(data+ran) = 3566.26059
############################
13 columns: k_central k_mean P_0(k) sigma^{lin}_{P_0(k)} P^img_1(k) sigma^{lin}_{P_1(k)} P_2(k) sigma^{lin}_{P_2(k)} P^img_3(k) sigma^{lin}_{P_3(k)} P_4(k) sigma^{lin}_{P_4(k)} N_modes
### header ###
0.00050000 0 0 0 0 0 0 0 0 0 0 0 0
0.00150000 0.00179520 84168.60229715 0 -59729.43478769 0 24212.29557393 0 102698.13788116 0 -193008.33730872 0 3
0.00250000 0.00253879 150954.54041501 0 -58682.65719934 0 38334.93515686 0 -70860.11075813 0 54690.97337897 0 6
0.00350000 0.00331552 139922.07596572 0 6151.60651204 0 10797.41006572 0 -101461.13775242 0 110590.04811889 0 7
0.00450000 0.00420575 122046.91477849 0 57655.03473292 0 16479.27319734 0 -62320.58024175 0 69258.38824987 0 24
0.00550000 0.00557378 65758.64782119 0 21311.01430170 0 23092.21919527 0 13025.59363990 0 33424.58054629 0 45
0.00650000 0.00659388 68370.71996916 0 -3243.88114677 0 29332.47073981 0 42579.28942959 0 1429.43713409 0 40
0.00750000 0.00754703 72651.28074404 0 -20988.25603323 0 3044.08104542 0 56878.42187014 0 -37062.28214221 0 57
0.00850000 0.00846663 85290.78241752 0 -13909.38660693 0 -6255.46491884 0 16220.29151983 0 -19023.13982442 0 75
0.00950000 0.00948925 74025.13480754 0 4387.85160238 0 -23298.49660664 0 -10245.15572074 0 -17925.54026515 0 112
0.01050000 0.01054430 81515.00893112 0 1968.31611069 0 -36873.49900405 0 -16823.51177595 0 -960.87959964 0 105
0.01150000 0.01145670 71723.08775450 0 2966.77407353 0 -29222.96544736 0 -24627.06486163 0 -12854.30477496 0 144
0.01250000 0.01249090 74219.34338486 0 446.38188230 0 -15980.35424101 0 -21440.00688583 0 -36873.60972730 0 169
0.01350000 0.01339930 59200.17766136 0 1759.18203951 0 -10383.22761123 0 -25875.91237793 0 -31323.38546545 0 180
0.01450000 0.01448870 69419.04768298 0 3784.13309164 0 9345.35217203 0 -14411.62726070 0 -21163.86310486 0 267
0.01550000 0.01550050 61840.48423761 0 256.85025498 0 -3275.42620018 0 -6382.69700333 0 3685.99907678 0 238
0.01650000 0.01653350 67492.13099480 0 -3583.25897478 0 7852.90243740 0 19881.79861411 0 -8695.76101957 0 315
0.01750000 0.01747870 73293.14341378 0 -10252.15343003 0 16578.03833472 0 -9486.64610904 0 -7389.81352419 0 297
0.01850000 0.01844180 80704.73620089 0 -4743.30644603 0 20345.28613101 0 7735.64651757 0 -5382.37888992 0 388
0.01950000 0.01947590 81057.72191611 0 2347.90862244 0 18914.52031795 0 -13615.41638299 0 -11282.69899020 0 399
0.02050000 0.02045430 81431.08070899 0 7931.93669196 0 27997.03764344 0 -17042.41163761 0 9933.30369223 0 462
0.02150000 0.02154770 79437.50862539 0 8552.45191944 0 41813.30599864 0 -10223.38753015 0 4785.48093127 0 571
0.02250000 0.02255340 75424.78738787 0 3089.55508345 0 43754.94887884 0 5865.25404758 0 24324.56894759 0 510
0.02350000 0.02348930 73901.56766257 0 5047.25283463 0 42013.82580111 0 14723.53465084 0 8080.07332571 0 555
0.02450000 0.02439640 71379.07062238 0 -1159.56028896 0 34833.75532596 0 16977.97070717 0 2812.62516741 0 592
0.02550000 0.02547300 69818.75860894 0 880.81340442 0 32357.20843377 0 14810.23095417 0 -3717.69914273 0 837
0.02650000 0.02652900 68816.49176635 0 2978.37786994 0 21623.91820107 0 5730.61457779 0 519.43265252 0 723
0.02750000 0.02749970 61526.25165926 0 112.32984252 0 22273.97439117 0 5876.09385358 0 -5447.83847424 0 826
0.02850000 0.02848090 64577.00931654 0 -537.41632249 0 18348.94596621 0 1231.17608588 0 2238.85729530 0 831
0.02950000 0.02946900 61852.99596466 0 782.36936445 0 13433.16591648 0 5050.71847230 0 -1177.33137029 0 996
0.03050000 0.03053250 62097.03000366 0 -889.05896471 0 11300.74687965 0 9906.65260639 0 7878.25806124 0 1041
0.03150000 0.03150510 62298.76776186 0 -1166.76837241 0 9117.56123354 0 6362.24641939 0 5893.79850097 0 1036
0.03250000 0.03246190 64085.84098759 0 -1099.10650268 0 4159.41846905 0 1078.94601365 0 5355.27383876 0 1059
0.03350000 0.03345080 64365.41718926 0 2035.69120721 0 13526.72706120 0 -3373.64879364 0 5341.04590137 0 1302
0.03450000 0.03451200 61762.53507089 0 4239.72604096 0 8358.48693327 0 -7803.30949454 0 2101.27258711 0 1339
0.03550000 0.03553350 57442.88898939 0 6166.56522287 0 14717.99848843 0 -8648.99151954 0 3096.59708203 0 1365
0.03650000 0.03647120 50419.82408017 0 8275.63272665 0 15691.36656324 0 -5076.52806145 0 504.50826590 0 1308
0.03750000 0.03744890 48166.60597958 0 3143.44408834 0 13636.89669314 0 2463.80264632 0 -1384.67172485 0 1579
0.03850000 0.03847530 44472.43552709 0 -2698.41413690 0 13988.00011314 0 5246.76505554 0 -4186.50137555 0 1662
0.03950000 0.03950240 47849.82676652 0 -1063.82121795 0 16672.48526542 0 3104.87918100 0 -8054.98343767 0 1683
0.04050000 0.04050350 48405.32530267 0 1001.43088206 0 14608.38247273 0 -643.04962296 0 -3689.22112330 0 1822
0.04150000 0.04152450 46961.82631606 0 2803.83374150 0 21148.02968037 0 -3934.63920290 0 -783.98370941 0 1887
0.04250000 0.04250150 46081.35504648 0 2423.51045631 0 20140.89101486 0 -3068.04155632 0 1748.95121138 0 1920
0.04350000 0.04349210 44564.00365334 0 1141.99958180 0 23049.81219122 0 2228.52681625 0 -1397.71492348 0 2005
0.04450000 0.04448520 44189.75907447 0 523.80400636 0 23841.26196925 0 2946.87710583 0 835.93948639 0 2151
0.04550000 0.04548030 44319.96961433 0 424.65133761 0 20618.66183079 0 5058.41373805 0 -1155.06492508 0 2274
0.04650000 0.04648670 43144.19944184 0 296.64529761 0 17257.87907858 0 8272.95322405 0 -218.00189612 0 2311
0.04750000 0.04749250 42149.68322663 0 307.89367239 0 16029.73680970 0 3079.13602579 0 -814.88435352 0 2568
0.04850000 0.04851840 41539.26595938 0 1288.20963103 0 14136.59071221 0 342.25884693 0 -2782.56380552 0 2493
0.04950000 0.04949480 39969.21030009 0 2691.10640252 0 15385.65967500 0 -1374.97236830 0 1280.48114830 0 2644
0.05050000 0.05050630 37808.88900473 0 3069.37023530 0 16186.74237563 0 -1620.27972466 0 3901.07898638 0 2829
0.05150000 0.05149060 37368.54264669 0 -166.57759073 0 16600.29370760 0 1485.39666372 0 6143.18047286 0 2784
0.05250000 0.05249300 35875.66109139 0 767.76607525 0 17017.94179976 0 4102.84996155 0 6321.51133638 0 3055
0.05350000 0.05348950 36182.25376562 0 1215.30944442 0 16174.45209508 0 4018.56742503 0 7378.49760822 0 3009
0.05450000 0.05448610 34948.13244133 0 718.34364619 0 16141.67801362 0 3705.36457288 0 7743.18677077 0 3336
0.05550000 0.05550870 33163.82729681 0 774.70177952 0 13223.56680766 0 444.87050996 0 7818.31249467 0 3349
0.05650000 0.05647670 32940.38778197 0 -215.15409418 0 12391.26015104 0 1801.36759707 0 7982.67008428 0 3324
0.05750000 0.05747970 34155.02181457 0 -704.83762438 0 14151.87052046 0 1473.80393964 0 8584.71667397 0 3639
0.05850000 0.05849280 32806.85554466 0 584.81251611 0 9869.82605404 0 1802.77378232 0 5388.84512761 0 3846
0.05950000 0.05951020 33937.67207838 0 63.33890196 0 10607.12109139 0 2279.06090672 0 2746.24658012 0 3787
0.06050000 0.06049470 32170.52903733 0 1116.23428194 0 8008.95578340 0 -730.56970725 0 767.39072344 0 3930
0.06150000 0.06148310 30544.22596797 0 1611.22256296 0 7470.68578466 0 1329.53154725 0 4200.14247973 0 4083
0.06250000 0.06249100 29875.90044191 0 253.54848772 0 6564.74816800 0 937.85691465 0 1982.46654180 0 4303
0.06350000 0.06350600 29706.71531868 0 600.49867868 0 6921.38775041 0 1390.55112932 0 847.55989129 0 4470
0.06450000 0.06451750 29210.78589006 0 310.22328954 0 7261.29705002 0 -365.65577651 0 590.41732693 0 4479
0.06550000 0.06550280 29086.22223585 0 110.03543537 0 7116.28281187 0 -254.37559038 0 -67.80791370 0 4636
0.06650000 0.06648880 28613.76613583 0 335.20023986 0 7898.76400680 0 -1060.68996449 0 1948.48557694 0 4653
0.06750000 0.06749660 29103.27361607 0 -134.63171917 0 8524.81539670 0 -1318.76924752 0 601.17409049 0 5220
0.06850000 0.06852730 29646.26042517 0 304.54429414 0 10113.83794840 0 -455.05483433 0 1016.55789223 0 5029
0.06950000 0.06949320 29373.43834164 0 552.23662926 0 9931.64284350 0 -1449.09051064 0 -102.67400021 0 5040
0.07050000 0.07048030 28966.41968131 0 584.67632651 0 10710.52553287 0 847.39712811 0 -693.15299999 0 5475
0.07150000 0.07148790 28127.80179954 0 501.67375074 0 9675.63962137 0 814.84117145 0 1619.19463683 0 5509
0.07250000 0.07249820 28780.29390111 0 -126.34740574 0 9831.27221902 0 1867.74618436 0 221.21840648 0 5916
0.07350000 0.07351270 28475.02990586 0 102.99000436 0 9247.59461621 0 63.08722801 0 1700.59836890 0 5721
0.07450000 0.07449140 27791.64601805 0 1085.17308913 0 9115.45749182 0 1079.35015351 0 1548.51998751 0 6028
0.07550000 0.07549160 27197.17289854 0 750.83206167 0 9086.91303844 0 1190.07561616 0 4091.48975629 0 6183
0.07650000 0.07648840 26288.57792392 0 818.27137768 0 8494.23363555 0 1960.43261542 0 4017.22767373 0 6330
0.07750000 0.07749960 26138.21575288 0 729.32074901 0 8795.44515991 0 1323.02102026 0 4264.22909578 0 6583
0.07850000 0.07848650 24850.94726947 0 378.48860097 0 8179.85711697 0 1591.20379969 0 4195.27065681 0 6549
0.07950000 0.07947320 24378.04827646 0 790.08788208 0 7611.37074381 0 1635.30486944 0 5331.16938763 0 6828
0.08050000 0.08048110 23808.48788779 0 822.72909565 0 7568.74229326 0 -546.91748442 0 4832.35008223 0 7147
0.08150000 0.08149960 23615.38654295 0 129.78093366 0 7818.77753231 0 605.35057141 0 4528.60299548 0 7386
0.08250000 0.08250610 22813.63950284 0 639.83200537 0 7884.69108196 0 -165.13597404 0 5199.70767506 0 7227
0.08350000 0.08350160 22830.13726682 0 426.33765268 0 6729.68151850 0 167.49770093 0 4054.70749324 0 7798
0.08450000 0.08449610 22473.82985415 0 -142.79202256 0 6972.94049477 0 803.28277157 0 3505.55339921 0 7371
0.08550000 0.08548940 22553.10769985 0 151.89347356 0 7374.40084804 0 -815.67048858 0 3173.79333067 0 8256
0.08650000 0.08650700 22306.30557964 0 283.53898672 0 7631.15698826 0 480.94082252 0 2710.41653701 0 8037
0.08750000 0.08749060 21861.64101493 0 431.35452305 0 7140.59763717 0 921.03362432 0 2619.49060560 0 8155
0.08850000 0.08849210 21490.93958000 0 650.76038996 0 6233.97353637 0 65.36447306 0 2277.21182848 0 8718
0.08950000 0.08949900 21397.37843528 0 115.39466203 0 5658.02441628 0 767.34421967 0 811.39103504 0 8571
0.09050000 0.09049190 20729.38507897 0 291.88973410 0 5835.33662592 0 35.20202085 0 648.75629917 0 8932
0.09150000 0.09150830 20713.88382423 0 443.73781113 0 5793.30608091 0 -697.34941110 0 393.03320686 0 9285
0.09250000 0.09250820 19910.58665863 0 702.55893993 0 5474.38990916 0 -540.06150089 0 830.64137896 0 9204
0.09350000 0.09350330 19711.50625840 0 461.66390501 0 5768.24940985 0 152.26218198 0 -384.64259911 0 9349
0.09450000 0.09448040 19233.62471922 0 -23.48783336 0 5253.38630578 0 638.09365037 0 229.40417622 0 9564
0.09550000 0.09549270 19258.98034306 0 -119.94095860 0 5645.11408554 0 1171.67341231 0 -1420.86715468 0 10155
0.09650000 0.09649430 19358.63126642 0 393.03874302 0 5576.38816539 0 -467.97070123 0 -1011.03390938 0 9913
0.09750000 0.09749140 18843.10382287 0 862.08788868 0 6256.20676460 0 -591.15474376 0 -959.14013742 0 10476
0.09850000 0.09850240 18390.02429129 0 739.72984158 0 6268.02093519 0 -1244.42965869 0 855.58621955 0 10575
0.09950000 0.09950330 17708.41197545 0 847.96846007 0 7221.77992274 0 -353.41753589 0 -396.54313382 0 10882
0.10050000 0.10051200 17123.12888554 0 216.39087286 0 7045.63030720 0 599.74797506 0 182.03787788 0 10875
0.10150000 0.10150300 17117.14983014 0 -33.81355132 0 6711.64470137 0 1546.25016092 0 -496.70449136 0 11118
0.10250000 0.10250800 17267.62272442 0 -22.07090795 0 6607.09981043 0 501.93616484 0 -1510.48655176 0 11575
0.10350000 0.10349800 16970.77369604 0 454.97511359 0 6339.10526052 0 402.49229395 0 110.13475412 0 11364
0.10450000 0.10450100 16448.93502733 0 406.75292454 0 5992.87366344 0 -207.87957677 0 673.41215208 0 12093
0.10550000 0.10551000 16472.51907920 0 433.92108795 0 6553.00043137 0 183.63339988 0 951.33636288 0 12067
0.10650000 0.10649700 16121.96927544 0 43.03059739 0 6397.34568907 0 735.01746013 0 990.29323052 0 12054
0.10750000 0.10749900 16132.15581427 0 111.96334857 0 6242.52137113 0 798.76304858 0 1044.84325321 0 12807
0.10850000 0.10850100 15859.55517724 0 337.38480955 0 5879.39340638 0 393.24690272 0 780.39738340 0 12736
0.10950000 0.10950300 15751.93218000 0 355.78701340 0 5993.30548411 0 316.73049483 0 1232.20581209 0 12933
0.11050000 0.11050200 15306.49255254 0 116.26273229 0 5752.01738166 0 86.81555227 0 985.10141742 0 13428
0.11150000 0.11150900 15349.01027985 0 -0.50350179 0 5569.00292474 0 -260.51408726 0 904.40631414 0 13453
0.11250000 0.11250000 15228.54338582 0 75.44438540 0 5635.95727291 0 250.99631685 0 415.46352247 0 13668
0.11350000 0.11349100 15426.51655358 0 207.29385079 0 5269.13115167 0 -68.44468310 0 90.83270244 0 13791
0.11450000 0.11448600 15133.54283888 0 -44.34654319 0 5105.83650525 0 149.25272409 0 170.65774243 0 14205
0.11550000 0.11549300 15215.14587279 0 15.97913629 0 5094.86383135 0 -123.77751915 0 40.42472574 0 14776
0.11650000 0.11649800 15259.21372557 0 94.70247996 0 5169.57987923 0 -237.69513304 0 -502.48535215 0 14553
0.11750000 0.11747300 14883.64046772 0 337.72915885 0 4914.25206891 0 501.91402019 0 -447.99844172 0 14568
0.11850000 0.11849100 14854.85242319 0 374.97203061 0 4891.96347905 0 153.47792324 0 -548.32034797 0 16015
0.11950000 0.11950300 14245.87455817 0 269.64654077 0 4488.57654126 0 729.83118319 0 -701.48160272 0 15270
0.12050000 0.12050700 14035.50038661 0 296.10275370 0 4327.78424024 0 911.18811309 0 -1244.17499522 0 15999
0.12150000 0.12150000 13786.26235494 0 373.42411960 0 4028.58787899 0 194.64261245 0 -588.39994935 0 15670
0.12250000 0.12250700 13474.57641130 0 235.27804454 0 3850.66669148 0 -124.95893621 0 -1052.54294789 0 16887
0.12350000 0.12352200 13299.52295592 0 176.11307687 0 3527.02263703 0 -6.82026421 0 -408.86220242 0 16407
0.12450000 0.12449800 13384.77985702 0 -61.92795560 0 3931.15142059 0 -220.21746832 0 -412.35773536 0 16306
0.12550000 0.12549900 13422.09359166 0 -22.44758844 0 3755.10145597 0 -146.87771042 0 -834.01733080 0 17523
0.12650000 0.12650100 13223.89897741 0 158.47929236 0 4066.85383356 0 -15.48741434 0 -513.28308332 0 17154
0.12750000 0.12750600 13244.49350157 0 418.79075608 0 4447.15497411 0 12.11910241 0 -16.88407739 0 18007
0.12850000 0.12850300 12976.10034796 0 263.24673703 0 4476.47449023 0 25.51606182 0 206.65276318 0 17496
0.12950000 0.12949900 12903.90879015 0 5.77745051 0 4544.18175650 0 407.95759348 0 36.96916389 0 18405
0.13050000 0.13049000 12815.33019160 0 26.22214398 0 4730.01965625 0 442.22643879 0 923.35991976 0 18100
0.13150000 0.13148800 13022.93628195 0 7.28124938 0 4327.86174651 0 198.07281868 0 457.04674556 0 19059
0.13250000 0.13249300 12808.46535021 0 91.66965947 0 4407.74857008 0 821.60414745 0 830.12762309 0 18957
0.13350000 0.13349100 12801.37906233 0 203.92786404 0 3617.66068800 0 214.78870746 0 683.07164825 0 19468
0.13450000 0.13450700 12525.45672785 0 246.83533718 0 3204.59653831 0 713.81285087 0 717.83653371 0 19953
0.13550000 0.13551000 12206.90594281 0 109.36555972 0 2944.29725415 0 637.42488195 0 1054.47839027 0 19956
0.13650000 0.13649900 12155.86252540 0 66.35157082 0 2755.15980160 0 623.17369268 0 378.52071072 0 19723
0.13750000 0.13749600 11927.10829465 0 169.19730279 0 2508.64556184 0 264.36836353 0 590.94547683 0 20946
0.13850000 0.13851100 11602.57845421 0 238.84001143 0 2503.15368873 0 -127.99386044 0 49.63922518 0 20955
0.13950000 0.13949800 11623.94804111 0 293.21066245 0 2524.73364980 0 -435.75245047 0 15.09866502 0 20506
0.14050000 0.14048300 11300.52543316 0 168.16204042 0 2720.11589355 0 -256.57012516 0 -275.63113234 0 21447
0.14150000 0.14148400 11157.91388949 0 343.18781499 0 2760.27521566 0 -336.22996607 0 50.97521189 0 21771
0.14250000 0.14249400 11094.80163803 0 213.10460685 0 2910.12805976 0 -140.75582202 0 141.92948846 0 22470
0.14350000 0.14350900 10865.41628476 0 83.73035968 0 2990.25847447 0 -6.53970257 0 -259.71909434 0 22519
0.14450000 0.14449900 10691.99046113 0 148.23074851 0 2873.21292881 0 178.18803054 0 -192.81789332 0 22218
0.14550000 0.14550500 10772.48626256 0 112.36084503 0 3091.58131889 0 138.94881861 0 -307.24815586 0 23559
0.14650000 0.14650700 10704.33610330 0 -76.22299128 0 3214.97130667 0 154.15444229 0 -188.28931247 0 23044
0.14750000 0.14750500 10698.24632465 0 121.58519883 0 3067.77582053 0 126.11710138 0 -267.05893846 0 23649
0.14850000 0.14849900 10623.31990260 0 202.33455650 0 3173.78225834 0 52.55478975 0 443.11665371 0 23640
0.14950000 0.14949500 10481.74915747 0 192.95408292 0 2775.44430067 0 81.99554783 0 132.17366306 0 24457
0.15050000 0.15050000 10337.88644110 0 117.88372065 0 3357.91502008 0 196.41086273 0 607.29376442 0 24591
0.15150000 0.15149900 10170.63897472 0 332.99352553 0 3057.68893262 0 109.69595789 0 183.94121051 0 25020
0.15250000 0.15250500 9957.52993893 0 204.93323114 0 3127.93176127 0 85.72913576 0 555.94142914 0 25297
0.15350000 0.15350100 9925.51984788 0 -85.18459882 0 2982.46355780 0 -13.35709904 0 235.72093753 0 25452
0.15450000 0.15450400 9867.68909535 0 21.84658265 0 2832.23425466 0 -140.16345265 0 108.81548662 0 26061
0.15550000 0.15549900 9929.21800437 0 96.27829323 0 2831.53669820 0 -43.67799622 0 -104.30860753 0 26128
0.15650000 0.15649500 9858.70943992 0 87.39496703 0 2726.95859029 0 -159.41379658 0 -542.56495353 0 26331
0.15750000 0.15749700 9526.48433374 0 281.12743438 0 2553.98673197 0 74.77583843 0 -590.76278347 0 27345
0.15850000 0.15849900 9456.98335085 0 319.94589796 0 2654.46807970 0 116.72223377 0 -840.92092533 0 26980
0.15950000 0.15949700 9100.62057657 0 93.66201360 0 2353.53336345 0 314.00116676 0 -728.24230458 0 27777
0.16050000 0.16050000 8994.25982436 0 197.40847919 0 2209.40491129 0 389.28079597 0 -653.58715449 0 28224
0.16150000 0.16150500 8850.57426519 0 153.09149911 0 2246.85151382 0 394.91550207 0 -543.77626587 0 28075
0.16250000 0.16249700 8777.41941511 0 159.37836514 0 2163.34404004 0 -57.13186739 0 -554.85412685 0 28590
0.16350000 0.16349900 8621.04497170 0 85.12015789 0 2022.00581373 0 47.89245522 0 -379.61687087 0 29163
0.16450000 0.16449100 8584.07447913 0 57.45772590 0 2257.61381355 0 -181.10448090 0 -150.55593672 0 28996
0.16550000 0.16550500 8616.69354804 0 6.53293738 0 2285.77073556 0 -204.73392929 0 -589.71866324 0 30777
0.16650000 0.16650700 8701.70685800 0 68.49926966 0 2563.46464201 0 -42.68525158 0 -284.46906201 0 29211
0.16750000 0.16749900 8530.76123512 0 284.75472799 0 2458.90867875 0 -13.31679578 0 81.13002420 0 30922
0.16850000 0.16850800 8521.18367416 0 46.17635559 0 2761.90284741 0 156.21168024 0 33.41118303 0 30867
0.16950000 0.16949900 8282.82973779 0 139.96193634 0 2577.85866428 0 33.40852568 0 -31.62222751 0 30852
0.17050000 0.17049200 8215.88646193 0 223.53252237 0 2814.71783680 0 155.04354997 0 93.57343500 0 31257
0.17150000 0.17149500 8082.36529694 0 178.12934722 0 2602.45029770 0 46.05544581 0 279.40790233 0 32608
0.17250000 0.17250900 7982.45971011 0 148.84083361 0 2586.80510273 0 235.83498247 0 152.74714980 0 32361
0.17350000 0.17350400 7900.77916992 0 54.96069521 0 2581.13607242 0 42.12023084 0 490.51284733 0 32508
0.17450000 0.17449800 7916.63473906 0 -53.15479903 0 2609.42586234 0 203.36428271 0 129.26164163 0 32791
0.17550000 0.17549800 7870.31920434 0 57.51286608 0 2520.91369773 0 118.23360611 0 240.61047617 0 33633
0.17650000 0.17650100 7888.53317867 0 86.22262927 0 2329.78322672 0 -95.03132801 0 77.27563720 0 33984
0.17750000 0.17750300 7766.22827872 0 160.95949312 0 2468.97342201 0 3.26833991 0 216.55142157 0 34069
0.17850000 0.17849800 7725.70356989 0 130.15074931 0 2399.29528193 0 145.41616354 0 282.47050738 0 34536
