### header ###
fiducial parameters:
Omega_m = 0.31
Omega_nu = 0
Omega_de = 0.69
Omega_k = 0
H_0 = 100
w_de = -1
zeff = 0
beta = 0
fgrowth = 0
b_1 = 2
gamma = 0.55
Lx = 3500 Ly = 3500 Lz = 3500
nx = 700 ny = 700 nz = 700
xoffset = -685.467585 yoffset = -31.7331281 zoffset = 572.489161
bins = 400 dk = 0.001
kx_ny = 0.628318531 ky_ny = 0.628318531 kz_ny = 0.628318531
############################
A(data) = 8.04009998 (not used)
A(ran) = 8.04716074 (used)
Ngal = 477993
weighted Ngal = 0
Nran = 23820508
weighted Nran = 0
SN(data) = 3478.653
SN(ran) = 70.0936885
SN(data+ran) = 3548.74669
############################
13 columns: k_central k_mean P_0(k) sigma^{lin}_{P_0(k)} P^img_1(k) sigma^{lin}_{P_1(k)} P_2(k) sigma^{lin}_{P_2(k)} P^img_3(k) sigma^{lin}_{P_3(k)} P_4(k) sigma^{lin}_{P_4(k)} N_modes
### header ###
0.00050000 0 0 0 0 0 0 0 0 0 0 0 0
0.00150000 0.00179520 4744.62405269 0 -4514.99510827 0 -17866.96766686 0 5925.36569902 0 14227.82666871 0 3
0.00250000 0.00253879 27454.05083433 0 -27526.24239215 0 2918.86412404 0 18253.17035653 0 13549.64677357 0 6
0.00350000 0.00331552 34732.44355387 0 -21970.26052140 0 20654.42543995 0 -20660.40449535 0 65693.43182801 0 7
0.00450000 0.00420575 58454.67803132 0 -14598.97099663 0 30026.26261295 0 -13967.40558898 0 -6846.63848556 0 24
0.00550000 0.00557378 68578.54750600 0 1857.98039387 0 13813.61099725 0 537.79831770 0 -7347.24043526 0 45
0.00650000 0.00659388 64316.03462057 0 7592.12704327 0 21675.84740447 0 14387.93248559 0 636.14824290 0 40
0.00750000 0.00754703 61316.32038070 0 104.93065073 0 1750.54562615 0 -4562.27393525 0 -5102.00548086 0 57
0.00850000 0.00846663 62712.09764734 0 -3379.62784905 0 4539.44280147 0 1501.39617308 0 -22266.22376380 0 75
0.00950000 0.00948925 62320.69096500 0 -6148.34017622 0 -12286.84812800 0 6713.77058774 0 -20483.35802150 0 112
0.01050000 0.01054430 62921.14313991 0 2123.90441904 0 -11108.42059756 0 4609.84064267 0 -11516.87866011 0 105
0.01150000 0.01145670 61224.42008470 0 -4901.48567839 0 -16888.06342964 0 -6365.59026149 0 -20548.02039844 0 144
0.01250000 0.01249090 67874.45837078 0 -5959.56811039 0 -8418.97504376 0 -16207.11545329 0 -27898.93684554 0 169
0.01350000 0.01339930 77728.49528963 0 -2271.46529190 0 10524.82050101 0 -23919.32185923 0 -19263.18782649 0 180
0.01450000 0.01448870 76565.34756744 0 5266.36307047 0 19526.37698743 0 -39085.08516333 0 -5663.02910710 0 267
0.01550000 0.01550050 76409.33851074 0 6841.87738589 0 44875.35742724 0 -18842.32876013 0 25755.00259091 0 238
0.01650000 0.01653350 77602.71367969 0 -4351.03612236 0 34874.05858830 0 6535.47294118 0 6998.84973484 0 315
0.01750000 0.01747870 86323.05526036 0 -10046.45177955 0 45496.29340307 0 10790.43450109 0 -3564.98963883 0 297
0.01850000 0.01844180 88434.87977302 0 3298.97703507 0 39936.10404889 0 8412.56416769 0 -18151.63713794 0 388
0.01950000 0.01947590 87879.15979038 0 6459.51679292 0 36608.20610139 0 16055.86749627 0 -8603.96037450 0 399
0.02050000 0.02045430 79113.20023145 0 1256.54278204 0 31147.00333109 0 -9100.97489096 0 -6961.17061348 0 462
0.02150000 0.02154770 82769.06044008 0 -927.51647050 0 36174.61386150 0 -1433.87713634 0 -18385.81680786 0 571
0.02250000 0.02255340 79567.27627227 0 7149.76552212 0 37650.99765281 0 -10418.33795323 0 -12143.01862861 0 510
0.02350000 0.02348930 78161.75535979 0 8445.52647867 0 43008.78490931 0 -4661.01692798 0 -11881.71176289 0 555
0.02450000 0.02439640 70711.29871257 0 3490.19608468 0 41768.68452962 0 -5413.63606288 0 -6498.52459326 0 592
0.02550000 0.02547300 72085.37422256 0 -1411.06814721 0 40649.93682994 0 13826.45489404 0 -14326.59180609 0 837
0.02650000 0.02652900 72367.93995194 0 -1869.29630983 0 28099.78881775 0 13968.84499120 0 -7607.41792385 0 723
0.02750000 0.02749970 72552.51560666 0 -459.36086145 0 28556.41149327 0 23003.19770373 0 -9109.24591760 0 826
0.02850000 0.02848090 69703.16353783 0 1190.48529218 0 9774.60406060 0 13588.51063368 0 3097.11748130 0 831
0.02950000 0.02946900 64894.12069935 0 5794.51296432 0 8716.04551864 0 8103.75702849 0 1577.71770806 0 996
0.03050000 0.03053250 59539.10152406 0 4537.58265090 0 1634.71803622 0 3766.05198522 0 4137.81636333 0 1041
0.03150000 0.03150510 54324.25798097 0 4136.50982900 0 5279.99310232 0 -351.23407343 0 9915.62118949 0 1036
0.03250000 0.03246190 53256.88586846 0 -551.16372098 0 949.92907040 0 -2157.45356324 0 3052.38528903 0 1059
0.03350000 0.03345080 53354.87594310 0 882.27605852 0 6470.01335685 0 -683.18015703 0 8366.60294736 0 1302
0.03450000 0.03451200 50919.85026898 0 2957.55082696 0 3812.14607344 0 -3224.08382999 0 -341.41956471 0 1339
0.03550000 0.03553350 51230.31825690 0 1286.28304651 0 8328.99025995 0 -3922.89146627 0 -1937.57933699 0 1365
0.03650000 0.03647120 51140.96459561 0 1140.39409470 0 11511.56394420 0 -1780.20838434 0 -586.59294594 0 1308
0.03750000 0.03744890 47965.20039113 0 644.13360356 0 11999.18912922 0 -4060.25472797 0 -4021.47944646 0 1579
0.03850000 0.03847530 48485.15676461 0 2173.07661356 0 12668.06827151 0 -1445.66916227 0 -5195.15694956 0 1662
0.03950000 0.03950240 48219.64241546 0 2572.34464652 0 15150.81566559 0 -3456.83517001 0 -4019.41999404 0 1683
0.04050000 0.04050350 47507.13831338 0 -319.02246607 0 14523.45774137 0 332.65914132 0 -4744.19223202 0 1822
0.04150000 0.04152450 45004.57145787 0 181.44993743 0 15120.14532585 0 1148.14472207 0 -8957.80973105 0 1887
0.04250000 0.04250150 47120.16056097 0 1129.35498685 0 14019.33479238 0 296.45263916 0 -8160.42518692 0 1920
0.04350000 0.04349210 46192.07829467 0 -519.15362993 0 12570.52108986 0 2559.61147298 0 -11301.96483539 0 2005
0.04450000 0.04448520 45745.42071149 0 -399.63895584 0 9729.59506021 0 1732.38701345 0 -6032.36864607 0 2151
0.04550000 0.04548030 47171.31470163 0 -638.01503686 0 10600.99809577 0 3566.37367944 0 -7989.70101054 0 2274
0.04650000 0.04648670 45608.67749998 0 579.11469776 0 9594.20267233 0 3340.80827823 0 -3848.04255050 0 2311
0.04750000 0.04749250 44512.84951267 0 2097.51906899 0 7865.67990024 0 3922.11640353 0 -736.60301705 0 2568
0.04850000 0.04851840 43173.65182586 0 2929.44926657 0 10167.30620494 0 1965.35979996 0 -1604.50166179 0 2493
0.04950000 0.04949480 39744.99572252 0 1880.78938299 0 8353.44902548 0 -2972.71991196 0 -781.26545367 0 2644
0.05050000 0.05050630 40061.99638207 0 1638.82586873 0 10703.33959406 0 -1323.40855162 0 -78.16684863 0 2829
0.05150000 0.05149060 38840.71895458 0 -1747.70003867 0 11633.91313345 0 -6402.63826033 0 -2064.03635874 0 2784
0.05250000 0.05249300 40751.47004853 0 -1178.81506182 0 14057.97720599 0 -3622.51036627 0 -8734.74667526 0 3055
0.05350000 0.05348950 40452.07438544 0 1760.10104247 0 17368.49160352 0 -5244.32914408 0 -9546.69132653 0 3009
0.05450000 0.05448610 39353.03542394 0 3503.10641542 0 17776.06388010 0 -2792.79463366 0 -9568.20485366 0 3336
0.05550000 0.05550870 36765.43311382 0 1157.23510075 0 17368.71305002 0 353.44410947 0 -5365.16142482 0 3349
0.05650000 0.05647670 37745.77675326 0 358.99355867 0 18865.13774926 0 5348.14326158 0 -8867.21596939 0 3324
0.05750000 0.05747970 36564.02752537 0 -281.94457195 0 17767.75963648 0 5911.64708857 0 -2144.83111294 0 3639
0.05850000 0.05849280 36604.22006446 0 1140.69304747 0 15524.83879797 0 4794.81490109 0 -1144.40227628 0 3846
0.05950000 0.05951020 35229.48021498 0 1757.65405869 0 14118.32137626 0 2860.63476782 0 2949.50124682 0 3787
0.06050000 0.06049470 34159.11857476 0 870.49510492 0 14029.07843822 0 1794.14844129 0 5290.73325739 0 3930
0.06150000 0.06148310 32842.28698408 0 1086.00683519 0 13749.39151330 0 2009.56052064 0 4820.30339282 0 4083
0.06250000 0.06249100 32465.82794024 0 428.88318015 0 12981.74723362 0 431.21058283 0 5652.49932619 0 4303
0.06350000 0.06350600 32695.68940348 0 -531.12170583 0 12103.15825926 0 3016.37808872 0 5409.74967687 0 4470
0.06450000 0.06451750 32803.64457046 0 -998.43360373 0 12100.05800831 0 -375.49132264 0 4022.02199037 0 4479
0.06550000 0.06550280 33200.47669196 0 190.70640098 0 11386.22522725 0 363.47009959 0 2235.82347830 0 4636
0.06650000 0.06648880 33019.66562767 0 1343.08407283 0 12527.11757657 0 -2158.29505992 0 1952.02872088 0 4653
0.06750000 0.06749660 31527.78058161 0 1809.32859861 0 11708.76204922 0 -493.20674395 0 2012.57219299 0 5220
0.06850000 0.06852730 30963.53490885 0 1234.29848148 0 13488.19537083 0 -1502.51447789 0 357.73795703 0 5029
0.06950000 0.06949320 29558.01399637 0 1002.86474812 0 14564.20389670 0 -483.86170181 0 3060.29092895 0 5040
0.07050000 0.07048030 29725.64899412 0 258.66390179 0 15339.26663401 0 673.89933437 0 878.43617628 0 5475
0.07150000 0.07148790 28835.43407870 0 656.32312595 0 15033.33829927 0 1562.65934631 0 1770.48688315 0 5509
0.07250000 0.07249820 29237.02729988 0 253.35693650 0 15003.00012927 0 1981.63611744 0 2115.81054960 0 5916
0.07350000 0.07351270 28347.69817044 0 341.67090649 0 15180.04660312 0 1619.92541027 0 3621.52492936 0 5721
0.07450000 0.07449140 28420.11117476 0 294.44190497 0 13447.11704575 0 2031.40621750 0 3372.59692279 0 6028
0.07550000 0.07549160 27788.32432060 0 -185.71831865 0 11332.85662163 0 3039.03206530 0 3935.22603612 0 6183
0.07650000 0.07648840 27781.34875597 0 245.96173075 0 10610.15490839 0 2515.97544087 0 4243.41312512 0 6330
0.07750000 0.07749960 27071.28056535 0 163.03887572 0 8900.36650990 0 1993.68280685 0 4004.87095923 0 6583
0.07850000 0.07848650 26061.48454189 0 1130.89404000 0 6893.43013024 0 2404.83144434 0 3872.62311160 0 6549
0.07950000 0.07947320 25789.54824434 0 798.65121810 0 6941.03005464 0 540.73469824 0 2863.53571692 0 6828
0.08050000 0.08048110 24615.10675083 0 910.69096571 0 6118.47811619 0 507.23870120 0 4747.38106157 0 7147
0.08150000 0.08149960 24243.29808342 0 368.76156362 0 6310.90404921 0 67.21964108 0 3021.63744301 0 7386
0.08250000 0.08250610 23688.02099376 0 -68.32023017 0 6474.20976796 0 -895.00701760 0 2857.22449178 0 7227
0.08350000 0.08350160 23640.63144354 0 534.21531339 0 7007.92904119 0 -613.91612189 0 2958.52519154 0 7798
0.08450000 0.08449610 23261.18287200 0 901.28724024 0 7994.89393088 0 -449.37251723 0 3347.36309452 0 7371
0.08550000 0.08548940 22811.64648437 0 436.74453077 0 7689.79602050 0 33.39712118 0 4798.95595057 0 8256
0.08650000 0.08650700 22609.35510993 0 233.30827795 0 8034.20068398 0 1031.69708195 0 4937.94684402 0 8037
0.08750000 0.08749060 22415.70014885 0 214.41114118 0 7730.48681421 0 901.26731005 0 4105.10871581 0 8155
0.08850000 0.08849210 21991.18721531 0 654.98226741 0 8021.24606394 0 1290.59018086 0 3074.29741985 0 8718
0.08950000 0.08949900 21736.63446773 0 713.19833685 0 7201.05253068 0 -330.36052668 0 3186.71473373 0 8571
0.09050000 0.09049190 20623.53365371 0 632.91180235 0 7146.64312652 0 -1000.95145040 0 2662.49551519 0 8932
0.09150000 0.09150830 20346.61480999 0 830.43654096 0 7496.26285499 0 -1276.34009882 0 2548.51700351 0 9285
0.09250000 0.09250820 19905.82555896 0 298.01715866 0 7682.59900937 0 -222.20162893 0 888.20196677 0 9204
0.09350000 0.09350330 19542.54258166 0 98.23687677 0 7491.02564535 0 850.69446644 0 1449.86557338 0 9349
0.09450000 0.09448040 19749.48433252 0 306.56056449 0 7426.13074959 0 366.03777171 0 -47.83731504 0 9564
0.09550000 0.09549270 19339.36542124 0 125.26231791 0 7315.15283794 0 1326.92955092 0 -1127.28446211 0 10155
0.09650000 0.09649430 18719.42595464 0 363.15896726 0 6912.28629941 0 66.86853766 0 -206.62065344 0 9913
0.09750000 0.09749140 18625.97553318 0 435.52657504 0 6001.18897938 0 636.32540010 0 -284.02284732 0 10476
0.09850000 0.09850240 18724.51922406 0 -260.34246623 0 6071.23250618 0 477.63794803 0 165.48918120 0 10575
0.09950000 0.09950330 18414.05123615 0 107.87245672 0 5585.12422967 0 397.63154335 0 -455.36707389 0 10882
0.10050000 0.10051200 18360.68263052 0 372.58151568 0 5459.54192158 0 337.86645568 0 -15.25954590 0 10875
0.10150000 0.10150300 18044.89992669 0 334.03543129 0 5040.52086114 0 146.11150554 0 419.98435270 0 11118
0.10250000 0.10250800 17745.50426360 0 593.83203191 0 4939.66305437 0 442.37923687 0 -143.03339924 0 11575
0.10350000 0.10349800 17342.25019370 0 245.63620440 0 5389.15515271 0 32.60567140 0 617.88555034 0 11364
0.10450000 0.10450100 16798.37759861 0 217.96646468 0 5015.79635982 0 489.11994886 0 -688.16381043 0 12093
0.10550000 0.10551000 16885.84896468 0 345.61486859 0 5291.69654965 0 33.21232408 0 162.47197269 0 12067
0.10650000 0.10649700 16664.07029856 0 141.86194727 0 5474.55599403 0 -302.33647257 0 -219.58413134 0 12054
0.10750000 0.10749900 16608.37650472 0 156.20392961 0 5454.64795401 0 591.83126281 0 1181.50563675 0 12807
0.10850000 0.10850100 16398.99884240 0 64.65816946 0 5784.90218637 0 195.76202449 0 1587.58314947 0 12736
0.10950000 0.10950300 16563.53358921 0 -77.61854710 0 5684.25475377 0 740.56248040 0 1350.30322861 0 12933
0.11050000 0.11050200 16265.90949808 0 260.22620682 0 5957.07683730 0 832.33765913 0 1527.67079988 0 13428
0.11150000 0.11150900 16210.54787399 0 528.63264721 0 5804.73272012 0 186.67607474 0 1658.80034271 0 13453
0.11250000 0.11250000 15479.66371271 0 624.82568354 0 5681.17664747 0 261.93466654 0 2578.61158236 0 13668
0.11350000 0.11349100 15259.21372557 0 376.73142302 0 5213.43735783 0 -532.25440466 0 2188.16819228 0 13791
0.11450000 0.11448600 14925.16168579 0 335.00093802 0 5381.59275485 0 28.97328452 0 1889.48115798 0 14205
0.11550000 0.11549300 14644.03535865 0 -8.02294013 0 4970.31124947 0 -99.73817329 0 1123.90740304 0 14776
0.11650000 0.11649800 14497.88067104 0 40.00054498 0 4500.42392881 0 831.60467122 0 551.35305774 0 14553
0.11750000 0.11747300 14638.27774974 0 -309.61984783 0 4185.90347001 0 352.41327603 0 -219.87090455 0 14568
0.11850000 0.11849100 14817.31724206 0 -96.81109350 0 3767.80141254 0 152.34411718 0 -1274.78997335 0 16015
0.11950000 0.11950300 14666.29073153 0 484.52604130 0 3836.07336737 0 97.37091024 0 -779.53374207 0 15270
0.12050000 0.12050700 14408.52700975 0 242.17056674 0 3426.58557860 0 38.77838177 0 -170.70756789 0 15999
0.12150000 0.12150000 14286.17782051 0 225.06382489 0 4187.55324641 0 268.58249036 0 82.31919188 0 15670
0.12250000 0.12250700 14203.91044710 0 398.36453126 0 4173.62426179 0 14.42646418 0 -56.16514271 0 16887
0.12350000 0.12352200 13615.74855274 0 467.72821731 0 4152.15502397 0 401.31419859 0 530.53376538 0 16407
0.12450000 0.12449800 13467.37940017 0 231.59096037 0 4302.19609758 0 -548.02250243 0 674.26693555 0 16306
0.12550000 0.12549900 13218.14136850 0 312.66916609 0 4626.29411735 0 231.43594782 0 1242.68023137 0 17523
0.12650000 0.12650100 13478.23027849 0 6.07721156 0 4393.70886221 0 191.87342401 0 831.39651152 0 17154
0.12750000 0.12750600 12942.21903402 0 -37.48314121 0 4338.34723812 0 1.32801464 0 1173.38962266 0 18007
0.12850000 0.12850300 13165.65854886 0 42.24545884 0 4116.87859709 0 119.46595586 0 518.52140019 0 17496
0.12950000 0.12949900 12931.47887895 0 310.84887589 0 4123.47770269 0 307.73865985 0 607.81084199 0 18405
0.13050000 0.13049000 12856.85140967 0 378.87613234 0 4142.83212647 0 16.19571096 0 625.85208805 0 18100
0.13150000 0.13148800 12646.80940786 0 157.10632408 0 3778.81837573 0 151.38857555 0 892.56224828 0 19059
0.13250000 0.13249300 12290.28054870 0 -11.40748409 0 3585.35164418 0 416.15111384 0 852.00653693 0 18957
0.13350000 0.13349100 12511.06270558 0 -12.36955839 0 3214.72771552 0 467.41819222 0 184.70520093 0 19468
0.13450000 0.13450700 12462.56592288 0 125.57345023 0 3157.77167665 0 279.73785761 0 31.93225261 0 19953
0.13550000 0.13551000 12184.42912343 0 211.37621695 0 2687.65183718 0 390.36588381 0 35.33909623 0 19956
0.13650000 0.13649900 12032.62755017 0 162.38782302 0 2434.36133463 0 1.46748164 0 408.50345909 0 19723
0.13750000 0.13749600 11987.89535790 0 -82.09719177 0 2385.18914011 0 159.02626521 0 69.62089616 0 20946
0.13850000 0.13851100 12079.46348415 0 64.50470704 0 3025.13629765 0 160.87755792 0 -301.03547440 0 20955
0.13950000 0.13949800 11960.87888534 0 294.33671789 0 2826.41021181 0 -204.65199409 0 374.28443924 0 20506
0.14050000 0.14048300 11655.72561334 0 446.72290990 0 2912.11000590 0 -310.61414260 0 576.31450681 0 21447
0.14150000 0.14148400 11572.12956096 0 188.62148222 0 3393.82256946 0 -177.97433467 0 773.99204350 0 21771
0.14250000 0.14249400 11315.03017867 0 206.52764591 0 3970.92321134 0 -278.58633583 0 219.21210122 0 22470
0.14350000 0.14350900 11287.34936662 0 151.37750322 0 3966.41677513 0 114.84547472 0 499.96750549 0 22519
0.14450000 0.14449900 10973.03928200 0 288.06313864 0 4067.18600331 0 25.41674307 0 571.08061887 0 22218
0.14550000 0.14550500 10889.03355360 0 206.57193521 0 3802.16990877 0 352.86059795 0 414.41608054 0 23559
0.14650000 0.14650700 10664.06605793 0 78.47532360 0 3652.44993258 0 734.69193378 0 542.39111803 0 23044
0.14750000 0.14750500 10488.79115605 0 -2.99181967 0 3016.65489684 0 750.24965739 0 278.29513369 0 23649
0.14850000 0.14849900 10572.30970216 0 87.41356853 0 2750.16618311 0 211.76928448 0 290.98291070 0 23640
0.14950000 0.14949500 10275.02885311 0 176.17286742 0 2549.21455997 0 83.80454426 0 110.98455505 0 24457
0.15050000 0.15050000 10237.16150223 0 249.84811677 0 2497.31857355 0 -196.34110708 0 417.01586241 0 24591
0.15150000 0.15149900 10059.35103796 0 175.93038351 0 2586.74974111 0 -263.42500146 0 503.43092869 0 25020
0.15250000 0.15250500 9939.64813435 0 89.47335312 0 2629.03494959 0 -46.26227683 0 413.86689323 0 25297
0.15350000 0.15350100 10012.43759771 0 82.40444878 0 2636.88522789 0 433.47155156 0 115.99699650 0 25452
0.15450000 0.15450400 9842.07880805 0 -59.83451115 0 2343.40218624 0 355.55338734 0 69.13969293 0 26061
0.15550000 0.15549900 9826.66613190 0 180.96607684 0 2329.99360089 0 290.84672110 0 398.53172336 0 26128
0.15650000 0.15649500 9717.57051546 0 90.99491199 0 2267.37960404 0 211.05179783 0 148.78215029 0 26331
0.15750000 0.15749700 9453.60629178 0 224.99628371 0 2033.81998431 0 102.07609467 0 646.54737037 0 27345
0.15850000 0.15849900 9465.05507565 0 117.92800995 0 2034.96043377 0 75.09427849 0 298.64606671 0 26980
0.15950000 0.15949700 9356.31377360 0 -11.93851279 0 1972.74504061 0 171.97534908 0 674.71757917 0 27777
0.16050000 0.16050000 9319.52043823 0 72.17151691 0 1968.51541253 0 20.03293585 0 232.93181891 0 28224
0.16150000 0.16150500 9256.57427164 0 254.67232869 0 1860.36094370 0 95.58870884 0 569.60467797 0 28075
0.16250000 0.16249700 9132.47565507 0 214.25059247 0 1941.53215695 0 100.34892272 0 486.78590279 0 28590
0.16350000 0.16349900 8893.13628179 0 75.48812109 0 1633.86546721 0 109.30842652 0 548.88725100 0 29163
0.16450000 0.16449100 8891.34256517 0 11.45520581 0 1729.09853298 0 204.20577940 0 567.95600880 0 28996
0.16550000 0.16550500 8865.99801366 0 74.92177167 0 1577.06444089 0 174.23188888 0 475.94277510 0 30777
0.16650000 0.16650700 8823.61315425 0 -31.30489468 0 1528.61194749 0 138.55353662 0 378.92706504 0 29211
0.16750000 0.16749900 8869.37507273 0 -45.10422238 0 1475.97411530 0 -10.49895555 0 -4.84131867 0 30922
0.16850000 0.16850800 8786.74231261 0 166.29746092 0 1485.02020468 0 48.23237559 0 160.08810116 0 30867
0.16950000 0.16949900 8721.85848917 0 249.95551832 0 1382.57905545 0 -452.25575061 0 -140.54766232 0 30852
0.17050000 0.17049200 8473.70554533 0 234.49190947 0 1353.91280650 0 90.71677519 0 197.39297794 0 31257
0.17150000 0.17149500 8309.42546200 0 109.71743820 0 1569.38024747 0 39.46575169 0 220.60832138 0 32608
0.17250000 0.17250900 8235.82771893 0 167.56745657 0 1424.95284254 0 316.86889889 0 -21.85732281 0 32361
0.17350000 0.17350400 8062.71192039 0 212.12470611 0 1480.61341940 0 87.38001939 0 125.86022345 0 32508
0.17450000 0.17449800 7815.92087251 0 310.97842209 0 1561.80677729 0 -117.09758558 0 365.59930765 0 32791
0.17550000 0.17549800 7602.84505370 0 313.92144603 0 1845.03684616 0 -269.04309907 0 704.04927485 0 33633
0.17650000 0.17650100 7614.70351358 0 -7.54199156 0 2005.20909698 0 -133.49237694 0 864.66220420 0 33984
0.17750000 0.17750300 7577.57800846 0 -21.03309895 0 2107.66131853 0 75.17887105 0 808.97394653 0 34069
0.17850000 0.17849800 7724.88421785 0 -38.10928118 0 1948.93954225 0 42.29373417 0 413.51368607 0 34536
