### header ###
fiducial parameters:
Omega_m = 0.31
Omega_nu = 0
Omega_de = 0.69
Omega_k = 0
H_0 = 100
w_de = -1
zeff = 0
beta = 0
fgrowth = 0
b_1 = 2
gamma = 0.55
Lx = 3500 Ly = 3500 Lz = 3500
nx = 700 ny = 700 nz = 700
xoffset = -685.467585 yoffset = -31.7331281 zoffset = 572.489161
bins = 400 dk = 0.001
kx_ny = 0.628318531 ky_ny = 0.628318531 kz_ny = 0.628318531
############################
A(data) = 8.10045305 (not used)
A(ran) = 8.10127134 (used)
Ngal = 481323
weighted Ngal = 0
Nran = 23820508
weighted Nran = 0
SN(data) = 3487.25344
SN(ran) = 70.5650114
SN(data+ran) = 3557.81845
############################
13 columns: k_central k_mean P_0(k) sigma^{lin}_{P_0(k)} P^img_1(k) sigma^{lin}_{P_1(k)} P_2(k) sigma^{lin}_{P_2(k)} P^img_3(k) sigma^{lin}_{P_3(k)} P_4(k) sigma^{lin}_{P_4(k)} N_modes
### header ###
0.00050000 0 0 0 0 0 0 0 0 0 0 0 0
0.00150000 0.00179520 30074.64867241 0 -25636.75016185 0 8078.35711536 0 -44100.18396668 0 33446.94664242 0 3
0.00250000 0.00253879 53705.09357711 0 -18510.49118532 0 14885.41203969 0 -37854.94987597 0 543.74637059 0 6
0.00350000 0.00331552 56703.14696826 0 -3353.58574107 0 -4207.27305691 0 5617.77651556 0 17051.60166721 0 7
0.00450000 0.00420575 54939.65779439 0 10570.13952650 0 15728.79102113 0 -7611.09393569 0 34739.41911850 0 24
0.00550000 0.00557378 42717.13987359 0 3596.64541549 0 11223.01915943 0 30774.08743120 0 8788.38101668 0 45
0.00650000 0.00659388 58741.00835113 0 -14288.50300872 0 9124.20462843 0 57454.62565370 0 12839.57858295 0 40
0.00750000 0.00754703 56313.40113464 0 -17072.97125411 0 -23183.34442853 0 21398.70711426 0 -14822.74268122 0 57
0.00850000 0.00846663 68427.96388847 0 -22360.78141775 0 -37855.39276897 0 16652.44435750 0 -4670.41733175 0 75
0.00950000 0.00948925 82441.76251844 0 -19095.66355198 0 -31816.76825937 0 -10833.24010884 0 -10530.41202505 0 112
0.01050000 0.01054430 94561.41854168 0 -2990.38027005 0 -35391.80049682 0 -36177.04977296 0 -6028.94729770 0 105
0.01150000 0.01145670 90162.49461448 0 12698.96005775 0 -6901.65686758 0 -57936.71467630 0 -9253.39651441 0 144
0.01250000 0.01249090 84773.26195550 0 17536.23732452 0 -5452.90959901 0 -50460.90240525 0 -10770.72576291 0 169
0.01350000 0.01339930 78773.50130602 0 17131.21168266 0 7520.97628399 0 -35504.51676347 0 -26118.39629146 0 180
0.01450000 0.01448870 74147.59472004 0 1691.49691789 0 41490.65845342 0 -28059.59627866 0 -31909.11144836 0 267
0.01550000 0.01550050 76649.27578956 0 -6985.67366831 0 57250.11981430 0 1128.72386434 0 -46475.52981003 0 238
0.01650000 0.01653350 85772.31782388 0 -6003.15985320 0 61378.10395319 0 -6072.38402797 0 -63601.31605352 0 315
0.01750000 0.01747870 87278.48616897 0 5606.31665937 0 61220.54477102 0 2555.93546114 0 -49877.50161056 0 297
0.01850000 0.01844180 78497.91114128 0 14253.07156930 0 52637.05712511 0 4015.82148847 0 -43147.74258578 0 388
0.01950000 0.01947590 72584.84679513 0 7065.80408302 0 55823.78293116 0 11162.89643566 0 -34907.49700925 0 399
0.02050000 0.02045430 67410.30651439 0 -802.81109053 0 41903.98833890 0 24344.94202525 0 -35189.84129213 0 462
0.02150000 0.02154770 69055.65398244 0 -1366.76777561 0 38458.94519483 0 19837.73076133 0 -32306.49718610 0 571
0.02250000 0.02255340 64287.46802254 0 -1094.69528847 0 26936.30892581 0 5858.84317151 0 -34286.89320316 0 510
0.02350000 0.02348930 68584.85873115 0 3893.67160108 0 31365.90319276 0 6475.99241225 0 -20770.68485055 0 555
0.02450000 0.02439640 63529.12449571 0 -1527.38291943 0 20582.01243564 0 8742.68553215 0 -13932.30631930 0 592
0.02550000 0.02547300 68567.91807418 0 -3930.34314087 0 13269.40623241 0 5574.36192995 0 -10991.75151094 0 837
0.02650000 0.02652900 70439.91603126 0 -3237.02737771 0 12537.63628515 0 3450.77860833 0 -7431.23509133 0 723
0.02750000 0.02749970 72322.32197368 0 -2034.06357546 0 8820.52397563 0 9646.96230009 0 -18403.20035782 0 826
0.02850000 0.02848090 71089.64005162 0 3929.63451209 0 6596.33751071 0 -1041.96887769 0 -1773.76429130 0 831
0.02950000 0.02946900 63941.90076495 0 6793.10379506 0 4348.10195628 0 -1495.05173096 0 -6573.68353413 0 996
0.03050000 0.03053250 61215.89439459 0 2863.74609109 0 3937.15262064 0 3125.26333099 0 -7143.88611764 0 1041
0.03150000 0.03150510 55868.07223044 0 2275.69491998 0 4061.25123721 0 2586.55043926 0 599.97938665 0 1036
0.03250000 0.03246190 59207.70684224 0 1787.04000876 0 5556.13688330 0 -4891.39879048 0 -7400.15507557 0 1059
0.03350000 0.03345080 55575.31996223 0 3554.29377306 0 9703.20971017 0 -8749.87147096 0 -3346.99770780 0 1302
0.03450000 0.03451200 54572.94239640 0 1032.70687798 0 14720.76656964 0 -11564.93254983 0 -8769.95666818 0 1339
0.03550000 0.03553350 54589.66160688 0 1453.97340589 0 22324.24274585 0 -10916.60364240 0 -9032.90223798 0 1365
0.03650000 0.03647120 55466.36828602 0 970.00208806 0 23918.87896623 0 -6966.49640172 0 -12997.24848837 0 1308
0.03750000 0.03744890 52838.90560655 0 1267.06149062 0 28683.85395194 0 1035.15829069 0 -14006.04800259 0 1579
0.03850000 0.03847530 52462.00366972 0 3316.72597175 0 28250.92605153 0 21.31068213 0 -14735.60348490 0 1662
0.03950000 0.03950240 50068.38849043 0 2222.37060365 0 28613.87685908 0 9096.99992635 0 -13052.49938921 0 1683
0.04050000 0.04050350 49728.68956499 0 -182.56381331 0 23728.10280961 0 7885.12290262 0 -11215.48997855 0 1822
0.04150000 0.04152450 46698.85860162 0 461.17782995 0 23583.49824748 0 6867.05585252 0 -6512.90754320 0 1887
0.04250000 0.04250150 46174.91619120 0 2034.86078285 0 17979.01959402 0 4600.73919167 0 -7510.51293704 0 1920
0.04350000 0.04349210 44434.45745296 0 2160.15521049 0 15781.93818026 0 -650.35625011 0 -1037.44361853 0 2005
0.04450000 0.04448520 42806.93642786 0 1666.67276565 0 19782.81203023 0 1797.64729593 0 2938.07460760 0 2151
0.04550000 0.04548030 42023.79089344 0 20.40474452 0 16342.30853933 0 2233.95225541 0 -447.86003766 0 2274
0.04650000 0.04648670 42052.57893797 0 1799.28600000 0 19106.29298381 0 4666.11019740 0 6507.91392471 0 2311
0.04750000 0.04749250 41419.24195834 0 1083.55542247 0 18367.21530216 0 1617.57807741 0 3016.04591898 0 2568
0.04850000 0.04851840 39280.73314287 0 1139.04327107 0 21016.49046152 0 2385.15592313 0 5807.88833270 0 2493
0.04950000 0.04949480 38692.12835551 0 2956.58753470 0 19720.14267175 0 202.69883599 0 7710.96630555 0 2644
0.05050000 0.05050630 36910.70201544 0 1073.14854438 0 19994.51488076 0 2792.63962111 0 7533.56551731 0 2829
0.05150000 0.05149060 36422.52321419 0 -1147.79040768 0 18791.72823571 0 1677.47935467 0 7598.65971492 0 2784
0.05250000 0.05249300 37265.12713288 0 544.94107444 0 15980.79713400 0 3265.62719271 0 4659.76575528 0 3055
0.05350000 0.05348950 36290.65182560 0 188.78867432 0 14839.24044520 0 492.53797554 0 3553.88409704 0 3009
0.05450000 0.05448610 35989.26314403 0 984.31749682 0 12958.82752125 0 1033.53730234 0 218.94082927 0 3336
0.05550000 0.05550870 35142.23029541 0 -145.67968487 0 11256.90047337 0 -606.71911076 0 1678.11047719 0 3349
0.05650000 0.05647670 35365.66981025 0 342.75488709 0 11284.02766918 0 328.31768275 0 -116.28598418 0 3324
0.05750000 0.05747970 35679.45949561 0 -705.90942542 0 11601.13905198 0 2893.65244043 0 670.88212585 0 3639
0.05850000 0.05849280 35722.08794616 0 -301.04876119 0 11443.80131631 0 1693.33492381 0 -765.48074741 0 3846
0.05950000 0.05951020 35629.74475717 0 1747.01355454 0 11550.42780432 0 -1024.15129259 0 -2485.11687160 0 3787
0.06050000 0.06049470 34491.39904257 0 2270.25840849 0 13373.04319271 0 -2510.72715890 0 -682.16593208 0 3930
0.06150000 0.06148310 32368.50220509 0 1529.49773347 0 12496.44723682 0 -1153.18262986 0 2477.35517190 0 4083
0.06250000 0.06249100 31604.84396234 0 418.34897032 0 14684.33862099 0 997.40609199 0 819.62995193 0 4303
0.06350000 0.06350600 32041.64717644 0 -401.92649815 0 13270.84563464 0 1075.10170247 0 -1055.47047057 0 4470
0.06450000 0.06451750 31715.45648728 0 123.82291568 0 13001.45597180 0 1037.68056628 0 -2479.65821546 0 4479
0.06550000 0.06550280 31174.68414314 0 998.00178306 0 11447.89807649 0 1451.59285605 0 -255.28462825 0 4636
0.06650000 0.06648880 30489.63940661 0 1166.97874659 0 10803.53306135 0 2351.58463428 0 -1841.28332804 0 4653
0.06750000 0.06749660 28786.82657275 0 345.15758157 0 10072.21707940 0 999.07247687 0 -1490.56743941 0 5220
0.06850000 0.06852730 28567.04092510 0 839.51141838 0 9852.48679338 0 1392.31162897 0 -977.04187218 0 5029
0.06950000 0.06949320 27919.86353945 0 338.59722912 0 8749.87147096 0 726.48180493 0 -193.35600831 0 5040
0.07050000 0.07048030 27800.72532440 0 -793.07298086 0 8292.93877034 0 1404.25866745 0 -75.64224785 0 5475
0.07150000 0.07148790 29224.07267984 0 -656.91881703 0 7219.04505851 0 -768.15692832 0 -1112.92365682 0 5509
0.07250000 0.07249820 29338.22834872 0 -249.38972252 0 9520.00702372 0 -245.42250854 0 -311.25633744 0 5916
0.07350000 0.07351270 30675.87591006 0 -58.98548528 0 9491.23005152 0 -142.80641658 0 -377.25625122 0 5721
0.07450000 0.07449140 29077.25365274 0 550.01773537 0 9613.86712121 0 1642.18078315 0 1954.32069212 0 6028
0.07550000 0.07549160 28933.42415335 0 1344.34631786 0 9461.34584683 0 74.11825306 0 628.92022926 0 6183
0.07650000 0.07648840 27916.76328850 0 970.81147501 0 10469.54745552 0 666.06898626 0 2278.57372443 0 6330
0.07750000 0.07749960 27291.84127574 0 712.60818193 0 10493.93978709 0 657.20005408 0 2230.67484726 0 6583
0.07850000 0.07848650 26724.82752177 0 341.00656700 0 10343.30080794 0 44.70351495 0 2522.61883576 0 6549
0.07950000 0.07947320 25931.16327877 0 948.19071540 0 9419.38173577 0 -366.91691431 0 948.34794241 0 6828
0.08050000 0.08048110 25342.44776817 0 1252.21350304 0 9042.69017311 0 329.73161863 0 1317.38520692 0 7147
0.08150000 0.08149960 24136.89304191 0 898.16484464 0 9813.39041444 0 -168.72230005 0 1714.31697935 0 7386
0.08250000 0.08250610 23277.12701974 0 1247.78457311 0 9778.12505989 0 326.94471448 0 73.62929920 0 7227
0.08350000 0.08350160 22864.01858076 0 745.92702178 0 9889.81160034 0 78.52027724 0 1170.36687798 0 7798
0.08450000 0.08449610 22131.36284751 0 528.92163489 0 9597.65723767 0 774.36628807 0 1309.55707328 0 7371
0.08550000 0.08548940 22097.37081032 0 1.65089470 0 10063.48101512 0 320.67667140 0 3175.70884286 0 8256
0.08650000 0.08650700 21992.62661753 0 60.52177035 0 9727.61311407 0 2425.72492127 0 2470.88893420 0 8037
0.08750000 0.08749060 22063.93238936 0 -36.06477640 0 8685.35303424 0 1137.51529024 0 2041.85849213 0 8155
0.08850000 0.08849210 22069.68999827 0 307.79512870 0 7940.29629720 0 845.73849386 0 1313.06700024 0 8718
0.08950000 0.08949900 21481.74955040 0 330.44467635 0 7806.73084291 0 -196.69763594 0 1327.23957601 0 8571
0.09050000 0.09049190 21259.63871454 0 440.27549516 0 6989.05072738 0 -101.64283460 0 1104.32599660 0 8932
0.09150000 0.09150830 20548.57401468 0 424.78199104 0 7192.10609223 0 -204.34086176 0 750.18100897 0 9285
0.09250000 0.09250820 20423.45674423 0 312.41339539 0 6937.17688560 0 385.87051993 0 -180.95943344 0 9204
0.09350000 0.09350330 19821.01155085 0 385.69225550 0 6544.19793314 0 673.57159355 0 -366.44966220 0 9349
0.09450000 0.09448040 19703.31273803 0 497.89255182 0 5967.34088241 0 356.26644506 0 -399.60573887 0 9564
0.09550000 0.09549270 19322.31404102 0 621.72543259 0 6901.72330153 0 -97.50145295 0 -1161.39829488 0 10155
0.09650000 0.09649430 18896.47242849 0 603.80044594 0 6810.46520038 0 -96.70690292 0 1091.11892756 0 9913
0.09750000 0.09749140 18333.66615796 0 370.13563913 0 6852.51789004 0 515.79539382 0 415.80676454 0 10476
0.09850000 0.09850240 18233.12944861 0 27.49313614 0 6866.95620160 0 121.90186732 0 2021.52970376 0 10575
0.09950000 0.09950330 18437.19239502 0 26.66038659 0 7869.17875489 0 1186.89785893 0 1430.53329424 0 10882
0.10050000 0.10051200 17992.41710705 0 232.82663182 0 6887.09676045 0 391.03908116 0 2573.06434763 0 10875
0.10150000 0.10150300 17824.11776981 0 575.59702016 0 7050.26961130 0 966.37811615 0 1810.29189087 0 11118
0.10250000 0.10250800 17359.41229717 0 342.08279697 0 6553.11115462 0 -205.60089232 0 1838.63704241 0 11575
0.10350000 0.10349800 16674.92117688 0 605.87097068 0 6449.73993011 0 -163.11084583 0 1642.94477357 0 11364
0.10450000 0.10450100 16313.40977155 0 496.09883520 0 7263.83261240 0 -307.17286405 0 2371.03870899 0 12093
0.10550000 0.10551000 16110.56478087 0 157.07642881 0 6344.07673437 0 1048.85364926 0 1550.08118531 0 12067
0.10650000 0.10649700 16043.57721572 0 -149.42877406 0 6129.03004174 0 603.82369782 0 953.43013951 0 12054
0.10750000 0.10749900 15992.75524480 0 281.11636205 0 6115.27821431 0 378.47863588 0 700.74640035 0 12807
0.10850000 0.10850100 15717.27580332 0 349.02735910 0 6470.98772144 0 -344.08688776 0 1024.21551207 0 12736
0.10950000 0.10950300 15410.57240584 0 455.30839057 0 6346.87803254 0 -109.18142696 0 1173.63321380 0 12933
0.11050000 0.11050200 14907.55668933 0 460.51459769 0 7096.05367442 0 372.24934594 0 2300.43049362 0 13428
0.11150000 0.11150900 14872.34669641 0 278.69373738 0 6498.81247371 0 551.76051929 0 1164.50961815 0 13453
0.11250000 0.11250000 14707.81194960 0 94.75219470 0 6457.19160471 0 261.56706535 0 1531.57933054 0 13668
0.11350000 0.11349100 14687.32814869 0 217.52689339 0 6290.75241804 0 209.18611110 0 719.31801077 0 13791
0.11450000 0.11448600 14461.00982939 0 124.62123030 0 5618.44085505 0 113.08940400 0 772.12746400 0 14205
0.11550000 0.11549300 14246.87106740 0 -64.60291856 0 5417.23456845 0 259.09572245 0 436.01707903 0 14776
0.11650000 0.11649800 14460.78838290 0 -185.64524130 0 5025.69501821 0 532.68733256 0 61.16352230 0 14553
0.11750000 0.11747300 14266.35835908 0 -6.91730206 0 4694.95360355 0 441.45580498 0 -538.96534073 0 14568
0.11850000 0.11849100 14409.19134924 0 -80.92895078 0 4009.15594893 0 488.87525049 0 -1144.64586743 0 16015
0.11950000 0.11950300 14134.15480075 0 212.01066116 0 4026.10767823 0 19.51309020 0 -611.06056932 0 15270
0.12050000 0.12050700 14219.63314835 0 204.79371985 0 3750.67252604 0 2.21881639 0 -735.32748523 0 15999
0.12150000 0.12150000 14088.86899224 0 47.88691905 0 3795.02825927 0 46.62943513 0 -186.14349592 0 15670
0.12250000 0.12250700 13892.44594996 0 235.10642350 0 3931.64967520 0 -21.12577431 0 -393.96771107 0 16887
0.12350000 0.12352200 13702.22340957 0 373.30675296 0 3984.47573691 0 86.17114296 0 51.60068752 0 16407
0.12450000 0.12449800 13746.84487859 0 229.91903932 0 4376.77927756 0 170.88140339 0 -268.52602150 0 16306
0.12550000 0.12549900 13496.05672145 0 144.74628789 0 4275.91039846 0 280.17742891 0 431.25930106 0 17523
0.12650000 0.12650100 13558.17246368 0 98.35911523 0 4470.91618317 0 -59.46502767 0 94.27398099 0 17154
0.12750000 0.12750600 13385.44419651 0 164.84145020 0 4523.66473861 0 -11.14606650 0 677.99609455 0 18007
0.12850000 0.12850300 13265.64164197 0 214.18083683 0 4700.95480360 0 -128.42457387 0 690.46906846 0 17496
0.12950000 0.12949900 12951.51978687 0 266.33813012 0 4522.30284265 0 462.05032915 0 652.59396695 0 18405
0.13050000 0.13049000 12814.55512886 0 262.22254698 0 4682.79619090 0 255.20158582 0 542.87276416 0 18100
0.13150000 0.13148800 12696.19197655 0 93.93450351 0 4325.17117158 0 371.36909611 0 483.07445951 0 19059
0.13250000 0.13249300 12514.82729602 0 29.86682114 0 4384.56312191 0 367.01435076 0 628.69324660 0 18957
0.13350000 0.13349100 12464.11604835 0 123.05117464 0 3662.47038654 0 348.82030662 0 300.26926952 0 19468
0.13450000 0.13450700 12307.11048242 0 72.57742834 0 3535.41545924 0 528.12664197 0 344.50431441 0 19953
0.13550000 0.13551000 12164.05604576 0 164.63439773 0 3443.75875439 0 340.40976869 0 339.49962359 0 19956
0.13650000 0.13649900 12123.42061368 0 263.78485201 0 3331.39680214 0 104.33429532 0 202.37884580 0 19723
0.13750000 0.13749600 11792.69027135 0 303.20565007 0 3151.17257106 0 165.84238837 0 515.84964821 0 20946
0.13850000 0.13851100 11566.59339855 0 106.34071130 0 3114.01384897 0 94.78297576 0 317.28632554 0 20955
0.13950000 0.13949800 11450.99832744 0 167.92841436 0 3138.16258940 0 161.65704958 0 466.17919907 0 20506
0.14050000 0.14048300 11368.39878430 0 120.02510827 0 3218.20442551 0 -111.93013159 0 495.14107910 0 21447
0.14150000 0.14148400 11365.51997984 0 74.20472792 0 3311.88736580 0 71.88551876 0 918.85459080 0 21771
0.14250000 0.14249400 11196.00268687 0 179.08710331 0 3179.10804658 0 217.62765154 0 806.82370105 0 22470
0.14350000 0.14350900 11218.47950625 0 160.98385224 0 3203.36751026 0 40.25897304 0 587.32593384 0 22519
0.14450000 0.14449900 10919.00633688 0 188.77317307 0 3090.44086943 0 216.27572068 0 661.79949781 0 22218
0.14550000 0.14550500 10990.55569986 0 123.94914018 0 3076.64475271 0 98.02550608 0 841.92739965 0 23559
0.14650000 0.14650700 10733.53382385 0 116.21844299 0 3077.02121175 0 89.56436763 0 694.29787838 0 23044
0.14750000 0.14750500 10864.20940136 0 56.86934256 0 3196.17049912 0 -212.93741475 0 628.36218409 0 23649
0.14850000 0.14849900 10792.29465166 0 95.41531623 0 3267.91916395 0 242.80168925 0 557.71189388 0 23640
0.14950000 0.14949500 10530.32344645 0 262.72190883 0 3414.06277923 0 -91.07640431 0 771.64803233 0 24457
0.15050000 0.15050000 10451.31133654 0 111.95670517 0 3401.59534149 0 386.05653499 0 927.66705412 0 24591
0.15150000 0.15149900 10366.68555795 0 38.40214417 0 3206.64491840 0 498.62332526 0 929.46962860 0 25020
0.15250000 0.15250500 10374.42511300 0 193.97938020 0 3226.78547725 0 142.55618204 0 794.82683711 0 25297
0.15350000 0.15350100 10099.43285381 0 275.35100252 0 3179.17448053 0 -126.97742102 0 975.80398627 0 25452
0.15450000 0.15450400 9985.98581371 0 230.64316937 0 3281.69313602 0 -188.15201564 0 1013.87063899 0 26061
0.15550000 0.15549900 9597.17005538 0 191.09282512 0 2947.10962465 0 138.59007529 0 1009.00545947 0 26128
0.15650000 0.15649500 9688.83783256 0 21.33935945 0 2818.06167889 0 568.68013885 0 583.91676503 0 26331
0.15750000 0.15749700 9521.50178757 0 -57.39527799 0 2527.22492288 0 403.01490768 0 607.67797409 0 27345
0.15850000 0.15849900 9552.50429706 0 107.44650438 0 2322.66372186 0 357.22420116 0 49.09812067 0 26980
0.15950000 0.15949700 9414.68707005 0 241.28920968 0 2258.18957444 0 -309.91880060 0 82.59101746 0 27777
0.16050000 0.16050000 9171.77133585 0 324.77675328 0 2103.67528159 0 -245.25753090 0 305.37804020 0 28224
0.16150000 0.16150500 9142.40753043 0 41.82714640 0 2412.08381709 0 -262.61893621 0 333.87045365 0 28075
0.16250000 0.16249700 9063.24040798 0 -11.92666540 0 2373.88429647 0 69.55180486 0 260.19520431 0 28590
0.16350000 0.16349900 9088.85069528 0 89.94414837 0 2380.56090833 0 57.99285136 0 38.70807250 0 29163
0.16450000 0.16449100 8975.42579984 0 155.55066245 0 2446.60732588 0 289.69519932 0 19.75468833 0 28996
0.16550000 0.16550500 8883.69158872 0 140.75028586 0 2538.85086394 0 211.69067098 0 173.39925005 0 30777
0.16650000 0.16650700 8638.77176373 0 221.19736906 0 2231.48312698 0 201.86508993 0 158.50918764 0 29211
0.16750000 0.16749900 8537.10567725 0 241.01018709 0 2434.17310511 0 28.38733709 0 80.72034818 0 30922
0.16850000 0.16850800 8388.20505308 0 106.87428663 0 2075.87267397 0 -34.18203829 0 98.82636734 0 30867
0.16950000 0.16949900 8256.92049771 0 108.68239728 0 2095.71428005 0 -160.99935349 0 99.37489031 0 30852
0.17050000 0.17049200 8229.14003474 0 7.96358140 0 1811.10017059 0 29.62666241 0 -287.37001111 0 31257
0.17150000 0.17149500 8261.86982690 0 -1.00139988 0 2118.49005220 0 -37.13679889 0 -325.23293306 0 32608
0.17250000 0.17250900 8247.91869763 0 156.77969050 0 1971.71531441 0 -156.90037884 0 -765.71215900 0 32361
0.17350000 0.17350400 8029.16277619 0 318.68033123 0 2185.89836570 0 -82.07903316 0 -341.33984397 0 32508
0.17450000 0.17449800 7947.41580205 0 121.86975758 0 2358.73735612 0 89.84671191 0 161.84527911 0 32791
0.17550000 0.17549800 7904.43303711 0 79.83124050 0 2494.25153957 0 221.22726434 0 70.17130143 0 33633
0.17650000 0.17650100 7881.96729005 0 -76.51629717 0 2463.39297030 0 198.77258961 0 254.67897208 0 33984
0.17750000 0.17750300 7933.30966024 0 20.59308476 0 2570.07481993 0 193.66271171 0 473.61205072 0 34069
0.17850000 0.17849800 7892.72958977 0 6.64973933 0 2434.97031249 0 196.05544110 0 797.29928724 0 34536
