### header ###
fiducial parameters:
Omega_m = 0.31
Omega_nu = 0
Omega_de = 0.69
Omega_k = 0
H_0 = 100
w_de = -1
zeff = 0
beta = 0
fgrowth = 0
b_1 = 2
gamma = 0.55
Lx = 3500 Ly = 3500 Lz = 3500
nx = 700 ny = 700 nz = 700
xoffset = -685.467585 yoffset = -31.7331281 zoffset = 572.489161
bins = 400 dk = 0.001
kx_ny = 0.628318531 ky_ny = 0.628318531 kz_ny = 0.628318531
############################
A(data) = 8.02536027 (not used)
A(ran) = 8.02694576 (used)
Ngal = 476821
weighted Ngal = 0
Nran = 23820508
weighted Nran = 0
SN(data) = 3482.89531
SN(ran) = 69.9176087
SN(data+ran) = 3552.81292
############################
13 columns: k_central k_mean P_0(k) sigma^{lin}_{P_0(k)} P^img_1(k) sigma^{lin}_{P_1(k)} P_2(k) sigma^{lin}_{P_2(k)} P^img_3(k) sigma^{lin}_{P_3(k)} P_4(k) sigma^{lin}_{P_4(k)} N_modes
### header ###
0.00050000 0 0 0 0 0 0 0 0 0 0 0 0
0.00150000 0.00179520 11409.92000237 0 -22882.73080970 0 -1632.99075355 0 -24091.05361716 0 -6414.50779254 0 3
0.00250000 0.00253879 25086.89851135 0 -24496.74359852 0 -4484.82302314 0 -2115.83269424 0 16933.57068464 0 6
0.00350000 0.00331552 47984.13406657 0 -29621.45841758 0 -2468.56374599 0 -34047.06664759 0 -36864.19825120 0 7
0.00450000 0.00420575 64626.50260848 0 -10795.80457863 0 13452.21031517 0 -41199.23486420 0 6813.20006461 0 24
0.00550000 0.00557378 65155.09539532 0 22194.58582222 0 31285.51811457 0 -53587.17331780 0 8534.66976579 0 45
0.00650000 0.00659388 50895.26970789 0 22549.01093967 0 55173.94818756 0 -19919.88741148 0 51176.28531178 0 40
0.00750000 0.00754703 56908.87076339 0 -14755.64439282 0 56219.17565044 0 15985.33678718 0 -13733.33664231 0 57
0.00850000 0.00846663 63391.82766795 0 -11743.63987240 0 77157.16332899 0 11763.90222682 0 -22413.81785363 0 75
0.00950000 0.00948925 85947.03910952 0 3833.60423893 0 70829.32969514 0 19451.63879490 0 -51083.05633681 0 112
0.01050000 0.01054430 68852.47682201 0 19114.92939717 0 65799.17253002 0 -437.79529440 0 -16878.20906055 0 105
0.01150000 0.01145670 61600.54695879 0 14241.55635149 0 46618.14135369 0 10079.11513776 0 3490.34002491 0 144
0.01250000 0.01249090 62749.30065873 0 -11606.01087491 0 53301.39661423 0 26208.85718522 0 -21648.16659242 0 169
0.01350000 0.01339930 65608.61781990 0 -5152.11882299 0 48500.43657286 0 35941.20925432 0 -24324.67967084 0 180
0.01450000 0.01448870 74924.31830606 0 -704.92731021 0 31442.96657350 0 13123.69443780 0 -41342.51074735 0 267
0.01550000 0.01550050 65329.92740421 0 337.21540298 0 14499.98441275 0 5373.55424704 0 -16609.04084421 0 238
0.01650000 0.01653350 65857.30223532 0 5614.86449413 0 12775.24837575 0 1617.53378811 0 -8784.17353325 0 315
0.01750000 0.01747870 67164.94379640 0 -1045.30718362 0 10788.10931288 0 11755.48725996 0 -12437.09957579 0 297
0.01850000 0.01844180 66095.91083516 0 -2328.53205401 0 9463.05098485 0 11413.46314631 0 -11331.86011240 0 388
0.01950000 0.01947590 62447.91197717 0 5249.07917143 0 14742.24687979 0 625.66164406 0 -5947.02316637 0 399
0.02050000 0.02045430 63751.01388507 0 2306.99638224 0 12317.29702125 0 -3303.88207496 0 2997.96481255 0 462
0.02150000 0.02154770 63309.56029455 0 143.73538463 0 22360.78141775 0 -6958.41360460 0 7963.93571068 0 571
0.02250000 0.02255340 65500.66265291 0 915.23947674 0 31465.88628587 0 -4772.90277027 0 10408.15141440 0 510
0.02350000 0.02348930 68201.42412268 0 -604.59765333 0 25245.34347951 0 1880.23576675 0 905.87228995 0 555
0.02450000 0.02439640 71025.97418392 0 -5105.22752738 0 28413.13561012 0 6740.33309498 0 5714.85865957 0 592
0.02550000 0.02547300 74089.13284499 0 -1851.38128828 0 23050.69797720 0 -396.16667478 0 -5517.10693831 0 837
0.02650000 0.02652900 73469.08265515 0 4401.23804309 0 21524.15655446 0 2472.09581761 0 -9784.38092342 0 723
0.02750000 0.02749970 68474.68909920 0 6209.00544390 0 19327.18586394 0 -7962.67346565 0 -16927.03801300 0 826
0.02850000 0.02848090 60337.19469699 0 7028.84466277 0 20680.88829627 0 2942.76927333 0 -10856.08231494 0 831
0.02950000 0.02946900 54437.97075686 0 2981.96530318 0 15694.24536769 0 3683.25314022 0 -13086.49142641 0 996
0.03050000 0.03053250 53720.70555511 0 2228.13928488 0 19449.53505319 0 5743.21488343 0 -19459.16797578 0 1041
0.03150000 0.03150510 52089.64138607 0 -251.25319478 0 16583.13160413 0 71.43819684 0 -14366.78434519 0 1036
0.03250000 0.03246190 53654.82522244 0 -1508.92535396 0 18847.08985980 0 -292.28169440 0 -13407.47812290 0 1059
0.03350000 0.03345080 53787.91456676 0 684.75242715 0 19106.18226056 0 500.71267295 0 -6024.66230800 0 1302
0.03450000 0.03451200 55983.88874804 0 -2958.49197457 0 16247.19726914 0 2650.19416232 0 -6097.11960161 0 1339
0.03550000 0.03553350 56750.97941148 0 -965.62519806 0 14207.45359105 0 5592.33231313 0 -7729.13599058 0 1365
0.03650000 0.03647120 58047.65937099 0 1050.80348566 0 13316.79578263 0 2720.29305074 0 -9989.34072813 0 1308
0.03750000 0.03744890 54474.28798227 0 3604.29639194 0 13905.40056999 0 1344.54561970 0 -147.46122193 0 1579
0.03850000 0.03847530 51741.97038677 0 6433.00964731 0 15098.22212271 0 -239.92399203 0 820.25221659 0 1662
0.03950000 0.03950240 48163.61645188 0 2084.75267848 0 16364.56391221 0 2792.05278789 0 6940.87504209 0 1683
0.04050000 0.04050350 45477.02755788 0 2158.83760384 0 20336.31754791 0 -758.95250469 0 6827.04047063 0 1822
0.04150000 0.04152450 45308.61749739 0 2192.53068826 0 22024.51491301 0 -882.62262229 0 7041.10172635 0 1887
0.04250000 0.04250150 44237.03790144 0 1049.73057738 0 26023.94936075 0 -2324.60137870 0 10832.24359960 0 1920
0.04350000 0.04349210 42311.44989223 0 596.67651215 0 24226.68959619 0 1811.32161708 0 10361.24904647 0 2005
0.04450000 0.04448520 43836.33046625 0 1351.41046109 0 27006.83963490 0 66.04741405 0 6400.47915699 0 2151
0.04550000 0.04548030 41751.41170290 0 1037.37275565 0 23876.47196218 0 3846.42599107 0 2706.72945284 0 2274
0.04650000 0.04648670 40807.49601211 0 -120.34842015 0 20493.21239059 0 898.41729364 0 -1464.91286281 0 2311
0.04750000 0.04749250 39688.41614269 0 1201.26973655 0 18025.30191176 0 5343.64789770 0 -5390.58348261 0 2568
0.04850000 0.04851840 39062.38689745 0 1324.56007341 0 16095.50641912 0 1712.92186642 0 -5607.15815606 0 2493
0.04950000 0.04949480 36246.80541931 0 1080.42084732 0 11182.93734358 0 943.97548134 0 -8555.02069880 0 2644
0.05050000 0.05050630 35987.15940232 0 1015.13731295 0 10409.05934503 0 2605.88271839 0 -9562.10400268 0 2829
0.05150000 0.05149060 35959.36786702 0 546.99277623 0 8454.37326620 0 281.07982338 0 -7249.08427574 0 2784
0.05250000 0.05249300 34370.93214854 0 -468.84430766 0 9042.71231776 0 129.60709816 0 -6091.20698016 0 3055
0.05350000 0.05348950 35677.90937013 0 -382.81898721 0 7600.40914224 0 1241.83873468 0 -4706.78991878 0 3009
0.05450000 0.05448610 36343.57753823 0 -1154.69953836 0 8625.98322856 0 1217.47962008 0 -7267.47540727 0 3336
0.05550000 0.05550870 36991.86215636 0 526.09597760 0 7552.67634994 0 -169.74316840 0 -5028.70669056 0 3349
0.05650000 0.05647670 36658.25300957 0 1116.00176312 0 10007.80936593 0 -1319.82111838 0 -795.63733128 0 3324
0.05750000 0.05747970 35875.21819840 0 817.92259945 0 11903.08134979 0 -803.94711106 0 -1200.48360149 0 3639
0.05850000 0.05849280 35366.77704273 0 843.33690660 0 13265.42019548 0 392.09538094 0 1454.90348117 0 3846
0.05950000 0.05951020 33381.61992599 0 2117.73713411 0 11893.33770395 0 902.43876202 0 1391.39262601 0 3787
0.06050000 0.06049470 33779.11638698 0 1264.79166403 0 12737.15957838 0 3048.02279305 0 3575.51941974 0 3930
0.06150000 0.06148310 31931.25609800 0 -72.98566495 0 11850.37708365 0 2139.53854168 0 3137.49824991 0 4083
0.06250000 0.06249100 32427.18552662 0 -758.99457953 0 9997.12457248 0 2524.83330072 0 1818.30825404 0 4303
0.06350000 0.06350600 32348.90419016 0 -177.05976064 0 9495.29359473 0 628.85158084 0 2055.42209003 0 4470
0.06450000 0.06451750 32655.60758763 0 845.38528669 0 8530.65051188 0 1293.26968347 0 774.73831819 0 4479
0.06550000 0.06550280 31000.84864349 0 1079.95913137 0 7616.89583389 0 952.73036858 0 1431.43015255 0 4636
0.06650000 0.06648880 29995.59227320 0 1429.11603667 0 7845.16288235 0 838.60459497 0 1098.56728046 0 4653
0.06750000 0.06749660 29354.72611270 0 -195.27484220 0 6215.73741739 0 495.25290958 0 -798.96567212 0 5220
0.06850000 0.06852730 29193.51306334 0 76.99373581 0 7136.36800909 0 208.98680925 0 -1498.47307933 0 5029
0.06950000 0.06949320 29564.54666801 0 391.71227850 0 6571.31405662 0 -1224.86486074 0 -950.79935513 0 5040
0.07050000 0.07048030 29199.82428849 0 525.01199700 0 8598.84496043 0 -2553.31132015 0 -2001.84311024 0 5475
0.07150000 0.07148790 28388.99794202 0 1626.41379261 0 10000.25804041 0 -1818.70685774 0 -1226.49249249 0 5509
0.07250000 0.07249820 27573.41049587 0 1649.46637288 0 10722.02967836 0 -1739.68367551 0 -2050.69420734 0 5916
0.07350000 0.07351270 26700.02551418 0 114.04605286 0 11432.06465200 0 1369.07081918 0 265.40030421 0 5721
0.07450000 0.07449140 26360.10514225 0 15.56325977 0 11367.84516806 0 1688.87277691 0 892.57110614 0 6028
0.07550000 0.07549160 26958.78574519 0 -149.60039509 0 10951.00535561 0 1299.52554699 0 -443.41782094 0 6183
0.07650000 0.07648840 27456.37602254 0 -206.40474311 0 10418.21615766 0 656.57778942 0 -174.47769449 0 6330
0.07750000 0.07749960 26593.17757968 0 507.35828230 0 10843.40450302 0 -1176.14663154 0 -529.63469261 0 6583
0.07850000 0.07848650 26924.46153825 0 946.08697369 0 10172.68735481 0 -779.68764738 0 -644.80569367 0 6549
0.07950000 0.07947320 25736.62253171 0 733.01669104 0 11574.89764216 0 -992.63502722 0 -1751.29854424 0 6828
0.08050000 0.08048110 24842.75374910 0 938.84124433 0 11304.62219334 0 2.24085031 0 -1582.27950588 0 7147
0.08150000 0.08149960 24656.40652240 0 496.92815233 0 11443.80131631 0 1252.20243072 0 -1667.66927489 0 7386
0.08250000 0.08250610 23775.16019009 0 275.54033927 0 10272.73688187 0 2680.32195815 0 -772.84937957 0 7227
0.08350000 0.08350160 23929.95129105 0 -56.61999381 0 9407.19110614 0 2276.43676574 0 -1153.34871473 0 7798
0.08450000 0.08449610 23578.07280831 0 128.38692797 0 8636.56837109 0 2422.18177733 0 33.19316896 0 7371
0.08550000 0.08548940 23255.20381660 0 683.06500485 0 8674.83432566 0 960.72458710 0 1044.90193653 0 8256
0.08650000 0.08650700 22104.89999119 0 489.64588429 0 7592.95746763 0 -261.84498071 0 1408.97547782 0 8037
0.08750000 0.08749060 21418.08368269 0 728.72395071 0 7584.37641590 0 855.77223461 0 2101.87049265 0 8155
0.08850000 0.08849210 21359.40036115 0 740.79721369 0 8391.88106492 0 -1075.05187701 0 751.65473541 0 8718
0.08950000 0.08949900 20883.84401019 0 562.36116307 0 8333.19774339 0 -1452.87724573 0 140.40925826 0 8571
0.09050000 0.09049190 20716.20901244 0 464.34340762 0 9277.58954414 0 -1562.91400978 0 466.55344365 0 8932
0.09150000 0.09150830 20158.82818107 0 635.02772363 0 9274.06854485 0 -1061.48274295 0 -456.49645102 0 9285
0.09250000 0.09250820 20140.55884512 0 356.10921805 0 10684.46128025 0 -1.36306962 0 233.06468681 0 9204
0.09350000 0.09350330 20152.07406293 0 -196.40754103 0 10118.34438460 0 1359.49325821 0 -672.16430107 0 9349
0.09450000 0.09448040 19821.56516709 0 182.09434673 0 10329.25002774 0 1846.07764469 0 234.65910158 0 9564
0.09550000 0.09549270 19588.04983667 0 783.16989354 0 9110.47494565 0 1515.91199092 0 -376.50776206 0 10155
0.09650000 0.09649430 18671.03989519 0 728.92325255 0 8368.28594074 0 1530.90391873 0 1592.28888752 0 9913
0.09750000 0.09749140 18043.34980122 0 508.84197383 0 7811.63588280 0 1602.98475329 0 981.55052285 0 10476
0.09850000 0.09850240 17529.81537613 0 554.72790234 0 7168.09021969 0 787.16478833 0 1107.19483596 0 10575
0.09950000 0.09950330 16761.28531047 0 377.44558798 0 6096.73207024 0 862.25286632 0 1141.42382090 0 10882
0.10050000 0.10051200 16763.49977543 0 92.99424169 0 5703.14413991 0 164.70415337 0 1012.09242363 0 10875
0.10150000 0.10150300 16442.51307894 0 -65.56953251 0 5132.86405013 0 907.25633055 0 618.45909677 0 11118
0.10250000 0.10250800 16675.14262338 0 -21.12510997 0 5121.33775999 0 105.55789794 0 -325.91609550 0 11575
0.10350000 0.10349800 16660.41643137 0 106.79091203 0 4691.69834005 0 -534.20977722 0 476.88613717 0 11364
0.10450000 0.10450100 16297.35490057 0 506.60536422 0 5503.87551015 0 -652.93499456 0 207.66920260 0 12093
0.10550000 0.10551000 15960.31333309 0 616.37307077 0 5723.28469876 0 -968.40435159 0 55.81592158 0 12067
0.10650000 0.10649700 15558.16649567 0 293.32027847 0 5858.02381948 0 -61.57308759 0 -274.77524163 0 12054
0.10750000 0.10749900 15187.24361425 0 257.30975646 0 6012.34988280 0 -41.41226639 0 -385.05891852 0 12807
0.10850000 0.10850100 15312.58233120 0 -85.57921648 0 5448.53603071 0 714.29892593 0 181.90168828 0 12736
0.10950000 0.10950300 15294.42371849 0 3.66927987 0 5393.53979333 0 799.95553796 0 -286.43772136 0 12933
0.11050000 0.11050200 15162.10943691 0 74.49471210 0 4487.46930877 0 724.51203835 0 399.41529488 0 13428
0.11150000 0.11150900 15068.65901544 0 68.83011073 0 4062.18131249 0 1098.97474201 0 108.59038626 0 13453
0.11250000 0.11250000 14997.24252036 0 211.11491008 0 4179.69189579 0 691.15776706 0 438.57589330 0 13668
0.11350000 0.11349100 14834.81151527 0 201.73443650 0 4001.38317691 0 43.45057067 0 120.21776672 0 13791
0.11450000 0.11448600 14627.75904116 0 295.23689789 0 3745.68997987 0 -327.38539301 0 737.28175056 0 14205
0.11550000 0.11549300 14531.42981524 0 155.53073226 0 4561.81996993 0 -362.27761021 0 588.28811887 0 14776
0.11650000 0.11649800 14407.41977727 0 109.73548609 0 4434.46608987 0 -326.06557189 0 412.89917204 0 14553
0.11750000 0.11747300 14265.80474284 0 195.49407423 0 4662.24595604 0 219.72696433 0 117.23598964 0 14568
0.11850000 0.11849100 14104.48097023 0 325.47873867 0 4411.69031772 0 304.89639407 0 -60.14542203 0 16015
0.11950000 0.11950300 13925.77364766 0 215.34343093 0 3984.02177160 0 446.29441093 0 346.43532786 0 15270
0.12050000 0.12050700 13848.37809718 0 -80.29982128 0 4114.44268563 0 461.70376538 0 136.58377003 0 15999
0.12150000 0.12150000 13751.16308527 0 -51.51720219 0 3816.90717311 0 77.35170408 0 249.66874510 0 15670
0.12250000 0.12250700 13853.47136659 0 250.93320460 0 4454.15268340 0 184.10618815 0 210.13058041 0 16887
0.12350000 0.12352200 13479.66968072 0 380.25906571 0 4071.32705279 0 -2.20268401 0 997.79473059 0 16407
0.12450000 0.12449800 13246.70796653 0 313.26485716 0 4488.10043129 0 220.41677016 0 1690.35646844 0 16306
0.12550000 0.12549900 13252.02268245 0 37.88639528 0 4346.49646918 0 214.15204878 0 1843.59744393 0 17523
0.12650000 0.12650100 13287.89701486 0 11.62416949 0 4433.23706181 0 718.76771623 0 1309.73423047 0 17154
0.12750000 0.12750600 13211.83014335 0 126.22782463 0 3993.11215027 0 107.42424901 0 1395.92120686 0 18007
0.12850000 0.12850300 12996.91631862 0 136.57159048 0 3814.70378047 0 -31.57871328 0 1640.16562004 0 17496
0.12950000 0.12949900 13000.57018581 0 0.90988822 0 3705.51958543 0 219.90855046 0 1205.34435208 0 18405
0.13050000 0.13049000 12976.43251771 0 108.34834524 0 3383.86854945 0 -23.86418168 0 632.32829084 0 18100
0.13150000 0.13148800 12827.84191864 0 131.00664002 0 3586.68032315 0 28.80133132 0 -119.46595586 0 19059
0.13250000 0.13249300 12630.75453687 0 170.12294914 0 3389.61508603 0 -216.47834423 0 -119.92656458 0 18957
0.13350000 0.13349100 12595.21237420 0 431.27148062 0 3799.74506964 0 -531.47380576 0 -341.72294641 0 19468
0.13450000 0.13450700 12191.84758106 0 544.08629096 0 4061.62769625 0 -549.67338606 0 192.68170373 0 19953
0.13550000 0.13551000 11773.64587266 0 368.59547875 0 4515.60408614 0 94.68177471 0 388.75375331 0 19956
0.13650000 0.13649900 11547.77044636 0 219.68046056 0 4403.68502687 0 494.87312884 0 413.73402534 0 19723
0.13750000 0.13749600 11433.17188449 0 50.61082168 0 4306.56966589 0 924.73510251 0 324.34936154 0 20946
0.13850000 0.13851100 11134.55128413 0 107.53475081 0 3766.80490330 0 551.97310793 0 320.17841678 0 20955
0.13950000 0.13949800 11099.11984471 0 136.74099705 0 3528.09665254 0 463.79754200 0 764.46541522 0 20506
0.14050000 0.14048300 10968.16745908 0 77.34738587 0 3098.40187098 0 327.77292437 0 456.45659065 0 21447
0.14150000 0.14148400 11055.25129378 0 -55.85578195 0 2824.55006124 0 -62.28514880 0 757.09124689 0 21771
0.14250000 0.14249400 11112.73880423 0 -235.73976048 0 2908.45613871 0 -37.61578766 0 312.04690143 0 22470
0.14350000 0.14350900 11290.56034082 0 37.55488987 0 2801.27603447 0 -46.11313262 0 285.86306770 0 22519
0.14450000 0.14449900 11285.46707141 0 116.09111126 0 3044.59037236 0 -40.37124641 0 -35.49920205 0 22218
0.14550000 0.14550500 11195.67051713 0 187.18872338 0 3209.01439591 0 -465.20594172 0 -515.95483529 0 23559
0.14650000 0.14650700 10928.88285062 0 347.90351813 0 3303.17344617 0 -408.60089555 0 -62.13866194 0 23044
0.14750000 0.14750500 10498.76732072 0 525.65862077 0 3397.79753407 0 -148.96705811 0 -486.72500501 0 23649
0.14850000 0.14849900 10348.56016223 0 328.17595700 0 3482.77762706 0 202.74201806 0 -56.27641957 0 23640
0.14950000 0.14949500 10072.32780265 0 65.12298565 0 3218.52552293 0 486.09498972 0 -334.37202997 0 24457
0.15050000 0.15050000 9914.51395701 0 207.25177596 0 2947.57466230 0 448.77904062 0 -212.15238692 0 24591
0.15150000 0.15149900 9839.70933054 0 200.74789236 0 3217.72831555 0 183.97664195 0 -438.84273633 0 25020
0.15250000 0.15250500 9450.15172644 0 260.31699988 0 2738.29665090 0 258.40259492 0 287.01791118 0 25297
0.15350000 0.15350100 9395.83090088 0 39.50516917 0 2883.24445510 0 168.06460396 0 155.89833345 0 25452
0.15450000 0.15450400 9521.34677502 0 -105.30212723 0 2491.23986722 0 222.18834214 0 -185.72385481 0 26061
0.15550000 0.15549900 9477.32321155 0 -35.91563218 0 2920.39210487 0 0.06551805 0 -323.33624382 0 26128
0.15650000 0.15649500 9464.04749409 0 236.15497266 0 2377.27242786 0 -152.01637637 0 -91.90306408 0 26331
0.15750000 0.15749700 9363.31148289 0 194.14435784 0 2498.54760160 0 90.12805968 0 -175.63807413 0 27345
0.15850000 0.15849900 9165.72584650 0 93.03720231 0 2453.68254144 0 16.04047696 0 -454.11147225 0 26980
0.15950000 0.15949700 9117.50587191 0 98.61765402 0 2474.46529512 0 69.05355024 0 -85.63911776 0 27777
0.16050000 0.16050000 9108.69230136 0 89.27095102 0 2639.34328400 0 136.26820878 0 -140.98834085 0 28224
0.16150000 0.16150500 9105.94636480 0 -64.35855235 0 2490.01083917 0 28.06845414 0 216.58353131 0 28075
0.16250000 0.16249700 9195.92007628 0 -8.68434545 0 2810.05638805 0 -95.84636184 0 192.14358874 0 28590
0.16350000 0.16349900 9163.35636899 0 98.91239930 0 2867.08993319 0 15.39584621 0 -33.45215064 0 29163
0.16450000 0.16449100 9105.44811019 0 82.05279175 0 2866.12664093 0 -79.55199646 0 316.42600590 0 28996
0.16550000 0.16550500 9015.24187989 0 196.46843881 0 2997.62157048 0 139.08722267 0 189.91362252 0 30777
0.16650000 0.16650700 8865.34474649 0 117.28802957 0 2784.29108820 0 158.73617030 0 160.45238064 0 29211
0.16750000 0.16749900 8804.77912974 0 172.83123979 0 2802.04002488 0 117.48400972 0 -177.24688293 0 30922
0.16850000 0.16850800 8693.63513321 0 120.84224584 0 2712.24347060 0 -177.76617496 0 -245.57419939 0 30867
0.16950000 0.16949900 8506.45748215 0 158.67527251 0 2654.60094760 0 71.53386172 0 -550.53370570 0 30852
0.17050000 0.17049200 8418.57644006 0 197.35201034 0 2537.00178570 0 -85.25380085 0 -284.88759589 0 31257
0.17150000 0.17149500 8322.55723923 0 96.68165802 0 2584.36919127 0 135.18201371 0 -592.42806112 0 32608
0.17250000 0.17250900 8157.02598320 0 98.29888178 0 2511.28077514 0 173.81667670 0 -361.04304599 0 32361
0.17350000 0.17350400 8112.64810532 0 140.97616129 0 2457.74608464 0 256.19809505 0 -525.87785280 0 32508
0.17450000 0.17449800 7923.74317159 0 84.79540661 0 2058.81022143 0 316.58323291 0 -250.89555869 0 32791
0.17550000 0.17549800 7909.75882535 0 124.11965398 0 2208.90665667 0 333.89813446 0 -160.43245046 0 33633
0.17650000 0.17650100 7824.60157517 0 72.24116183 0 1921.26980253 0 224.09831817 0 239.92177757 0 33984
0.17750000 0.17750300 7822.80785855 0 0.27028874 0 2047.15106339 0 180.27737823 0 440.99851797 0 34069
0.17850000 0.17849800 7765.97361525 0 -18.84011430 0 1856.24203887 0 354.00879803 0 416.95164293 0 34536
