### header ###
fiducial parameters:
Omega_m = 0.31
Omega_nu = 0
Omega_de = 0.69
Omega_k = 0
H_0 = 100
w_de = -1
zeff = 0
beta = 0
fgrowth = 0
b_1 = 2
gamma = 0.55
Lx = 3500 Ly = 3500 Lz = 3500
nx = 700 ny = 700 nz = 700
xoffset = -685.467585 yoffset = -31.7331281 zoffset = 572.489161
bins = 400 dk = 0.001
kx_ny = 0.628318531 ky_ny = 0.628318531 kz_ny = 0.628318531
############################
A(data) = 8.03975811 (not used)
A(ran) = 8.03960037 (used)
Ngal = 477707
weighted Ngal = 0
Nran = 23820508
weighted Nran = 0
SN(data) = 3488.64068
SN(ran) = 70.027835
SN(data+ran) = 3558.66851
############################
13 columns: k_central k_mean P_0(k) sigma^{lin}_{P_0(k)} P^img_1(k) sigma^{lin}_{P_1(k)} P_2(k) sigma^{lin}_{P_2(k)} P^img_3(k) sigma^{lin}_{P_3(k)} P_4(k) sigma^{lin}_{P_4(k)} N_modes
### header ###
0.00050000 0 0 0 0 0 0 0 0 0 0 0 0
0.00150000 0.00179520 -1735.66442160 0 -6173.97260818 0 -5593.63884746 0 4493.71409997 0 8268.97825944 0 3
0.00250000 0.00253879 6166.64272915 0 -16765.82496364 0 -15581.30765454 0 3126.45914207 0 17924.87592566 0 6
0.00350000 0.00331552 22123.28005039 0 -36671.87196910 0 -35075.90706974 0 3195.92690798 0 -59912.01742395 0 7
0.00450000 0.00420575 43602.92585908 0 -39545.47242928 0 -38751.36529329 0 1356.79161095 0 -1712.47897343 0 24
0.00550000 0.00557378 78136.62118245 0 -15069.65552467 0 -13693.47627296 0 -52384.27594950 0 -19073.18673260 0 45
0.00650000 0.00659388 91534.79855250 0 2304.15079476 0 -1438.71574229 0 -49776.74345471 0 26588.19503351 0 40
0.00750000 0.00754703 70982.23850088 0 25535.10622001 0 35915.07856775 0 -51147.94016025 0 13878.38409744 0 57
0.00850000 0.00846663 75141.33587251 0 11940.72725417 0 42162.63784667 0 -13966.51980299 0 23075.05709180 0 75
0.00950000 0.00948925 86716.89785416 0 -18202.90200185 0 66049.29634768 0 -8107.89807798 0 -19124.34087326 0 112
0.01050000 0.01054430 87388.21290792 0 12347.52446801 0 98260.90371008 0 22436.51611951 0 20959.35726546 0 105
0.01150000 0.01145670 92331.00943021 0 11470.48561912 0 72611.53109795 0 25581.05636801 0 7998.51458109 0 144
0.01250000 0.01249090 83725.48785791 0 952.42809411 0 68975.26890425 0 51852.14001871 0 9600.95679047 0 169
0.01350000 0.01339930 83330.75947812 0 3447.71157435 0 54794.94250901 0 25735.84746897 0 -11264.20820775 0 180
0.01450000 0.01448870 76041.18371052 0 13893.55318244 0 56921.16104394 0 10220.75231684 0 -20475.16450114 0 267
0.01550000 0.01550050 62819.05630509 0 9746.29212604 0 51431.94529185 0 12553.91260263 0 36594.58714187 0 238
0.01650000 0.01653350 64155.59663395 0 -4292.60746429 0 43667.14534303 0 12189.07949985 0 -6377.65909554 0 315
0.01750000 0.01747870 60117.18760284 0 -3492.33304337 0 46719.56384903 0 13366.17835133 0 17347.45418637 0 297
0.01850000 0.01844180 69269.01768169 0 8547.89012162 0 50469.87098835 0 15656.04584707 0 -15707.19998773 0 388
0.01950000 0.01947590 61678.16395577 0 6010.91048057 0 50204.79953220 0 385.53613572 0 12123.64206018 0 399
0.02050000 0.02045430 61124.21554510 0 4380.86496542 0 43962.11207619 0 16852.41054372 0 21584.05783172 0 462
0.02150000 0.02154770 56936.10868244 0 1888.48464874 0 46708.71297071 0 22545.68924222 0 26617.97958727 0 571
0.02250000 0.02255340 54619.11399089 0 -3412.10297774 0 28345.81587522 0 19934.83504999 0 18302.77437172 0 510
0.02350000 0.02348930 57540.98978729 0 -5337.82385485 0 26827.02507985 0 17985.44154242 0 18984.82958055 0 555
0.02450000 0.02439640 62774.32411282 0 -3806.21130733 0 19254.88358287 0 14529.65824327 0 13281.47506646 0 592
0.02550000 0.02547300 63957.29129644 0 -5667.76806212 0 12566.53505292 0 -199.54100895 0 4683.62661526 0 837
0.02650000 0.02652900 72393.29557577 0 -5652.52147084 0 21494.37200069 0 -7605.96744930 0 9242.35740657 0 723
0.02750000 0.02749970 74242.59526698 0 1049.25557465 0 20191.82370903 0 -6544.12042686 0 -387.14383728 0 826
0.02850000 0.02848090 73172.45507326 0 5992.10967303 0 27193.62975460 0 -9034.43021880 0 5484.56537567 0 831
0.02950000 0.02946900 66305.95283697 0 6232.44555554 0 24228.12899842 0 -3.52057854 0 6165.54656899 0 996
0.03050000 0.03053250 61597.55743109 0 4518.44967362 0 24146.63668775 0 6368.63515081 0 4156.24071182 0 1041
0.03150000 0.03150510 59947.44886337 0 2373.07601676 0 19804.73523337 0 9622.00527995 0 1613.40381095 0 1036
0.03250000 0.03246190 58355.69144744 0 -412.91688776 0 19050.70991322 0 4179.23793047 0 -3721.49695015 0 1059
0.03350000 0.03345080 59683.26319320 0 -340.68989851 0 13047.40611980 0 655.38530004 0 -6294.91561217 0 1302
0.03450000 0.03451200 56467.08500313 0 3170.29447602 0 14325.15240387 0 -7773.21491568 0 -9425.91440741 0 1339
0.03550000 0.03553350 54628.41474374 0 4836.95616935 0 15752.81796598 0 -5453.92825290 0 -5278.40975987 0 1365
0.03650000 0.03647120 53295.97117506 0 608.49843336 0 13167.87301382 0 -2270.54628894 0 -11086.71884091 0 1308
0.03750000 0.03744890 52466.10042991 0 -496.54172819 0 17531.03333186 0 1979.89776245 0 -12799.16459736 0 1579
0.03850000 0.03847530 53918.23582987 0 -643.73389263 0 19433.81235194 0 2767.60509469 0 -10012.48188701 0 1662
0.03950000 0.03950240 53076.62842041 0 1183.64259544 0 15615.07824524 0 6356.23414702 0 -8364.79815842 0 1683
0.04050000 0.04050350 50794.84372178 0 1776.58773413 0 14934.57316189 0 149.96467458 0 -2879.15876724 0 1822
0.04150000 0.04152450 49606.11892925 0 1421.26575837 0 13803.64590491 0 4771.12012598 0 -4951.33328473 0 1887
0.04250000 0.04250150 48876.12055396 0 2014.39912658 0 16538.39941187 0 2400.30286349 0 -648.06317164 0 1920
0.04350000 0.04349210 47346.81105001 0 1943.71340494 0 13650.07275968 0 -3073.50021246 0 -2730.26921541 0 2005
0.04450000 0.04448520 44692.99623747 0 3736.45566098 0 15035.66348748 0 -777.36356640 0 1846.62018860 0 2151
0.04550000 0.04548030 42488.16419634 0 3027.33969029 0 12303.34589198 0 1262.26717398 0 3372.47512721 0 2274
0.04650000 0.04648670 39703.47450445 0 430.45102135 0 14216.64362065 0 3258.28624136 0 1900.64206139 0 2311
0.04750000 0.04749250 40168.06925384 0 127.89420952 0 15211.71345210 0 3025.26916555 0 -2005.38625418 0 2568
0.04850000 0.04851840 40417.63945525 0 904.90899769 0 15068.43756894 0 2695.81214057 0 -1356.12727146 0 2493
0.04950000 0.04949480 39620.43206831 0 548.54622340 0 15544.65825939 0 1541.31190405 0 8177.08903577 0 2644
0.05050000 0.05050630 39634.82609057 0 707.59020433 0 17065.22062674 0 97.09543080 0 7014.17383239 0 2829
0.05150000 0.05149060 37931.79181021 0 1367.86393577 0 18309.19632011 0 381.50470225 0 10142.96923499 0 2784
0.05250000 0.05249300 37871.55836320 0 1745.45235674 0 19221.00226893 0 4269.62131797 0 11059.40341558 0 3055
0.05350000 0.05348950 36292.86629056 0 863.74098678 0 18131.48550677 0 1729.49713667 0 12521.80286066 0 3009
0.05450000 0.05448610 36225.10366267 0 -8.83484049 0 16128.83411683 0 2782.14305718 0 9701.24990868 0 3336
0.05550000 0.05550870 35825.94635296 0 -39.13059242 0 16883.30232997 0 2191.46774508 0 10912.34079734 0 3349
0.05650000 0.05647670 35546.25942804 0 701.02210124 0 14346.96488376 0 717.02271784 0 9513.07574839 0 3324
0.05750000 0.05747970 35795.71890620 0 335.72617529 0 14817.76013505 0 97.70529445 0 8265.00329483 0 3639
0.05850000 0.05849280 35081.44323215 0 189.61577698 0 14589.33807404 0 -2445.97620336 0 6607.65342667 0 3846
0.05950000 0.05951020 35127.72554989 0 257.89880414 0 14433.43974059 0 246.03370087 0 6551.09599150 0 3787
0.06050000 0.06049470 35280.30218589 0 284.93742135 0 15360.85766740 0 1020.27487167 0 6374.10487927 0 3930
0.06150000 0.06148310 35065.94197740 0 30.06490503 0 15260.76385104 0 1290.00334765 0 3053.23785804 0 4083
0.06250000 0.06249100 34644.30784831 0 511.78499777 0 12962.81355818 0 3178.86445543 0 2075.69551678 0 4303
0.06350000 0.06350600 33153.19786498 0 1998.32211094 0 11840.41199132 0 2070.28114994 0 1102.26432972 0 4470
0.06450000 0.06451750 32045.63321337 0 690.48456971 0 9641.28219746 0 1040.22166483 0 2768.56838695 0 4479
0.06550000 0.06550280 30227.22530841 0 866.88995596 0 9460.02824018 0 1120.97323696 0 590.78714258 0 4636
0.06650000 0.06648880 29762.18766602 0 1351.82013711 0 10158.49263439 0 -356.87431569 0 -521.94274856 0 4653
0.06750000 0.06749660 29336.01388376 0 803.57618818 0 10614.25166857 0 -938.60097488 0 1279.19675862 0 5220
0.06850000 0.06852730 28473.47978038 0 799.73962763 0 11608.00389337 0 -1814.68760383 0 1873.06090027 0 5029
0.06950000 0.06949320 28670.89933190 0 755.39939566 0 12733.94860418 0 -1120.61892257 0 4326.21197012 0 5040
0.07050000 0.07048030 29236.47368364 0 -65.40344764 0 14931.58363419 0 1872.16404196 0 4709.61336161 0 5475
0.07150000 0.07148790 28423.32214895 0 -133.33625716 0 13505.80036729 0 1106.74640681 0 5062.08974989 0 5509
0.07250000 0.07249820 28632.92125777 0 136.00579468 0 13058.03555162 0 1544.37893803 0 3041.52333838 0 5916
0.07350000 0.07351270 28837.98071341 0 274.38217410 0 13462.50757725 0 492.98861916 0 2245.32353300 0 5721
0.07450000 0.07449140 28115.95441199 0 864.83050354 0 12005.27890787 0 -921.97587916 0 -621.62245997 0 6028
0.07550000 0.07549160 27451.61492287 0 459.11284137 0 10522.82748255 0 -412.50942621 0 -290.73046169 0 6183
0.07650000 0.07648840 27221.19984339 0 281.18058154 0 11872.07884030 0 -622.76844559 0 -2017.03433989 0 6330
0.07750000 0.07749960 26686.40655465 0 525.65751353 0 11012.84428972 0 575.35232178 0 -3854.24305240 0 6583
0.07850000 0.07848650 26390.88620524 0 668.33881284 0 10723.08154922 0 334.93671853 0 -5265.01224684 0 6549
0.07950000 0.07947320 24705.45692135 0 1029.42504090 0 10113.60542957 0 845.01214935 0 -3973.22625490 0 6828
0.08050000 0.08048110 25126.98032720 0 89.60788186 0 10426.37646105 0 1892.47068568 0 -1110.65383023 0 7147
0.08150000 0.08149960 24734.68785887 0 -232.68269160 0 9252.88718747 0 4060.00006450 0 -1397.86993603 0 7386
0.08250000 0.08250610 24908.52335852 0 190.64328873 0 8855.60110065 0 2407.43344067 0 -463.24946192 0 7227
0.08350000 0.08350160 24257.91355218 0 1099.28476711 0 8273.80579306 0 523.97894909 0 -222.44854177 0 7798
0.08450000 0.08449610 22855.16072091 0 1431.79553927 0 8094.26804612 0 -842.88404852 0 173.68270157 0 7371
0.08550000 0.08548940 22525.64833430 0 535.39008705 0 9960.77413010 0 -1328.00356642 0 2991.69787670 0 8256
0.08650000 0.08650700 21633.99401666 0 601.30917286 0 9454.03811245 0 -145.39512612 0 968.60365344 0 8037
0.08750000 0.08749060 21992.51589428 0 264.36282737 0 10541.09681850 0 713.09093530 0 879.17912927 0 8155
0.08850000 0.08849210 21548.73711555 0 -245.53212455 0 9752.68085746 0 253.98252285 0 -663.44927420 0 8718
0.08950000 0.08949900 21638.42294658 0 431.81513176 0 9963.84116408 0 53.59492395 0 -986.30830082 0 8571
0.09050000 0.09049190 21163.08804212 0 612.79449539 0 9236.16797700 0 -53.97116154 0 -1153.00547266 0 8932
0.09150000 0.09150830 20883.06894746 0 411.23721609 0 9088.77318901 0 -121.72581736 0 -496.97797779 0 9285
0.09250000 0.09250820 20544.69870100 0 282.19037756 0 8652.36857861 0 404.90606076 0 -854.48452323 0 9204
0.09350000 0.09350330 20279.84869134 0 117.77078293 0 8380.27726851 0 925.26989579 0 -2214.21030026 0 9349
0.09450000 0.09448040 19867.73676159 0 405.76305870 0 7561.17989541 0 899.03180767 0 -1676.92573843 0 9564
0.09550000 0.09549270 19289.09706656 0 805.44076768 0 7315.06425934 0 592.49117337 0 -2025.50466837 0 10155
0.09650000 0.09649430 18759.17560074 0 367.21254538 0 7083.67481528 0 889.18186751 0 -1994.39143563 0 9913
0.09750000 0.09749140 18407.51856450 0 313.28035842 0 6999.24833853 0 69.41683322 0 -1650.16392935 0 10476
0.09850000 0.09850240 17954.99264917 0 601.91372179 0 7125.24032265 0 -36.87549202 0 -1162.95949268 0 10575
0.09950000 0.09950330 17798.76214597 0 339.73989304 0 7352.28941538 0 -732.69448639 0 -709.43153194 0 10882
0.10050000 0.10051200 17527.93308091 0 190.12953286 0 7119.25019492 0 148.53634467 0 -403.99259396 0 10875
0.10150000 0.10150300 17611.75057979 0 -238.15795622 0 7233.01833243 0 750.24633569 0 -580.73125718 0 11118
0.10250000 0.10250800 17505.56698478 0 113.50572341 0 6785.23137211 0 1404.87871764 0 -792.13626218 0 11575
0.10350000 0.10349800 17056.47349013 0 548.11218826 0 6292.50184536 0 1221.63174189 0 -192.27092048 0 11364
0.10450000 0.10450100 16653.99448297 0 462.07690273 0 5302.93495934 0 923.44849836 0 162.93590310 0 12093
0.10550000 0.10551000 16074.24755547 0 348.59332396 0 5501.36209242 0 970.95209353 0 394.47593078 0 12067
0.10650000 0.10649700 15776.84491084 0 216.57245899 0 5583.92841859 0 527.43905060 0 -103.83991602 0 12054
0.10750000 0.10749900 15697.12417215 0 220.32376264 0 5240.50919202 0 -29.50010574 0 385.08327764 0 12807
0.10850000 0.10850100 15579.09318958 0 265.30840391 0 5172.73549180 0 -196.56808974 0 1921.49124903 0 12736
0.10950000 0.10950300 15578.31812684 0 -28.02649003 0 5325.78823777 0 337.36487936 0 2197.51323443 0 12933
0.11050000 0.11050200 15754.81098445 0 96.27740744 0 5829.76724654 0 111.37983705 0 1653.13131240 0 13428
0.11150000 0.11150900 15558.05577242 0 233.46771943 0 5768.22726520 0 371.19193892 0 1540.76936014 0 13453
0.11250000 0.11250000 15112.06252873 0 418.02122951 0 5671.74302673 0 -468.21650684 0 1829.59095303 0 13668
0.11350000 0.11349100 15226.32892086 0 332.01694648 0 6257.67938381 0 -316.40718295 0 1397.82564673 0 13791
0.11450000 0.11448600 14957.16070452 0 67.95495417 0 6338.97239262 0 -360.00667639 0 903.92245354 0 14205
0.11550000 0.11549300 14889.39807663 0 186.45905718 0 5906.45416823 0 44.62213336 0 528.38351990 0 14776
0.11650000 0.11649800 15020.93729547 0 -139.52347227 0 5763.28900833 0 90.28971563 0 790.35693958 0 14553
0.11750000 0.11747300 14995.13877864 0 128.03593527 0 5519.87501951 0 110.20417760 0 -518.56568949 0 14568
0.11850000 0.11849100 14721.09873938 0 226.44565103 0 5456.77384037 0 230.83914952 0 -248.94461506 0 16015
0.11950000 0.11950300 14311.31199784 0 539.94745594 0 5131.03711653 0 361.23791891 0 50.09341194 0 15270
0.12050000 0.12050700 14169.14334717 0 453.84684369 0 5150.91193958 0 878.78938344 0 347.77618639 0 15999
0.12150000 0.12150000 13596.92560055 0 292.78769964 0 4924.00678707 0 749.06824033 0 858.08635049 0 15670
0.12250000 0.12250700 13423.09010089 0 254.46084728 0 4746.94924090 0 826.40953642 0 925.55999071 0 16887
0.12350000 0.12352200 13268.40972318 0 -11.90164195 0 4483.32825929 0 655.68757451 0 1735.54262602 0 16407
0.12450000 0.12449800 13199.76130930 0 84.16528060 0 4145.17945933 0 402.19555564 0 1707.54071656 0 16306
0.12550000 0.12549900 13177.94882941 0 7.80177044 0 4351.96619764 0 201.37901487 0 2078.22000684 0 17523
0.12650000 0.12650100 13171.96977401 0 91.61584797 0 3967.29148879 0 623.07072005 0 2162.84578542 0 17154
0.12750000 0.12750600 13263.98079325 0 33.08521379 0 4170.72331269 0 -358.58831158 0 1703.85363239 0 18007
0.12850000 0.12850300 12998.02355111 0 329.25218697 0 4263.33223747 0 -239.22643557 0 1625.36192175 0 17496
0.12950000 0.12949900 12891.61850960 0 274.03561033 0 4161.78794656 0 4.78036552 0 1525.25703307 0 18405
0.13050000 0.13049000 12457.02976047 0 31.26436997 0 3996.07953332 0 144.27903578 0 1814.54366360 0 18100
0.13150000 0.13148800 12743.80297327 0 100.24595010 0 3899.11918489 0 383.17330160 0 569.58253332 0 19059
0.13250000 0.13249300 12595.32309745 0 -61.30724107 0 3721.33086527 0 390.74566455 0 531.87130222 0 18957
0.13350000 0.13349100 12334.01623173 0 272.84533541 0 3475.00485503 0 -88.93379873 0 464.40541264 0 19468
0.13450000 0.13450700 12229.82565519 0 266.86406555 0 3277.54101422 0 155.51855271 0 745.74765012 0 19953
0.13550000 0.13551000 12098.61860609 0 -6.47516199 0 3419.26677190 0 222.27913520 0 382.65290234 0 19956
0.13650000 0.13649900 12039.71383805 0 47.63513439 0 3671.38360802 0 148.91501818 0 446.40845588 0 19723
0.13750000 0.13749600 11970.06891494 0 274.50618414 0 3541.84847996 0 89.87118175 0 513.41595121 0 20946
0.13850000 0.13851100 11639.78146560 0 365.77203592 0 3674.76066709 0 -199.84106895 0 528.97699651 0 20955
0.13950000 0.13949800 11618.74404845 0 267.27041987 0 3658.48434960 0 -22.65940202 0 828.44352249 0 20506
0.14050000 0.14048300 11220.02963173 0 105.49445351 0 3729.01505870 0 93.27769320 0 944.27332688 0 21447
0.14150000 0.14148400 11367.40227506 0 -3.99674387 0 3613.49749386 0 254.66568529 0 838.80721852 0 21771
0.14250000 0.14249400 11388.88258521 0 -135.59611866 0 3429.39794910 0 432.80389037 0 628.90362077 0 22470
0.14350000 0.14350900 11260.77578706 0 64.60967267 0 3024.70447698 0 319.66908984 0 384.68024501 0 22519
0.14450000 0.14449900 11320.56634108 0 277.20340246 0 3196.90127256 0 237.95643991 0 375.93864457 0 22218
0.14550000 0.14550500 10935.01691857 0 350.37928996 0 2914.20267529 0 -37.93887810 0 461.94735653 0 23559
0.14650000 0.14650700 10707.77959632 0 241.05004746 0 2930.15789536 0 -52.39745202 0 650.88661446 0 23044
0.14750000 0.14750500 10522.16314306 0 41.27917705 0 2743.48957124 0 -91.66323752 0 466.58555339 0 23649
0.14850000 0.14849900 10517.59027291 0 -26.30363629 0 3044.65680631 0 361.89782946 0 79.76868186 0 23640
0.14950000 0.14949500 10458.96231299 0 265.77565602 0 2790.12620338 0 78.49126775 0 -33.94265462 0 24457
0.15050000 0.15050000 10211.00867100 0 373.02773037 0 2880.01133625 0 -351.74450761 0 -361.46822326 0 24591
0.15150000 0.15149900 9859.96061263 0 508.29610822 0 2894.78181756 0 -193.99931038 0 -333.07656796 0 25020
0.15250000 0.15250500 9474.13438200 0 294.17284748 0 3008.40601485 0 -249.27124864 0 -252.44457694 0 25297
0.15350000 0.15350100 9342.75017570 0 164.92006371 0 3139.46912373 0 -90.97442819 0 -340.74858183 0 25452
0.15450000 0.15450400 9124.33749633 0 179.86548775 0 3318.24288025 0 340.31676116 0 90.04169555 0 26061
0.15550000 0.15549900 9137.52463519 0 -45.07465927 0 3231.25869648 0 554.40237599 0 303.61532608 0 26128
0.15650000 0.15649500 9107.10895891 0 -137.19274790 0 2835.67774768 0 823.30817824 0 573.57189195 0 26331
0.15750000 0.15749700 9278.15423271 0 16.18718527 0 2920.58033439 0 729.93526304 0 815.24531130 0 27345
0.15850000 0.15849900 9192.78660836 0 77.02573483 0 2443.28562843 0 229.17497910 0 517.82273649 0 26980
0.15950000 0.15949700 9162.19377488 0 66.69924181 0 2518.57743720 0 -258.39373706 0 819.07190676 0 27777
0.16050000 0.16050000 9086.79124287 0 198.06396082 0 2511.79010208 0 -718.49312257 0 650.74821040 0 28224
0.16150000 0.16150500 9001.03608715 0 157.99875346 0 2774.38135748 0 -481.17887750 0 474.73478446 0 28075
0.16250000 0.16249700 9003.75987905 0 93.47323046 0 2725.50811573 0 -215.49622902 0 320.97008801 0 28590
0.16350000 0.16349900 8952.46179817 0 22.88106996 0 2914.71200223 0 3.87526940 0 59.98033367 0 29163
0.16450000 0.16449100 8993.47368930 0 24.95225904 0 2791.58775025 0 367.40852553 0 52.89504229 0 28996
0.16550000 0.16550500 8887.09079244 0 142.73333924 0 2851.73261867 0 487.06049645 0 89.51609229 0 30777
0.16650000 0.16650700 8756.80274630 0 65.95717461 0 2765.68958250 0 493.67842499 0 465.90681988 0 29211
0.16750000 0.16749900 8672.83023487 0 110.79300383 0 2462.96114963 0 193.79004344 0 424.30477384 0 30922
0.16850000 0.16850800 8669.18744001 0 43.57491288 0 2484.15357934 0 331.21088123 0 869.44434129 0 30867
0.16950000 0.16949900 8541.87784924 0 -2.08810759 0 2292.97881902 0 229.11186684 0 591.70614554 0 30852
0.17050000 0.17049200 8500.58914999 0 94.74322612 0 2064.85571078 0 89.23518741 0 787.20021977 0 31257
0.17150000 0.17149500 8444.95071778 0 140.13577183 0 1931.47848601 0 307.76523343 0 443.38017504 0 32608
0.17250000 0.17250900 8363.07087575 0 47.61465059 0 2001.12340912 0 62.34305706 0 689.78036985 0 32361
0.17350000 0.17350400 8357.47935171 0 -2.01328082 0 1726.54082595 0 214.15869218 0 600.52525226 0 32508
0.17450000 0.17449800 8410.60436619 0 52.99945432 0 1953.54562938 0 -208.06669906 0 463.35243455 0 32791
0.17550000 0.17549800 8344.10398333 0 239.67929365 0 2078.22000684 0 -249.36979233 0 509.13428321 0 33633
0.17650000 0.17650100 8104.53209123 0 172.03846133 0 2105.17004544 0 -229.12404640 0 680.01457936 0 33984
0.17750000 0.17750300 8036.49265522 0 66.53038886 0 2199.89378427 0 31.31873509 0 408.86884581 0 34069
0.17850000 0.17849800 8035.69544783 0 15.21381719 0 2265.88484019 0 185.88551075 0 190.53810164 0 34536
