### header ###
fiducial parameters:
Omega_m = 0.31
Omega_nu = 0
Omega_de = 0.69
Omega_k = 0
H_0 = 100
w_de = -1
zeff = 0
beta = 0
fgrowth = 0
b_1 = 2
gamma = 0.55
Lx = 3500 Ly = 3500 Lz = 3500
nx = 700 ny = 700 nz = 700
xoffset = -685.467585 yoffset = -31.7331281 zoffset = 572.489161
bins = 400 dk = 0.001
kx_ny = 0.628318531 ky_ny = 0.628318531 kz_ny = 0.628318531
############################
A(data) = 8.02447788 (not used)
A(ran) = 8.01546121 (used)
Ngal = 475547
weighted Ngal = 0
Nran = 23820508
weighted Nran = 0
SN(data) = 3495.3504
SN(ran) = 69.8175741
SN(data+ran) = 3565.16797
############################
13 columns: k_central k_mean P_0(k) sigma^{lin}_{P_0(k)} P^img_1(k) sigma^{lin}_{P_1(k)} P_2(k) sigma^{lin}_{P_2(k)} P^img_3(k) sigma^{lin}_{P_3(k)} P_4(k) sigma^{lin}_{P_4(k)} N_modes
### header ###
0.00050000 0 0 0 0 0 0 0 0 0 0 0 0
0.00150000 0.00179520 33064.39781994 0 -25048.80971398 0 31596.20754899 0 -90679.12929052 0 -65679.92359173 0 3
0.00250000 0.00253879 50370.99512772 0 -15982.90087572 0 -43654.30144624 0 55939.15655577 0 14903.12775940 0 6
0.00350000 0.00331552 63370.23663456 0 -20992.57423991 0 -13918.46591328 0 5933.73637659 0 28727.25746523 0 7
0.00450000 0.00420575 69899.91874986 0 -22124.16583638 0 -41167.56801522 0 980.94597391 0 -7676.34314584 0 24
0.00550000 0.00557378 89972.71496709 0 -8687.36819736 0 -14250.41421134 0 -8842.18144297 0 -27033.30249122 0 45
0.00650000 0.00659388 79060.60668857 0 5248.42590426 0 -41925.69009555 0 -36864.75186744 0 -7342.62327581 0 40
0.00750000 0.00754703 61984.42446026 0 23765.63799074 0 -4281.31369298 0 -29145.79134337 0 464.16625042 0 57
0.00850000 0.00846663 45941.95447702 0 11409.92000237 0 -28343.15851727 0 534.91176262 0 32453.20548995 0 75
0.00950000 0.00948925 50449.49791069 0 -7347.31794153 0 -6864.44278387 0 -1048.61337981 0 -801.40490528 0 112
0.01050000 0.01054430 53449.32287380 0 -16779.99753941 0 -22176.98082576 0 5311.17276901 0 -10848.01059015 0 105
0.01150000 0.01145670 69101.27196069 0 -12280.53690286 0 -18459.44776790 0 -16781.76911138 0 -8203.17543304 0 144
0.01250000 0.01249090 75736.80550126 0 -8877.33607427 0 -22674.01748687 0 -10282.19264726 0 13622.50267088 0 169
0.01350000 0.01339930 77360.67265916 0 -2390.59243462 0 -5727.70255636 0 -23395.71161855 0 15657.70669579 0 180
0.01450000 0.01448870 80241.02723748 0 5462.23249651 0 4864.98022347 0 -9590.32735864 0 11578.55150935 0 267
0.01550000 0.01550050 80808.26243794 0 11623.94804111 0 14246.20672791 0 -5136.00859038 0 23097.42318794 0 238
0.01650000 0.01653350 70912.59357777 0 10731.20863563 0 22267.22027304 0 -1826.66785928 0 14418.82427183 0 315
0.01750000 0.01747870 67073.81856315 0 1889.12684358 0 34010.74942219 0 5208.65411351 0 13371.49306724 0 297
0.01850000 0.01844180 65146.01608897 0 -750.61836580 0 35525.00056439 0 7410.19767418 0 18100.81516703 0 388
0.01950000 0.01947590 67826.95809731 0 977.31646584 0 48741.48108416 0 10380.55918095 0 27376.98745359 0 399
0.02050000 0.02045430 67323.61021106 0 -1441.58347441 0 30608.66689841 0 16233.13541662 0 18674.14014614 0 462
0.02150000 0.02154770 70310.25910764 0 -2590.65827177 0 32888.79074831 0 9277.52311019 0 24344.27768576 0 571
0.02250000 0.02255340 72929.97115973 0 600.12997026 0 24624.51822692 0 8968.72704333 0 21641.74464403 0 510
0.02350000 0.02348930 74390.96441955 0 -4297.21355142 0 21517.62388281 0 6931.72930179 0 13076.96922706 0 555
0.02450000 0.02439640 75251.94839745 0 2226.36771291 0 15781.93818026 0 3666.83288252 0 15028.68792285 0 592
0.02550000 0.02547300 68549.64873822 0 6762.64382948 0 11966.08287801 0 2914.16945832 0 11448.67313923 0 837
0.02650000 0.02652900 67446.07012355 0 3314.36756656 0 5367.46446839 0 5663.01803477 0 3337.75231658 0 723
0.02750000 0.02749970 64764.68522222 0 -1370.25555793 0 2727.25754306 0 4497.53405203 0 7538.19374908 0 826
0.02850000 0.02848090 64712.86674207 0 1315.14859731 0 12997.02704187 0 -2650.54847671 0 -991.33181459 0 831
0.02950000 0.02946900 63129.74573950 0 4894.57654771 0 13807.63194184 0 -5481.07759335 0 5.24985423 0 996
0.03050000 0.03053250 60980.71821545 0 4037.04713515 0 18046.00715917 0 -8263.68568817 0 2735.04138740 0 1041
0.03150000 0.03150510 61171.49437207 0 -964.53346683 0 24728.59808022 0 120.05500354 0 6000.81252034 0 1036
0.03250000 0.03246190 58503.06409078 0 2338.33106148 0 30564.59904563 0 -542.84729781 0 -35.79715831 0 1059
0.03350000 0.03345080 58948.72516473 0 4236.80294721 0 31093.30255572 0 3912.14023887 0 3068.81661906 0 1302
0.03450000 0.03451200 53582.85511112 0 1704.29652539 0 24915.49892316 0 7613.92845084 0 1209.20859344 0 1339
0.03550000 0.03553350 52083.33016093 0 985.35275919 0 23865.73180710 0 8829.33754618 0 -2873.48973694 0 1365
0.03650000 0.03647120 50946.20240205 0 1661.28054346 0 15319.33644933 0 4016.10936892 0 -10970.80267238 0 1308
0.03750000 0.03744890 48407.09687464 0 2165.25955224 0 13885.24893882 0 1390.80579279 0 -11471.14995861 0 1579
0.03850000 0.03847530 47508.46699236 0 -131.35541825 0 10071.67453549 0 -2948.44937596 0 -10818.34783196 0 1662
0.03950000 0.03950240 47860.67764484 0 -1857.90288759 0 12335.45563396 0 -2617.75225060 0 -12872.68483416 0 1683
0.04050000 0.04050350 48276.44344178 0 49.09679199 0 11995.20309228 0 -2390.64779624 0 -15968.39613020 0 1822
0.04150000 0.04152450 46561.89394361 0 3521.85186134 0 13170.19820204 0 -1261.44782194 0 -14394.02226424 0 1887
0.04250000 0.04250150 45398.08188192 0 2013.74585942 0 14119.20716224 0 2504.13912563 0 -7783.06928477 0 1920
0.04350000 0.04349210 44744.59327113 0 868.26956763 0 11197.44208910 0 3782.61618314 0 -9405.20916000 0 2005
0.04450000 0.04448520 44575.29742465 0 662.31657537 0 13305.94490431 0 -1554.06722225 0 -8519.42317451 0 2151
0.04550000 0.04548030 42708.28201373 0 3891.34641286 0 15702.32816481 0 -3747.98195111 0 -7641.94143263 0 2274
0.04650000 0.04648670 40174.38047898 0 4512.13844847 0 17480.43280744 0 -5347.76680253 0 -3424.80293431 0 2311
0.04750000 0.04749250 38058.01631315 0 2792.29637904 0 20609.58252444 0 -1718.19229303 0 -1959.76827593 0 2568
0.04850000 0.04851840 37269.33461632 0 -1838.72562101 0 19120.46555958 0 2559.19072463 0 -2469.88135265 0 2493
0.04950000 0.04949480 39643.46250393 0 -2694.47238927 0 23723.34170994 0 4933.54005874 0 -2365.55790820 0 2644
0.05050000 0.05050630 40773.17180518 0 -52.22859906 0 19836.29135910 0 4228.08902757 0 -3076.73333131 0 2829
0.05150000 0.05149060 39810.32243895 0 890.74306531 0 20068.36728730 0 3627.00573014 0 726.66671276 0 2784
0.05250000 0.05249300 38857.32744181 0 1722.69872923 0 17952.55673770 0 -292.86299145 0 1493.54589479 0 3055
0.05350000 0.05348950 37409.17807877 0 1837.93948595 0 17456.40586258 0 1808.61996983 0 321.37312063 0 3009
0.05450000 0.05448610 35318.50170652 0 432.68652373 0 15830.54568621 0 2266.79277082 0 566.45460156 0 3336
0.05550000 0.05550870 36144.05424500 0 768.12592581 0 14021.77070384 0 1602.36470310 0 -2734.65385603 0 3349
0.05650000 0.05647670 34339.48674605 0 -628.42751080 0 10205.56108719 0 2680.38839210 0 -1585.81157750 0 3324
0.05750000 0.05747970 35671.59814498 0 -1041.51269790 0 8991.84605755 0 1427.24481377 0 -4064.67258557 0 3639
0.05850000 0.05849280 35337.87827495 0 -232.05821248 0 8204.44875039 0 7.90984740 0 -3575.25368394 0 3846
0.05950000 0.05951020 34357.64535876 0 1604.13627508 0 6210.62200333 0 172.83013256 0 -6462.65026085 0 3787
0.06050000 0.06049470 33310.64632390 0 1978.52479417 0 8172.62688887 0 873.98953063 0 -3024.22836702 0 3930
0.06150000 0.06148310 31701.50535801 0 1336.62890746 0 6863.23590046 0 -233.40903611 0 -3264.78569603 0 4083
0.06250000 0.06249100 30543.34018198 0 446.17925875 0 8339.57540248 0 1171.44089349 0 -2998.62915204 0 4303
0.06350000 0.06350600 30908.72690100 0 130.40984171 0 8112.80311787 0 718.03140663 0 -3231.34727507 0 4470
0.06450000 0.06451750 30532.15713391 0 -86.72121606 0 8365.75037835 0 511.13837400 0 -4985.96751676 0 4479
0.06550000 0.06550280 31570.74120190 0 -193.83322551 0 6817.05323364 0 83.17929007 0 -3262.72624361 0 4636
0.06650000 0.06648880 30854.91540238 0 596.60897097 0 7813.87249242 0 -2002.02026743 0 -3049.36254435 0 4653
0.06750000 0.06749660 30257.89564816 0 1444.38477259 0 6976.67186823 0 438.99221271 0 -1333.65045208 0 5220
0.06850000 0.06852730 30040.76735846 0 376.45129321 0 8304.15503539 0 577.05745981 0 -3879.04505999 0 5029
0.06950000 0.06949320 29227.83727028 0 200.96269546 0 6225.50320788 0 812.99541490 0 -2228.34965905 0 5040
0.07050000 0.07048030 29519.59302925 0 146.76809440 0 8644.06433499 0 984.43375623 0 -5689.83520548 0 5475
0.07150000 0.07148790 28838.42360641 0 290.35621711 0 8220.19359629 0 -309.71064090 0 -2509.30990132 0 5509
0.07250000 0.07249820 28075.65114965 0 1299.10479865 0 8209.66381538 0 48.24710178 0 -3439.37411377 0 5916
0.07350000 0.07351270 27216.54946697 0 1054.32669942 0 7952.61979472 0 -612.62398159 0 -2126.19639028 0 5721
0.07450000 0.07449140 27001.08202600 0 287.02898351 0 9862.02006504 0 -1409.08620107 0 -2907.17174903 0 6028
0.07550000 0.07549160 26801.89090251 0 309.27328407 0 10458.75193882 0 -75.57902487 0 -2502.65543411 0 6183
0.07650000 0.07648840 26505.70621361 0 347.56249052 0 10150.96345351 0 147.57748135 0 -1186.35531502 0 6330
0.07750000 0.07749960 27013.04013680 0 -123.00909981 0 10931.48484695 0 826.30656380 0 -279.54852086 0 6583
0.07850000 0.07848650 26882.05453420 0 431.42870763 0 10613.55411211 0 1852.14527869 0 276.91884371 0 6549
0.07950000 0.07947320 26318.14103118 0 867.95068467 0 10420.19810380 0 681.63556772 0 529.88714161 0 6828
0.08050000 0.08048110 25442.76303102 0 992.76789512 0 10399.41535012 0 1262.13430608 0 3629.84024530 0 7147
0.08150000 0.08149960 24954.58422977 0 218.65737775 0 9217.07928901 0 2345.52807261 0 3315.66302857 0 7386
0.08250000 0.08250610 25150.56437906 0 -498.61557463 0 9844.52579183 0 1508.40495469 0 2092.34829330 0 7227
0.08350000 0.08350160 24664.37859627 0 604.03517923 0 8706.85548904 0 431.78191479 0 1742.08636999 0 7798
0.08450000 0.08449610 23455.83434232 0 1320.88406157 0 8014.55837975 0 241.46636688 0 2018.89449046 0 7371
0.08550000 0.08548940 22746.87338418 0 1444.10796447 0 8173.31337300 0 -412.05878259 0 2308.42471214 0 8256
0.08650000 0.08650700 21761.65792182 0 947.05580211 0 7834.00197894 0 602.09862962 0 1935.66382480 0 8037
0.08750000 0.08749060 20901.00611366 0 331.62720064 0 7581.14329705 0 1052.35361113 0 2397.25797416 0 8155
0.08850000 0.08849210 20607.03588973 0 567.71463212 0 7211.33872044 0 1061.62668317 0 276.96645471 0 8718
0.08950000 0.08949900 20496.42336479 0 182.64131958 0 6822.50081745 0 697.76351605 0 1110.39916676 0 8571
0.09050000 0.09049190 19897.18914560 0 377.66039108 0 6225.28176139 0 -449.86966461 0 48.28408335 0 8932
0.09150000 0.09150830 19808.38910056 0 201.65250129 0 6417.55268186 0 -323.75256323 0 658.88858361 0 9285
0.09250000 0.09250820 19463.48618246 0 248.58476450 0 6427.63956977 0 196.73971077 0 1846.28801886 0 9204
0.09350000 0.09350330 19363.61381259 0 124.25805804 0 5565.78087821 0 1062.54014997 0 -119.82580642 0 9349
0.09450000 0.09448040 19457.06423406 0 -316.67402598 0 5857.73593903 0 1309.02560168 0 76.56457250 0 9564
0.09550000 0.09549270 19183.02419480 0 90.29846276 0 5680.19121056 0 -138.51146178 0 -1070.88093225 0 10155
0.09650000 0.09649430 19022.36476168 0 985.64617580 0 5114.92688392 0 -792.80281613 0 -1081.98093788 0 9913
0.09750000 0.09749140 18263.13544887 0 694.84817292 0 5852.33264452 0 -947.31710897 0 -182.68339442 0 10476
0.09850000 0.09850240 18000.05701118 0 200.91287000 0 6209.52584317 0 -601.34017537 0 -396.90630608 0 10575
0.09950000 0.09950330 18028.06999297 0 330.08814749 0 6897.82584320 0 -152.50688035 0 -918.83798231 0 10882
0.10050000 0.10051200 17694.79301593 0 587.81090167 0 7168.95386103 0 230.15377261 0 -1374.54054764 0 10875
0.10150000 0.10150300 17255.77533687 0 362.22335581 0 7281.74763396 0 349.21226692 0 -369.75807285 0 11118
0.10250000 0.10250800 16774.46137700 0 501.08027413 0 7157.15076277 0 716.85995466 0 -326.75427049 0 11575
0.10350000 0.10349800 16562.42635672 0 -2.54878274 0 6999.63586990 0 788.56543742 0 122.83083538 0 11364
0.10450000 0.10450100 16615.79496235 0 -21.69035215 0 6679.92249076 0 1109.19228336 0 125.66867223 0 12093
0.10550000 0.10551000 16596.30767067 0 93.94026112 0 6093.21107095 0 1067.16173835 0 289.88675054 0 12067
0.10650000 0.10649700 16405.97440704 0 -114.83993855 0 5286.41505071 0 518.94104130 0 238.90755261 0 12054
0.10750000 0.10749900 16314.73845053 0 145.79926598 0 4801.31435576 0 955.66896358 0 1276.46189439 0 12807
0.10850000 0.10850100 16084.10192456 0 305.10344654 0 4338.79013111 0 227.13767133 0 -462.20312723 0 12736
0.10950000 0.10950300 15716.94363357 0 364.08018469 0 4175.59513561 0 255.86924700 0 -354.97098306 0 12933
0.11050000 0.11050200 15595.03733732 0 279.02479989 0 4091.34581606 0 -226.29396018 0 -881.06142449 0 13428
0.11150000 0.11150900 15220.12841896 0 333.66561564 0 4030.74698233 0 -822.18323004 0 -494.26525821 0 13453
0.11250000 0.11250000 15165.76330410 0 76.67784239 0 4218.78827473 0 514.68483964 0 -237.12490832 0 13668
0.11350000 0.11349100 15151.92289808 0 -12.98905497 0 4045.94928431 0 717.81660353 0 25.07117581 0 13791
0.11450000 0.11448600 14965.24350163 0 -73.62542388 0 3430.01799929 0 1168.15241302 0 122.36801220 0 14205
0.11550000 0.11549300 14929.25844597 0 250.44712954 0 3362.36609465 0 1236.91155014 0 -125.58784426 0 14776
0.11650000 0.11649800 14714.67679099 0 226.02158099 0 2833.40792109 0 570.79827459 0 801.79575835 0 14553
0.11750000 0.11747300 14462.33850837 0 314.47174057 0 2707.23877978 0 156.36226386 0 1518.52505958 0 14568
0.11850000 0.11849100 14153.53136918 0 287.18288882 0 2896.95199323 0 -685.02812804 0 1698.77143530 0 16015
0.11950000 0.11950300 14100.60565655 0 262.04871148 0 3356.70813667 0 -273.77762516 0 2193.56041447 0 15270
0.12050000 0.12050700 13929.87040784 0 225.92082283 0 3803.52073240 0 -386.73305403 0 1744.07938846 0 15999
0.12150000 0.12150000 13902.18959580 0 115.92502639 0 4433.53601458 0 -353.79178047 0 1706.00166341 0 15670
0.12250000 0.12250700 13740.42293020 0 231.90541440 0 4224.26907551 0 247.86838509 0 1779.69905740 0 16887
0.12350000 0.12352200 13590.50365215 0 216.35322696 0 4028.03426275 0 354.16048888 0 1543.31599485 0 16407
0.12450000 0.12449800 13531.93105386 0 -12.80990475 0 3861.94939047 0 319.27823677 0 1745.50771836 0 16306
0.12550000 0.12549900 13493.28864024 0 105.11057601 0 3906.68158274 0 491.35323678 0 1609.46206331 0 17523
0.12650000 0.12650100 13379.57586436 0 303.60425376 0 3648.27566612 0 64.89090973 0 1416.50465870 0 17154
0.12750000 0.12750600 13039.98766217 0 442.23529665 0 3771.20061626 0 -180.19322856 0 1741.13415006 0 18007
0.12850000 0.12850300 12847.77210332 0 263.62319607 0 3931.21785454 0 -42.82719878 0 2044.33869289 0 17496
0.12950000 0.12949900 12595.54454395 0 78.10794386 0 3713.69096115 0 -34.95400077 0 1674.02478933 0 18405
0.13050000 0.13049000 12690.65581414 0 16.65310870 0 4108.54113651 0 283.55227351 0 1813.66894994 0 18100
0.13150000 0.13148800 12798.94315087 0 45.39774971 0 3704.23519575 0 233.31602858 0 1177.53067214 0 19059
0.13250000 0.13249300 12579.48967296 0 86.42159895 0 3967.85617736 0 -135.79209881 0 1328.04785572 0 18957
0.13350000 0.13349100 12592.44429300 0 90.82827351 0 3799.75614196 0 180.73023632 0 774.67188424 0 19468
0.13450000 0.13450700 12458.35843944 0 108.89487519 0 3629.71844972 0 246.39133696 0 860.78910498 0 19953
0.13550000 0.13551000 12308.54988465 0 145.61103646 0 3626.66248807 0 20.14498778 0 830.65245129 0 19956
0.13650000 0.13649900 12230.15782493 0 200.87633132 0 3124.55470220 0 566.94067662 0 1002.45175041 0 19723
0.13750000 0.13749600 12085.66398605 0 94.82903663 0 3413.68632019 0 45.95358042 0 1074.54808623 0 20946
0.13850000 0.13851100 11838.41897285 0 419.05317018 0 3221.26038716 0 435.16008109 0 1040.34899657 0 20955
0.13950000 0.13949800 11592.50263863 0 146.70498215 0 3261.32005836 0 97.91312199 0 705.50971449 0 20506
0.14050000 0.14048300 11476.46467453 0 185.71499695 0 2977.61387953 0 -173.08811773 0 1049.32090137 0 21447
0.14150000 0.14148400 11418.00279948 0 85.64011427 0 3142.85725512 0 39.01842977 0 744.70906605 0 21771
0.14250000 0.14249400 11240.95632563 0 88.10558883 0 3055.40803371 0 -81.25591653 0 406.69756291 0 22470
0.14350000 0.14350900 11069.00312120 0 207.40789574 0 3022.97719431 0 -261.41758897 0 240.83302990 0 22519
0.14450000 0.14449900 10967.44775796 0 142.33362831 0 3174.16978971 0 -194.00484654 0 -147.99822969 0 22218
0.14550000 0.14550500 10994.70782167 0 -13.12391588 0 3003.36810706 0 -16.43830560 0 -281.99439741 0 23559
0.14650000 0.14650700 10843.51522627 0 213.46556464 0 3174.26944063 0 173.70373899 0 -721.28777736 0 23044
0.14750000 0.14750500 10702.23236158 0 389.60521509 0 3319.61584853 0 -275.32332171 0 -705.72673206 0 23649
0.14850000 0.14849900 10472.86915296 0 364.49096794 0 3281.72635300 0 -184.43946513 0 -205.72047343 0 23640
0.14950000 0.14949500 10099.73180658 0 275.78393042 0 3330.57745010 0 84.25762379 0 -120.49346761 0 24457
0.15050000 0.15050000 10078.51723222 0 114.94291117 0 3498.81035339 0 262.32994853 0 -422.57859840 0 24591
0.15150000 0.15149900 9898.17120558 0 66.77708026 0 3498.30102645 0 358.17974279 0 -467.29971834 0 25020
0.15250000 0.15250500 9841.27052833 0 371.06571441 0 3619.81979134 0 9.44875661 0 -303.88770528 0 25297
0.15350000 0.15350100 9498.10596523 0 306.93370183 0 3566.78335545 0 -305.35589555 0 -25.97810994 0 25452
0.15450000 0.15450400 9454.01596780 0 48.72498332 0 3827.13800124 0 45.89201829 0 178.89333763 0 26061
0.15550000 0.15549900 9439.21226952 0 -90.26912110 0 3650.06938274 0 542.79968682 0 199.97947301 0 26128
0.15650000 0.15649500 9532.37481054 0 -291.78011809 0 3287.08535821 0 579.52215931 0 -3.40423055 0 26331
0.15750000 0.15749700 9682.72590926 0 37.27752814 0 3049.56184620 0 752.43976324 0 191.36963324 0 27345
0.15850000 0.15849900 9682.75912623 0 142.74994772 0 2605.49518702 0 398.83178336 0 76.95155026 0 26980
0.15950000 0.15949700 9428.06243843 0 139.46589618 0 2446.26408381 0 248.55819092 0 334.02435897 0 27777
0.16050000 0.16050000 9172.13672257 0 337.31394667 0 2275.87207717 0 -13.14916078 0 376.95397675 0 28224
0.16150000 0.16150500 8998.41194616 0 293.09218858 0 2365.01536429 0 -113.72606268 0 682.58003703 0 28075
0.16250000 0.16249700 8847.36329099 0 92.03670704 0 2471.30968255 0 50.35604749 0 545.87668588 0 28590
0.16350000 0.16349900 8687.21318481 0 140.45576202 0 2416.96671234 0 -72.99762306 0 508.03590858 0 29163
0.16450000 0.16449100 8664.58135288 0 221.71998280 0 2471.15467000 0 -57.35287099 0 316.82903852 0 28996
0.16550000 0.16550500 8574.61871373 0 36.20495203 0 2348.13006894 0 -111.07313365 0 223.81818835 0 30777
0.16650000 0.16650700 8635.37256001 0 -173.36714031 0 2388.71013940 0 193.75350477 0 235.38544609 0 29211
0.16750000 0.16749900 8677.71313012 0 -206.88971093 0 2007.87752726 0 201.08116933 0 -49.10033513 0 30922
0.16850000 0.16850800 8823.18133359 0 51.95201239 0 2226.04661549 0 152.69621711 0 -58.27209540 0 30867
0.16950000 0.16949900 8778.65951549 0 138.65650924 0 2155.96987171 0 40.43712675 0 -294.81614955 0 30852
0.17050000 0.17049200 8506.76750724 0 371.20190401 0 2419.80122749 0 -124.75963436 0 -131.02103404 0 31257
0.17150000 0.17149500 8243.93266070 0 360.89135514 0 2662.07476685 0 -329.30201243 0 492.65977111 0 32608
0.17250000 0.17250900 8078.04709026 0 241.51287064 0 2785.61976717 0 200.58623641 0 566.73140968 0 32361
0.17350000 0.17350400 8018.81015248 0 -23.31964475 0 2893.69672973 0 193.95945001 0 1155.10921438 0 32508
0.17450000 0.17449800 7996.66550285 0 -72.61496352 0 2751.08518606 0 459.17373916 0 921.70349997 0 32791
0.17550000 0.17549800 8150.10578018 0 -5.78846747 0 2734.88637486 0 195.53725630 0 816.17649382 0 33633
0.17650000 0.17650100 7990.38749468 0 169.42871437 0 2614.64092732 0 0.67288511 0 910.27132460 0 33984
0.17750000 0.17750300 7937.87145806 0 194.06685156 0 2495.20375951 0 -37.90388955 0 991.17348035 0 34069
