### header ###
fiducial parameters:
Omega_m = 0.31
Omega_nu = 0
Omega_de = 0.69
Omega_k = 0
H_0 = 100
w_de = -1
zeff = 0
beta = 0
fgrowth = 0
b_1 = 2
gamma = 0.55
Lx = 3500 Ly = 3500 Lz = 3500
nx = 700 ny = 700 nz = 700
xoffset = -685.467585 yoffset = -31.7331281 zoffset = 572.489161
bins = 400 dk = 0.001
kx_ny = 0.628318531 ky_ny = 0.628318531 kz_ny = 0.628318531
############################
A(data) = 8.05840552 (not used)
A(ran) = 8.052723 (used)
Ngal = 478566
weighted Ngal = 0
Nran = 23820508
weighted Nran = 0
SN(data) = 3492.3639
SN(ran) = 70.1421378
SN(data+ran) = 3562.50604
############################
13 columns: k_central k_mean P_0(k) sigma^{lin}_{P_0(k)} P^img_1(k) sigma^{lin}_{P_1(k)} P_2(k) sigma^{lin}_{P_2(k)} P^img_3(k) sigma^{lin}_{P_3(k)} P_4(k) sigma^{lin}_{P_4(k)} N_modes
### header ###
0.00050000 0 0 0 0 0 0 0 0 0 0 0 0
0.00150000 0.00179520 4183.55613715 0 -2742.30483248 0 -1383.42055214 0 12075.69889371 0 -15799.65389997 0 3
0.00250000 0.00253879 8194.76046618 0 102.35412075 0 27041.82818133 0 11340.82869550 0 -14008.81608380 0 6
0.00350000 0.00331552 21773.83747912 0 -6056.00805956 0 25940.46403162 0 36121.24525587 0 14546.15600725 0 7
0.00450000 0.00420575 32303.50765840 0 -7946.93969209 0 33104.36891253 0 36956.76288668 0 -7863.96368990 0 24
0.00550000 0.00557378 47094.58349064 0 696.60424364 0 21611.51719727 0 30558.84143673 0 -26411.14855966 0 45
0.00650000 0.00659388 54231.25045250 0 -4998.18029103 0 23306.35795727 0 16499.09265876 0 -6629.25553239 0 40
0.00750000 0.00754703 61112.81105053 0 -3942.85486792 0 10033.97326948 0 5069.86252191 0 -33816.65156812 0 57
0.00850000 0.00846663 57475.55234761 0 3047.84563585 0 20105.12740570 0 -9441.54853006 0 -194.76772972 0 75
0.00950000 0.00948925 59227.63702691 0 1568.43909986 0 16081.55528985 0 -16896.36767325 0 -22583.11370011 0 112
0.01050000 0.01054430 67305.89449135 0 -3936.94224647 0 27919.19919996 0 -18663.06782132 0 -16238.22868603 0 105
0.01150000 0.01145670 74140.39770890 0 -10096.06686706 0 28839.64156214 0 4955.86186558 0 -17415.54898400 0 144
0.01250000 0.01249090 83559.29226238 0 -14673.81991241 0 27059.43317779 0 6690.71800746 0 -26509.47080405 0 169
0.01350000 0.01339930 91302.72262430 0 1164.73106465 0 32815.49195801 0 -870.42534927 0 -21920.98867596 0 180
0.01450000 0.01448870 96671.69292886 0 605.77131976 0 36022.03722549 0 3924.25336222 0 -15772.52670416 0 267
0.01550000 0.01550050 85068.67158166 0 8607.48137379 0 32260.43631486 0 -2810.61000429 0 5426.97821429 0 238
0.01650000 0.01653350 85149.16738309 0 7379.67127465 0 35773.57425656 0 -6877.90673085 0 -15840.17860880 0 315
0.01750000 0.01747870 77786.73571818 0 4274.61493646 0 48135.60347009 0 4406.17629996 0 2439.77570146 0 297
0.01850000 0.01844180 77663.50074295 0 2048.98906931 0 42721.01518727 0 -3007.94097721 0 -10674.06436724 0 388
0.01950000 0.01947590 74157.22764263 0 -4863.92835261 0 40171.39095128 0 6431.47059416 0 3753.45167957 0 399
0.02050000 0.02045430 83542.79449840 0 -2898.35817848 0 37523.22302441 0 13696.24435417 0 4661.71448445 0 462
0.02150000 0.02154770 80000.64706567 0 1135.62192270 0 33606.27739656 0 13545.43929014 0 3029.69809548 0 571
0.02250000 0.02255340 73707.91270149 0 7585.60544396 0 17433.59687346 0 19315.78136938 0 10235.51172583 0 510
0.02350000 0.02348930 72536.46073567 0 5546.01677841 0 20744.22199423 0 13552.30413153 0 20734.47834839 0 555
0.02450000 0.02439640 65755.65829349 0 4266.24425890 0 17315.67661414 0 12560.88816727 0 22295.56542457 0 592
0.02550000 0.02547300 64177.63056033 0 2814.96142794 0 20359.79087653 0 7274.81635862 0 19978.46000977 0 837
0.02650000 0.02652900 59594.24170166 0 2093.04584977 0 21200.84466975 0 -10647.80081277 0 27395.81040578 0 723
0.02750000 0.02749970 57832.63482301 0 2540.73315916 0 16297.13345407 0 239.83873513 0 16048.00614565 0 826
0.02850000 0.02848090 59702.63976163 0 837.38996094 0 22748.20206316 0 -766.09415420 0 22436.51611951 0 831
0.02950000 0.02946900 57854.77947265 0 1464.03814915 0 24264.33550057 0 6512.99612180 0 10797.05575133 0 996
0.03050000 0.03053250 57077.94516337 0 2336.73664670 0 18643.80197613 0 5903.91860585 0 11283.58477619 0 1041
0.03150000 0.03150510 56048.55112498 0 869.75325915 0 15878.37812943 0 2898.46890173 0 7939.17799239 0 1036
0.03250000 0.03246190 50624.77281257 0 1873.35985304 0 18133.14635550 0 3890.91459220 0 7261.97246183 0 1059
0.03350000 0.03345080 55070.31122725 0 2499.07907319 0 13898.75717510 0 3229.01101454 0 10886.03295357 0 1302
0.03450000 0.03451200 51394.96372695 0 -1730.07289756 0 13611.76251580 0 -1683.67985657 0 6330.39134089 0 1339
0.03550000 0.03553350 51071.87328874 0 2093.40016416 0 16006.70637408 0 -2971.21407578 0 4169.54964626 0 1365
0.03650000 0.03647120 53522.51094085 0 2932.11769685 0 22612.56608413 0 -2493.68685101 0 6142.85937544 0 1308
0.03750000 0.03744890 48754.87859719 0 3243.93650839 0 22218.72349033 0 -621.95130802 0 7225.14590948 0 1579
0.03850000 0.03847530 46449.50984670 0 3460.76584532 0 22638.58604745 0 222.69877631 0 6548.81509259 0 1662
0.03950000 0.03950240 44814.90253373 0 2100.58610297 0 21589.15110114 0 6008.81781118 0 1260.11914296 0 1683
0.04050000 0.04050350 39953.15542911 0 2707.16127351 0 19653.26582985 0 2830.55126129 0 6587.73431432 0 1822
0.04150000 0.04152450 41355.02247440 0 557.15052701 0 15342.80977795 0 1367.94144204 0 887.17113333 0 1887
0.04250000 0.04250150 37301.55508154 0 -493.34404078 0 20186.06610012 0 2269.40583948 0 1893.98759418 0 1920
0.04350000 0.04349210 40469.79010515 0 -512.53237969 0 15369.16191102 0 -723.79898063 0 -795.36052316 0 2005
0.04450000 0.04448520 39414.26538018 0 12.86692723 0 17040.64006564 0 2272.81611552 0 -558.11492651 0 2151
0.04550000 0.04548030 39289.14810973 0 1156.82542473 0 16967.78416833 0 1723.50700895 0 1203.39562291 0 2274
0.04650000 0.04648670 40110.60388803 0 -383.23752109 0 15327.41924645 0 2908.98761030 0 272.97266715 0 2311
0.04750000 0.04749250 38761.55183212 0 335.51137219 0 15414.77988927 0 1160.83360631 0 286.09780099 0 2568
0.04850000 0.04851840 39550.89786845 0 663.27654594 0 14321.27709018 0 -648.84266330 0 635.94672659 0 2493
0.04950000 0.04949480 38904.38482228 0 -12.61481039 0 18074.57375721 0 3310.33724033 0 6072.98193351 0 2644
0.05050000 0.05050630 39052.64325161 0 56.31716573 0 12927.04994902 0 1887.01202954 0 3643.53671110 0 2829
0.05150000 0.05149060 39565.18116746 0 -482.89951678 0 14533.53355696 0 2712.44277245 0 4518.73755406 0 2784
0.05250000 0.05249300 38718.14831884 0 1236.44651250 0 13483.43427115 0 2691.69323574 0 5211.18967590 0 3055
0.05350000 0.05348950 37830.92293112 0 1456.27644945 0 14129.50442432 0 1130.27398981 0 7455.04058969 0 3009
0.05450000 0.05448610 36198.41935986 0 1868.91985079 0 12495.67217408 0 1564.20947178 0 7043.70372268 0 3336
0.05550000 0.05550870 35547.92027676 0 952.02616872 0 13151.37524984 0 391.00586418 0 6659.35011125 0 3349
0.05650000 0.05647670 34270.17399269 0 640.22728736 0 11658.82586429 0 406.70863524 0 6493.03272015 0 3324
0.05750000 0.05747970 34788.13734770 0 334.81270849 0 14165.26803349 0 983.85578088 0 7166.56223887 0 3639
0.05850000 0.05849280 34337.38300434 0 734.91116582 0 12410.85816597 0 523.86711861 0 7491.92250366 0 3846
0.05950000 0.05951020 34035.44070653 0 -191.07068047 0 13100.66400217 0 855.43563593 0 6114.24848810 0 3787
0.06050000 0.06049470 33815.10144264 0 113.30420710 0 12648.24881008 0 1536.29614091 0 5144.03602587 0 3930
0.06150000 0.06148310 33671.60411299 0 686.27597905 0 12040.93179378 0 793.26896100 0 6129.89368307 0 4083
0.06250000 0.06249100 34100.76742296 0 -254.95688744 0 11956.56067866 0 -580.06359599 0 3718.66243499 0 4303
0.06350000 0.06350600 32784.82161827 0 1500.99756939 0 12841.68232467 0 -1429.00531342 0 2031.32871123 0 4470
0.06450000 0.06451750 31629.86741643 0 1895.94739567 0 12928.93224424 0 -2523.22781362 0 219.04158742 0 4479
0.06550000 0.06550280 30110.30155832 0 1490.27955897 0 13365.40328859 0 -1562.60398468 0 -487.04499519 0 4636
0.06650000 0.06648880 29010.70898058 0 679.55397065 0 12110.35527039 0 1287.16883249 0 -1597.23821671 0 4653
0.06750000 0.06749660 29328.59542613 0 -349.24437666 0 12370.99779663 0 1562.43789981 0 -4734.60359873 0 5220
0.06850000 0.06852730 29123.64669373 0 -217.47153176 0 10662.06196714 0 2062.74089674 0 -5575.73489823 0 5029
0.06950000 0.06949320 28634.69282974 0 970.27889618 0 10947.82759839 0 237.38621518 0 -4442.54888699 0 5040
0.07050000 0.07048030 28406.71366173 0 924.54908745 0 11006.69914945 0 -489.17088156 0 -3917.06742342 0 5475
0.07150000 0.07148790 27091.76436626 0 824.13528090 0 11542.34500720 0 -1080.09974990 0 -2332.18592120 0 5509
0.07250000 0.07249820 27291.73055249 0 814.87217396 0 11889.79456001 0 -472.87684835 0 -2720.56985886 0 5916
0.07350000 0.07351270 26307.62232261 0 506.48799757 0 12284.96583278 0 -404.11106784 0 -578.73159532 0 5721
0.07450000 0.07449140 26500.72366744 0 111.06981195 0 13411.68560633 0 905.00975584 0 -1752.27290882 0 6028
0.07550000 0.07549160 26498.73064898 0 -35.32326281 0 11489.19784807 0 1704.26330841 0 -2368.10454291 0 6183
0.07650000 0.07648840 25610.95164502 0 -120.44807107 0 10529.73661323 0 3572.46345809 0 -1645.29210643 0 6330
0.07750000 0.07749960 25957.18324210 0 -343.65063816 0 9084.39962071 0 1201.01507308 0 -2401.99692918 0 6583
0.07850000 0.07848650 26212.95394541 0 -768.22114780 0 8004.36076860 0 3600.14427013 0 -1479.77192271 0 6549
0.07950000 0.07947320 26340.39640407 0 -424.93146743 0 6328.74156449 0 2231.91494764 0 -2789.43971924 0 6828
0.08050000 0.08048110 26615.54367581 0 61.63409610 0 5328.22414923 0 974.03905769 0 -1000.71339541 0 7147
0.08150000 0.08149960 25937.14233418 0 808.71928306 0 5955.71494135 0 -183.74855206 0 -1150.73564608 0 7386
0.08250000 0.08250610 25765.41057624 0 1574.76139733 0 6408.59517108 0 -1519.65443671 0 -743.29180847 0 7227
0.08350000 0.08350160 23826.64650049 0 1791.61287891 0 7464.78423553 0 -1115.45921920 0 1461.67974396 0 7798
0.08450000 0.08449610 22926.68793923 0 1620.15792909 0 8715.82407214 0 -1055.16044548 0 1618.05418737 0 7371
0.08550000 0.08548940 21691.12721272 0 655.80715561 0 9203.36067856 0 603.75062048 0 2112.98710677 0 8256
0.08650000 0.08650700 21226.86463308 0 212.49895069 0 8677.95672126 0 1237.96342100 0 1445.45878810 0 8037
0.08750000 0.08749060 21049.37526623 0 298.26628596 0 7855.90303743 0 1051.25855821 0 1611.12291204 0 8155
0.08850000 0.08849210 21227.63969581 0 149.41659450 0 7676.60888164 0 714.31664165 0 1663.78288887 0 8718
0.08950000 0.08949900 20926.91535374 0 -115.80101635 0 7338.74796212 0 77.23267658 0 1145.97454641 0 8571
0.09050000 0.09049190 20775.11378047 0 -106.81460680 0 6609.96754256 0 464.23711330 0 185.37396935 0 8932
0.09150000 0.09150830 21016.49046152 0 157.17275803 0 6911.34515180 0 772.59250164 0 -57.65359533 0 9285
0.09250000 0.09250820 20512.58895902 0 -128.62387572 0 5864.93295016 0 693.97899543 0 -379.48068128 0 9204
0.09350000 0.09350330 20833.13276252 0 104.16178850 0 5957.79653842 0 960.11560923 0 113.37285552 0 9349
0.09450000 0.09448040 20565.40394841 0 611.20118785 0 6016.73452343 0 604.78920455 0 -262.59568433 0 9564
0.09550000 0.09549270 19735.53320325 0 1083.44248476 0 5924.34704514 0 -442.23418942 0 689.54895827 0 10155
0.09650000 0.09649430 18723.30126833 0 1294.94160452 0 6649.65075471 0 -140.24870955 0 1087.41855660 0 9913
0.09750000 0.09749140 18059.73684195 0 585.59754394 0 6825.63428538 0 175.70561531 0 1041.99545127 0 10476
0.09850000 0.09850240 17689.92119301 0 113.79692556 0 7135.44900613 0 -59.36925206 0 895.78983097 0 10575
0.09950000 0.09950330 17940.48790365 0 -83.18061875 0 6562.26796724 0 403.76228960 0 984.43043453 0 10882
0.10050000 0.10051200 17756.46586517 0 38.32906682 0 6270.43470200 0 309.29985765 0 -67.37099976 0 10875
0.10150000 0.10150300 17702.87581304 0 300.42649654 0 5400.54857494 0 415.53881428 0 150.68437569 0 11118
0.10250000 0.10250800 17351.32950005 0 15.47113802 0 5105.37146760 0 282.49597373 0 -727.03652840 0 11575
0.10350000 0.10349800 16888.06342964 0 449.17653708 0 4727.70554036 0 277.75258977 0 -1601.85537616 0 11364
0.10450000 0.10450100 16785.31225532 0 383.36374559 0 4038.57511598 0 606.28064670 0 -1775.85696069 0 12093
0.10550000 0.10551000 16511.16149281 0 138.35091307 0 3705.35350056 0 322.24008366 0 -1366.86742654 0 12067
0.10650000 0.10649700 16220.73441282 0 -47.81915643 0 3639.99356716 0 221.46089040 0 -1772.25845512 0 12054
0.10750000 0.10749900 16434.09811208 0 86.08112496 0 3498.14601390 0 310.89980858 0 -1722.57693366 0 12807
0.10850000 0.10850100 16253.95138728 0 236.37088300 0 3870.76296103 0 54.54946907 0 -1628.58396828 0 12736
0.10950000 0.10950300 15983.56521521 0 531.86133713 0 4132.26912859 0 -429.15777381 0 -682.05520883 0 12933
0.11050000 0.11050200 15771.41947168 0 545.33967813 0 4507.89774807 0 -46.11711866 0 -192.85000306 0 13428
0.11150000 0.11150900 15152.91940731 0 381.69846794 0 5147.39094029 0 -231.55995786 0 298.59624124 0 13453
0.11250000 0.11250000 15337.38433879 0 314.02884758 0 5247.03079133 0 262.67872677 0 774.60655752 0 13668
0.11350000 0.11349100 14759.07681351 0 196.59577055 0 5316.31032772 0 84.58691473 0 1282.56274537 0 13791
0.11450000 0.11448600 14919.40407688 0 -10.79941416 0 5315.91172403 0 343.99055854 0 657.89650331 0 14205
0.11550000 0.11549300 14816.98507231 0 20.66018305 0 5795.70877540 0 -133.25985812 0 448.78679125 0 14776
0.11650000 0.11649800 14767.38105712 0 259.28395198 0 6101.02813227 0 -450.17304631 0 546.54656154 0 14553
0.11750000 0.11747300 14652.45032551 0 215.73096230 0 6007.55556615 0 14.50186671 0 1210.18295803 0 14568
0.11850000 0.11849100 14677.69522609 0 -98.33608480 0 5651.00456234 0 572.43476419 0 1262.56612675 0 16015
0.11950000 0.11950300 14868.91427571 0 -357.00607636 0 5142.88450409 0 987.85953353 0 720.21929801 0 15270
0.12050000 0.12050700 14612.25778642 0 311.91292630 0 5009.71765350 0 495.80541859 0 403.79993551 0 15999
0.12150000 0.12150000 14424.80332724 0 640.45205556 0 4645.74819206 0 317.65835565 0 551.80259413 0 15670
0.12250000 0.12250700 13475.01930429 0 634.81181329 0 4290.85803697 0 -9.88242636 0 490.95463309 0 16887
0.12350000 0.12352200 13343.48008545 0 304.68048373 0 4238.18698781 0 80.80759810 0 -44.64150993 0 16407
0.12450000 0.12449800 12979.97566165 0 218.43703849 0 4128.86992487 0 -291.72918539 0 -537.35321024 0 16306
0.12550000 0.12549900 13047.07395005 0 63.11811980 0 4043.87875957 0 -443.93379128 0 -509.59267745 0 17523
0.12650000 0.12650100 13004.77766924 0 -158.55015524 0 3986.19194726 0 -107.84521880 0 -575.88711507 0 17154
0.12750000 0.12750600 13255.45510314 0 -224.79587463 0 4215.97590422 0 262.04871148 0 -542.63692364 0 18007
0.12850000 0.12850300 13302.29103712 0 187.76780597 0 3898.53235167 0 652.75451566 0 -822.51650701 0 17496
0.12950000 0.12949900 13088.59516812 0 314.57582042 0 3757.21627001 0 434.79690884 0 -903.04995435 0 18405
0.13050000 0.13049000 12702.61392494 0 295.69529214 0 3225.30178572 0 256.91336723 0 -1030.93309154 0 18100
0.13150000 0.13148800 12594.65875796 0 242.46509058 0 3148.11660941 0 187.98482354 0 -732.98125960 0 19059
0.13250000 0.13249300 12416.72649813 0 -24.95912388 0 3227.05121304 0 342.96636849 0 -374.07849400 0 18957
0.13350000 0.13349100 12499.65821102 0 -100.59871437 0 3314.74402561 0 -173.01725485 0 -629.50263354 0 19468
0.13450000 0.13450700 12570.41036661 0 271.39043193 0 3374.40171173 0 -83.48687926 0 -498.95881670 0 19953
0.13550000 0.13551000 12392.25666028 0 250.38291005 0 3569.88360640 0 -35.25981838 0 74.14693038 0 19956
0.13650000 0.13649900 12156.96975788 0 117.06879754 0 3798.99215155 0 275.79500275 0 668.38863830 0 19723
0.13750000 0.13749600 12221.63213482 0 75.09715730 0 3659.70230533 0 834.64070269 0 632.81547313 0 20946
0.13850000 0.13851100 12006.93975659 0 225.36388489 0 3769.81657565 0 388.30421692 0 627.61480216 0 20955
0.13950000 0.13949800 11747.73663258 0 360.52264672 0 3594.97349444 0 249.99648592 0 1034.63235526 0 20506
0.14050000 0.14048300 11623.06225513 0 205.88655831 0 3508.60936086 0 -16.26945264 0 926.85545271 0 21447
0.14150000 0.14148400 11128.12933573 0 345.53957678 0 3354.47152706 0 4.32704239 0 970.46823294 0 21771
0.14250000 0.14249400 11116.50339467 0 229.55697430 0 3214.46197973 0 -42.51794875 0 651.79122340 0 22470
0.14350000 0.14350900 10792.95899115 0 110.64408106 0 3071.41861539 0 172.65629706 0 752.30468087 0 22519
0.14450000 0.14449900 10861.55204340 0 27.22895047 0 3031.89041579 0 138.42399042 0 286.78539236 0 22218
0.14550000 0.14550500 10638.09038391 0 133.56434705 0 2870.50020923 0 93.83595982 0 180.43571248 0 23559
0.14650000 0.14650700 10542.02689378 0 442.52206986 0 2993.66875052 0 217.57561162 0 503.58483401 0 23044
0.14750000 0.14750500 10234.00588965 0 301.56362430 0 2889.25672748 0 84.15741925 0 353.59580032 0 23649
0.14850000 0.14849900 10094.70497111 0 45.71917930 0 2852.23087328 0 52.92803782 0 688.83479332 0 23640
0.14950000 0.14949500 10041.83462010 0 -53.63290202 0 2882.75727281 0 80.53876205 0 746.66665308 0 24457
0.15050000 0.15050000 10346.78859025 0 -137.82829934 0 2963.31950819 0 164.40077167 0 858.73851042 0 24591
0.15150000 0.15149900 10331.82987942 0 -37.43442298 0 2832.87644950 0 476.05017665 0 909.12533898 0 25020
0.15250000 0.15250500 10220.58623197 0 228.62357732 0 2981.31203602 0 -55.58694590 0 882.23730539 0 25297
0.15350000 0.15350100 10001.81923821 0 429.61838252 0 2976.25198358 0 -54.52588502 0 834.77689228 0 25452
0.15450000 0.15450400 9726.15156720 0 291.12463646 0 3213.96372511 0 -109.86392506 0 1062.09947144 0 26061
0.15550000 0.15549900 9482.29468539 0 146.66844348 0 2995.15244204 0 143.23491555 0 1372.14892548 0 26128
0.15650000 0.15649500 9493.63274600 0 72.46471207 0 3151.06184781 0 58.12228684 0 830.22727402 0 26331
0.15750000 0.15749700 9349.86968056 0 111.16724841 0 2966.66335028 0 216.54145648 0 1217.71213891 0 27345
0.15850000 0.15849900 9188.14730426 0 84.88077423 0 2896.52017256 0 317.34833056 0 633.64589749 0 26980
0.15950000 0.15949700 9214.46622035 0 65.28486304 0 2341.35380615 0 126.18464256 0 879.13594721 0 27777
0.16050000 0.16050000 9139.06368834 0 -40.54463902 0 2628.59205660 0 185.76703688 0 481.40475293 0 28224
0.16150000 0.16150500 9149.90349433 0 57.94357952 0 2456.95994958 0 57.06133668 0 837.43978640 0 28075
0.16250000 0.16249700 9325.85380803 0 144.98766457 0 2647.03854974 0 -166.62520173 0 938.94753864 0 28590
0.16350000 0.16349900 9127.26059008 0 122.47873545 0 2862.70529256 0 -240.82195757 0 1095.38177261 0 29163
0.16450000 0.16449100 9073.01727079 0 219.98494950 0 3053.72504033 0 -111.69096938 0 1115.63637640 0 28996
0.16550000 0.16550500 8887.17937104 0 239.34490944 0 3096.25383996 0 128.31274339 0 1415.19812437 0 30777
0.16650000 0.16650700 8754.97581270 0 74.81758109 0 3141.26284035 0 335.93322777 0 1214.31293519 0 29211
0.16750000 0.16749900 8632.06193489 0 94.00160180 0 2756.21167246 0 493.47026528 0 1034.82390648 0 30922
0.16850000 0.16850800 8542.63076733 0 43.07322584 0 2556.78803015 0 301.75738998 0 744.30160449 0 30867
0.16950000 0.16949900 8539.80732450 0 47.60723213 0 2336.10552419 0 45.84518236 0 182.35011744 0 30852
0.17050000 0.17049200 8376.01442346 0 94.39444788 0 2158.52757875 0 -376.51440546 0 193.38479635 0 31257
0.17150000 0.17149500 8363.31446689 0 140.28081929 0 2282.65941229 0 -482.14549146 0 -263.41392913 0 32608
0.17250000 0.17250900 8215.80895566 0 175.45205908 0 2473.77881098 0 -446.88013691 0 -178.87894361 0 32361
0.17350000 0.17350400 8182.89093397 0 53.55650298 0 2324.02561781 0 -34.75193085 0 -405.98450520 0 32508
0.17450000 0.17449800 8135.87784279 0 16.98660712 0 2569.89766273 0 167.35154624 0 -144.23363925 0 32791
0.17550000 0.17549800 8307.24421401 0 -25.78367991 0 2604.25508664 0 479.82694664 0 -580.47880817 0 33633
0.17650000 0.17650100 8286.31752010 0 -18.80401852 0 2558.80319326 0 190.44177242 0 -248.19944760 0 33984
0.17750000 0.17750300 8182.70270445 0 169.14304839 0 2379.70833932 0 197.15603019 0 54.23091828 0 34069
0.17850000 0.17849800 8161.55456405 0 134.84984397 0 2598.04351242 0 121.55308909 0 224.06067226 0 34536
