### header ###
fiducial parameters:
Omega_m = 0.31
Omega_nu = 0
Omega_de = 0.69
Omega_k = 0
H_0 = 100
w_de = -1
zeff = 0
beta = 0
fgrowth = 0
b_1 = 2
gamma = 0.55
Lx = 3500 Ly = 3500 Lz = 3500
nx = 700 ny = 700 nz = 700
xoffset = -685.467585 yoffset = -31.7331281 zoffset = 572.489161
bins = 400 dk = 0.001
kx_ny = 0.628318531 ky_ny = 0.628318531 kz_ny = 0.628318531
############################
A(data) = 8.01546162 (not used)
A(ran) = 8.00865689 (used)
Ngal = 476121
weighted Ngal = 0
Nran = 23820508
weighted Nran = 0
SN(data) = 3493.93073
SN(ran) = 69.758306
SN(data+ran) = 3563.68903
############################
13 columns: k_central k_mean P_0(k) sigma^{lin}_{P_0(k)} P^img_1(k) sigma^{lin}_{P_1(k)} P_2(k) sigma^{lin}_{P_2(k)} P^img_3(k) sigma^{lin}_{P_3(k)} P_4(k) sigma^{lin}_{P_4(k)} N_modes
### header ###
0.00050000 0 0 0 0 0 0 0 0 0 0 0 0
0.00150000 0.00179520 6952.39025990 0 -13280.81072697 0 6914.89936807 0 -50732.06364006 0 -27600.42696843 0 3
0.00250000 0.00253879 13668.00992588 0 -17744.61847761 0 -30046.74641386 0 31540.29230865 0 8738.75485684 0 6
0.00350000 0.00331552 35380.61744875 0 -40544.08540468 0 -31752.54877542 0 -15300.84566689 0 -31014.13543327 0 7
0.00450000 0.00420575 53318.22654795 0 -38705.74731504 0 -47107.20594093 0 -4485.40985636 0 -7616.17613278 0 24
0.00550000 0.00557378 86392.14656723 0 -13213.60171532 0 -20705.46885736 0 -44338.34967353 0 -17227.09801559 0 45
0.00650000 0.00659388 62016.42347898 0 17417.87417221 0 -31677.25696666 0 -67740.26179398 0 -4580.28860773 0 40
0.00750000 0.00754703 77550.23086005 0 11233.87003775 0 -2986.40530544 0 -23401.91212045 0 -17212.26110033 0 57
0.00850000 0.00846663 65457.36986287 0 -6726.02765131 0 -6899.11023287 0 -31186.53153070 0 -898.28221128 0 75
0.00950000 0.00948925 85665.24844289 0 -13044.63803859 0 8184.17532365 0 -9972.02361212 0 -50499.87698861 0 112
0.01050000 0.01054430 84911.33384599 0 -3676.65403463 0 3660.57701899 0 -15406.80781540 0 -41963.22527668 0 105
0.01150000 0.01145670 94693.84354651 0 4546.01976242 0 12158.51988336 0 -17322.65217877 0 -23636.86685310 0 144
0.01250000 0.01249090 79986.80665965 0 5867.61245277 0 5213.61451503 0 -7728.15055367 0 825.71751612 0 169
0.01350000 0.01339930 85820.70388334 0 7456.77894469 0 9600.41424655 0 33740.36325012 0 -7502.45228457 0 180
0.01450000 0.01448870 81622.41048186 0 -19794.10580154 0 -14125.40766414 0 30465.94463150 0 -6969.15375968 0 267
0.01550000 0.01550050 82291.95396364 0 -7216.66450867 0 -277.48021058 0 10845.90684843 0 -48361.81106613 0 238
0.01650000 0.01653350 103013.69913849 0 -1830.37708810 0 -3844.95337187 0 -36612.41358483 0 -15103.97973161 0 315
0.01750000 0.01747870 92009.91201047 0 14926.60108802 0 16625.20643845 0 -31258.05874902 0 15565.14206031 0 297
0.01850000 0.01844180 86005.05809157 0 13396.18435158 0 15661.58200948 0 -40854.44266934 0 19138.84561877 0 388
0.01950000 0.01947590 90852.96479017 0 -5937.71134120 0 37134.58442327 0 -7293.40679199 0 4898.89475439 0 399
0.02050000 0.02045430 87997.96583568 0 3674.63887151 0 37802.24560984 0 6454.84427185 0 -12355.60726513 0 462
0.02150000 0.02154770 86929.81866043 0 12035.72780112 0 46000.30562881 0 -1217.75642820 0 -25095.86709445 0 571
0.02250000 0.02255340 66703.22785147 0 7673.06573770 0 38649.61062821 0 -3933.73127227 0 -5684.00009030 0 510
0.02350000 0.02348930 69923.05990873 0 7241.20078047 0 42580.17521558 0 12983.18663585 0 -19819.57214863 0 555
0.02450000 0.02439640 60258.35974428 0 -2987.66755046 0 28515.11172170 0 13145.83908743 0 -14366.23072895 0 592
0.02550000 0.02547300 64593.61780377 0 -1523.89513712 0 24466.73759826 0 21562.02390534 0 -25882.11287983 0 837
0.02650000 0.02652900 63303.35979265 0 -831.20606753 0 10044.83522013 0 11066.14646140 0 -18681.66932701 0 723
0.02750000 0.02749970 64695.37246885 0 1692.88095850 0 2967.69307649 0 3932.79012466 0 -24021.74086380 0 826
0.02850000 0.02848090 64613.54798844 0 -14.35615491 0 6999.92375035 0 -2280.53352592 0 -19536.00991002 0 831
0.02950000 0.02946900 64611.00135374 0 2902.14491357 0 8032.25195481 0 -12511.28415208 0 -19435.91609366 0 996
0.03050000 0.03053250 61482.40525298 0 3970.12600395 0 18576.59296448 0 -10474.74037586 0 -14868.69282922 0 1041
0.03150000 0.03150510 60164.35570657 0 2607.73179664 0 25237.37140564 0 -10358.55847154 0 -16894.26393154 0 1036
0.03250000 0.03246190 59066.20253105 0 2620.05529416 0 23845.35872944 0 -1654.33819580 0 -17992.74927680 0 1059
0.03350000 0.03345080 56966.77902219 0 2365.55790820 0 33115.77340710 0 4211.09300898 0 -5590.25071606 0 1302
0.03450000 0.03451200 55457.39970291 0 -750.56964757 0 27959.83463205 0 12569.85675037 0 -4555.89627615 0 1339
0.03550000 0.03553350 56101.14466787 0 -2392.35293427 0 21571.54610468 0 16290.37933593 0 -339.72660625 0 1365
0.03650000 0.03647120 57082.48481655 0 -687.37546090 0 19210.37283710 0 8815.30891064 0 780.64429625 0 1308
0.03750000 0.03744890 55395.17323743 0 3092.77712997 0 14860.27786235 0 4780.18836001 0 7531.80501766 0 1579
0.03850000 0.03847530 52695.51900015 0 3138.94872446 0 14394.79732698 0 1256.47634810 0 13378.57935512 0 1662
0.03950000 0.03950240 49353.89136988 0 2484.13143469 0 15530.70713012 0 1009.24794338 0 16365.89259119 0 1683
0.04050000 0.04050350 49757.92050251 0 1253.48682039 0 19810.49284227 0 1001.52388959 0 14476.73253064 0 1822
0.04150000 0.04152450 45839.53547244 0 2504.54880165 0 15991.98018207 0 -456.68800224 0 9291.83962618 0 1887
0.04250000 0.04250150 46126.53013174 0 2659.68314469 0 20603.04985279 0 -2325.93005768 0 8552.66229362 0 1920
0.04350000 0.04349210 43871.20828943 0 1005.62950763 0 19248.46163448 0 -2627.32981157 0 7332.70247277 0 2005
0.04450000 0.04448520 42678.49745997 0 2139.08457636 0 20896.35573724 0 -240.07346842 0 7305.09916700 0 2151
0.04550000 0.04548030 42467.45894893 0 190.46059537 0 16869.12975420 0 3355.68948279 0 2102.86700188 0 2274
0.04650000 0.04648670 41202.55656164 0 -326.07332251 0 15936.06494173 0 3715.19679732 0 -761.83684531 0 2311
0.04750000 0.04749250 41492.20857890 0 -404.65914791 0 13730.12566811 0 1465.43326207 0 -2984.10226187 0 2568
0.04850000 0.04851840 41884.94394022 0 681.55916868 0 12048.68242115 0 1358.71819547 0 -2684.39657368 0 2493
0.04950000 0.04949480 39536.83601593 0 1495.18459886 0 11919.24694402 0 1.50203837 0 1489.93631690 0 2644
0.05050000 0.05050630 41145.97698182 0 -968.43313964 0 11152.82062008 0 1889.72474912 0 -3445.77391751 0 2829
0.05150000 0.05149060 39128.59939986 0 874.28294724 0 12280.75834935 0 810.02803185 0 -3215.94567125 0 2784
0.05250000 0.05249300 39407.28981555 0 2306.97423759 0 12023.65896706 0 -3892.11040328 0 -8434.37664758 0 3055
0.05350000 0.05348950 37292.25432869 0 1126.64226727 0 14049.34079264 0 470.27042309 0 -1306.64505185 0 3009
0.05450000 0.05448610 37042.13051104 0 826.34974587 0 13695.02639844 0 -1134.16037582 0 -4303.53584889 0 3336
0.05550000 0.05550870 37000.72001621 0 -574.62819174 0 14419.15644158 0 2649.86199257 0 -4633.84544288 0 3349
0.05650000 0.05647670 38504.45244984 0 9.34155436 0 13303.95188584 0 -41.55797819 0 -4816.94847840 0 3324
0.05750000 0.05747970 37710.23459059 0 733.22595798 0 14488.35847170 0 -285.69919730 0 -1771.62733261 0 3639
0.05850000 0.05849280 36084.92803046 0 1639.33519567 0 15268.07158542 0 1112.66899335 0 923.08421888 0 3846
0.05950000 0.05951020 36425.51274189 0 906.49676906 0 14929.03699948 0 696.27096666 0 -327.52822600 0 3787
0.06050000 0.06049470 35190.17346187 0 557.45280148 0 15211.49200560 0 1291.32095430 0 2829.20043766 0 3930
0.06150000 0.06148310 35293.25680593 0 14.89493424 0 14704.49025216 0 2657.98907899 0 2760.80668726 0 4083
0.06250000 0.06249100 34838.73787213 0 477.51061629 0 13237.18576719 0 3023.35365336 0 2289.10350533 0 4303
0.06350000 0.06350600 34042.41627117 0 1334.04905577 0 12566.42432967 0 847.79794627 0 1500.08963876 0 4470
0.06450000 0.06451750 32499.26636119 0 2126.56177699 0 12209.56330077 0 1847.06308160 0 4191.05210105 0 4479
0.06550000 0.06550280 30935.96482005 0 995.27688393 0 12462.45519963 0 -2.83845690 0 4194.16342433 0 4636
0.06650000 0.06648880 30359.53958999 0 515.07790717 0 12163.72387602 0 1355.77295707 0 4872.78621246 0 4653
0.06750000 0.06749660 29903.02763772 0 644.12253123 0 11384.23220879 0 2523.89215311 0 5673.96856402 0 5220
0.06850000 0.06852730 29919.41467845 0 -746.05103182 0 10271.89538518 0 1126.02221708 0 2723.30472309 0 5029
0.06950000 0.06949320 29486.70822454 0 205.87437875 0 9149.82598806 0 995.81056998 0 3676.78690253 0 5040
0.07050000 0.07048030 30118.05218570 0 561.05795044 0 9131.84453255 0 -469.86739047 0 880.46905511 0 5475
0.07150000 0.07148790 29021.33841241 0 826.03086291 0 7940.91634739 0 -1675.76314433 0 648.66661334 0 5509
0.07250000 0.07249820 28320.90314438 0 830.60705476 0 8672.28769096 0 -1797.20440294 0 -1524.51518730 0 5916
0.07350000 0.07351270 27815.78368616 0 375.23223024 0 9345.55147388 0 -164.80823323 0 -2768.92270135 0 5721
0.07450000 0.07449140 27107.26562101 0 601.11319271 0 9302.52441963 0 1022.44504733 0 -1131.70231971 0 6028
0.07550000 0.07549160 27563.44540354 0 -76.56446178 0 8894.08850172 0 2139.85963910 0 -1222.83862530 0 6183
0.07650000 0.07648840 27427.92014776 0 -894.96272830 0 7980.65492116 0 2175.63432059 0 -1393.40778913 0 6330
0.07750000 0.07749960 27709.71081439 0 513.15796604 0 7915.42785565 0 2559.70005157 0 -1150.19310216 0 6583
0.07850000 0.07848650 26963.98973786 0 1017.93418220 0 6826.13253999 0 296.94535761 0 -140.59638055 0 6549
0.07950000 0.07947320 25875.58020818 0 674.96006308 0 5988.07934680 0 631.96290412 0 1392.24519502 0 6828
0.08050000 0.08048110 25727.54322536 0 261.10313494 0 6494.77107515 0 525.54900475 0 1425.42895250 0 7147
0.08150000 0.08149960 25554.48278844 0 250.45709463 0 6010.70010640 0 -392.03226869 0 -822.84424783 0 7386
0.08250000 0.08250610 24605.58455148 0 821.01731423 0 7047.14721570 0 -1001.72319144 0 -437.41329919 0 7227
0.08350000 0.08350160 24551.66232962 0 1004.40933744 0 6725.04221440 0 -399.06430218 0 257.08166657 0 7798
0.08450000 0.08449610 23603.76060189 0 670.50788128 0 7355.55575120 0 666.96695180 0 756.14899205 0 7371
0.08550000 0.08548940 23152.45264229 0 712.91709980 0 6987.07985356 0 507.41475116 0 194.20857732 0 8256
0.08650000 0.08650700 22491.21340412 0 576.25471626 0 7742.73280546 0 938.74491510 0 -47.14474112 0 8037
0.08750000 0.08749060 21810.04398127 0 550.23364570 0 7319.08351325 0 517.20157907 0 1160.44607494 0 8155
0.08850000 0.08849210 21391.95299612 0 344.22197012 0 7387.69871015 0 321.75511583 0 275.61563108 0 8718
0.08950000 0.08949900 21030.66303729 0 757.43338173 0 7667.13097160 0 -496.02132892 0 87.25279838 0 8571
0.09050000 0.09049190 20777.66041518 0 516.16742393 0 7849.30393184 0 -939.71485075 0 554.25289961 0 8932
0.09150000 0.09150830 20026.95679248 0 500.02618881 0 8356.62678270 0 -33.01280079 0 623.06296943 0 9285
0.09250000 0.09250820 20159.49252056 0 162.52844155 0 7837.31260406 0 197.83365646 0 692.92933903 0 9204
0.09350000 0.09350330 19529.03434538 0 203.91900619 0 7905.32989542 0 1175.59301529 0 -440.09944519 0 9349
0.09450000 0.09448040 19528.25928265 0 641.35112833 0 7042.66292415 0 1092.67901812 0 -225.93964578 0 9564
0.09550000 0.09549270 18561.53460273 0 677.46019403 0 6014.95187913 0 822.24191336 0 736.26531114 0 10155
0.09650000 0.09649430 18080.77425910 0 443.00150153 0 5766.92073087 0 1384.25097650 0 1038.91513050 0 9913
0.09750000 0.09749140 17557.71763467 0 423.40791553 0 5575.19235431 0 862.94710109 0 805.87591004 0 10476
0.09850000 0.09850240 17227.87307832 0 430.73890179 0 5046.47777189 0 498.56132024 0 805.04327122 0 10575
0.09950000 0.09950330 16763.83194518 0 574.17201196 0 5341.96490433 0 -108.71483919 0 606.25628759 0 10882
0.10050000 0.10051200 16215.41969691 0 487.51667623 0 5270.73663877 0 -612.60848033 0 1550.87839270 0 10875
0.10150000 0.10150300 16307.31999290 0 -104.46051982 0 5680.66732053 0 -51.16632022 0 1765.94722998 0 11118
0.10250000 0.10250800 16317.72797823 0 -70.40537038 0 5559.18177262 0 144.88690641 0 1272.23226631 0 11575
0.10350000 0.10349800 16525.11262209 0 0.57893090 0 5934.45607770 0 101.37178409 0 330.58640211 0 11364
0.10450000 0.10450100 16283.29304805 0 273.02470708 0 5350.34665422 0 71.96922554 0 533.63955249 0 12093
0.10550000 0.10551000 16212.09799946 0 380.69642254 0 5699.04737973 0 -544.54247074 0 203.48497105 0 12067
0.10650000 0.10649700 15909.04846918 0 108.60201220 0 4991.91335519 0 723.54874609 0 -593.23966253 0 12054
0.10750000 0.10749900 15773.85538314 0 -48.07514858 0 5526.34125721 0 258.80562754 0 402.20662797 0 12807
0.10850000 0.10850100 15810.50477829 0 198.67293869 0 5169.42486668 0 456.49645102 0 -513.47352730 0 12736
0.10950000 0.10950300 15542.44379443 0 83.20387064 0 5119.45546477 0 570.13172063 0 367.67093963 0 12933
0.11050000 0.11050200 15567.02435553 0 104.74142470 0 4591.25020930 0 416.55857540 0 650.70835003 0 13428
0.11150000 0.11150900 15368.27612503 0 341.03978397 0 5084.62193089 0 20.39621883 0 -15.93385048 0 13453
0.11250000 0.11250000 15286.67309112 0 481.55755101 0 5122.89895779 0 -140.67277959 0 851.51160402 0 13668
0.11350000 0.11349100 14732.17106420 0 285.81988564 0 5220.28005457 0 -501.92177082 0 302.32207855 0 13791
0.11450000 0.11448600 14897.03798075 0 2.67252704 0 5634.49572604 0 -467.44919473 0 420.10946997 0 14205
0.11550000 0.11549300 14777.56759596 0 21.10584412 0 5700.84109635 0 -6.52291692 0 -110.08282492 0 14776
0.11650000 0.11649800 14702.60795694 0 245.22542115 0 5337.43632348 0 167.36040410 0 -26.14065166 0 14553
0.11750000 0.11747300 14905.01005462 0 60.32822611 0 5234.12046060 0 710.45350752 0 -62.48810452 0 14568
0.11850000 0.11849100 14392.25069227 0 186.03166544 0 5157.40032193 0 905.10940677 0 -84.83349540 0 16015
0.11950000 0.11950300 14178.00120703 0 375.30641482 0 4489.96058186 0 943.24027898 0 899.97627698 0 15270
0.12050000 0.12050700 13858.45391276 0 62.63868813 0 4442.88105673 0 675.99975439 0 229.70423622 0 15999
0.12150000 0.12150000 14073.25701424 0 221.79084567 0 4045.37352342 0 397.89617192 0 865.24239402 0 15670
0.12250000 0.12250700 13643.87225778 0 271.31624736 0 4149.32050881 0 5.12873407 0 632.77893446 0 16887
0.12350000 0.12352200 13459.18587980 0 120.62522827 0 4118.11869747 0 -209.52270978 0 1430.52222192 0 16407
0.12450000 0.12449800 13512.00086919 0 -59.73751758 0 4306.96826958 0 205.03177483 0 1138.73324597 0 16306
0.12550000 0.12549900 13615.85927599 0 59.13828337 0 4187.61968036 0 -238.85440545 0 857.94130304 0 17523
0.12650000 0.12650100 13572.34503945 0 316.69838509 0 4659.57752576 0 -279.40125894 0 545.59212714 0 17154
0.12750000 0.12750600 13199.31841631 0 383.01164566 0 4261.83747362 0 -153.73037225 0 975.50614073 0 18007
0.12850000 0.12850300 12694.53112783 0 434.39055452 0 4627.86638748 0 -132.13490992 0 939.92522492 0 17496
0.12950000 0.12949900 12512.28066131 0 247.30480375 0 4270.75069510 0 647.16963502 0 546.25203770 0 18405
0.13050000 0.13049000 12216.42814216 0 77.48811512 0 4324.47361512 0 737.32714709 0 1077.02939422 0 18100
0.13150000 0.13148800 12456.69759072 0 -125.31767953 0 3801.10696559 0 502.74112286 0 471.52491749 0 19059
0.13250000 0.13249300 12278.10099140 0 67.10061359 0 4170.61258944 0 188.60265926 0 868.65156283 0 18957
0.13350000 0.13349100 12379.30204024 0 167.62724713 0 4144.69227704 0 -575.00575802 0 694.63779875 0 19468
0.13450000 0.13450700 11982.80208848 0 395.32185640 0 4570.66675746 0 -698.32599015 0 862.48427791 0 19953
0.13550000 0.13551000 12057.98317400 0 262.79720064 0 4848.75926761 0 -422.82883294 0 1023.43712764 0 19956
0.13650000 0.13649900 11810.73816080 0 35.94862771 0 4921.40479074 0 -26.22923026 0 562.59700359 0 19723
0.13750000 0.13749600 12004.61456838 0 -74.24990300 0 4678.20117610 0 307.08207099 0 30.11163024 0 20946
0.13850000 0.13851100 11840.96560756 0 -55.47666555 0 4595.84522410 0 302.20581914 0 -446.90006710 0 20955
0.13950000 0.13949800 11955.45344618 0 206.38370569 0 3974.59922318 0 515.56398223 0 -255.53043386 0 20506
0.14050000 0.14048300 11562.82880811 0 185.59541584 0 3797.05449471 0 234.68346069 0 -881.13893077 0 21447
0.14150000 0.14148400 11408.70204664 0 219.13016602 0 3509.81624426 0 564.69963808 0 -197.34647417 0 21771
0.14250000 0.14249400 11305.72942582 0 101.78334240 0 3411.28362570 0 521.24076316 0 -511.51483304 0 22470
0.14350000 0.14350900 11186.70193402 0 201.76876071 0 3307.30342333 0 367.80602199 0 -148.23849914 0 22519
0.14450000 0.14449900 10880.87325021 0 215.84832894 0 2989.53877336 0 38.46259906 0 -105.06052910 0 22218
0.14550000 0.14550500 10867.71932832 0 238.89980198 0 3169.67442583 0 132.76492520 0 -8.94465581 0 23559
0.14650000 0.14650700 10694.38208329 0 224.88113153 0 3350.19760968 0 -732.99343916 0 151.55466042 0 23044
0.14750000 0.14750500 10490.59594500 0 298.99595217 0 3563.01876502 0 -9.70809261 0 27.04559277 0 23649
0.14850000 0.14849900 10338.70579314 0 212.67500065 0 3638.11127194 0 -156.28697205 0 287.11091871 0 23640
0.14950000 0.14949500 10172.08944927 0 63.49480029 0 3425.01330848 0 714.14059169 0 232.75909064 0 24457
0.15050000 0.15050000 10216.86593083 0 -68.95589234 0 3315.81804112 0 695.10947979 0 72.98245398 0 24591
0.15150000 0.15149900 10174.84645815 0 -110.31401506 0 2951.30603576 0 513.78465963 0 478.93008833 0 25020
0.15250000 0.15250500 10151.63886533 0 151.68088492 0 2910.24985533 0 299.71676052 0 156.37112172 0 25297
0.15350000 0.15350100 10121.58857577 0 160.18775208 0 2635.75585075 0 -289.50918427 0 406.56801671 0 25452
0.15450000 0.15450400 9832.27980058 0 268.40533316 0 2626.76512300 0 0.11457088 0 750.08357251 0 26061
0.15550000 0.15549900 9709.55415229 0 143.28806271 0 2597.72241500 0 32.14716643 0 577.02424283 0 26128
0.15650000 0.15649500 9649.89646617 0 3.11274053 0 2488.43856904 0 333.89149107 0 256.22466863 0 26331
0.15750000 0.15749700 9596.98182586 0 34.86697230 0 2427.10896187 0 283.95862783 0 174.18981405 0 27345
0.15850000 0.15849900 9608.00986138 0 42.59268694 0 2493.38789824 0 133.46801783 0 51.46671239 0 26980
0.15950000 0.15949700 9603.31519566 0 169.44089393 0 2407.52201927 0 -136.51622885 0 373.39533156 0 27777
0.16050000 0.16050000 9366.33422756 0 268.55148785 0 2588.66525330 0 -204.32203881 0 845.35539142 0 28224
0.16150000 0.16150500 9274.55572714 0 339.38779311 0 2711.96666248 0 -120.22330288 0 707.54370056 0 28075
0.16250000 0.16249700 8897.84201984 0 274.35227882 0 2659.46169819 0 110.25267438 0 1143.30611612 0 28590
0.16350000 0.16349900 8829.28218456 0 196.05101217 0 2844.35845034 0 121.57744821 0 693.11756855 0 29163
0.16450000 0.16449100 8544.78987067 0 63.86516955 0 2620.32102996 0 215.92694245 0 548.73998908 0 28996
0.16550000 0.16550500 8539.44193778 0 7.53377589 0 2459.34049942 0 293.01025337 0 465.93671516 0 30777
0.16650000 0.16650700 8543.16223892 0 22.00414184 0 2271.52065352 0 243.86352520 0 262.93560470 0 29211
0.16750000 0.16749900 8554.06847887 0 -106.28291376 0 2151.38592924 0 252.28845716 0 262.26351458 0 30922
0.16850000 0.16850800 8604.74650956 0 13.07818718 0 1888.22998527 0 94.70292285 0 278.56640565 0 30867
0.16950000 0.16949900 8668.74454701 0 50.25407138 0 1965.43730623 0 -70.44179833 0 22.20333296 0 30852
0.17050000 0.17049200 8666.72938390 0 107.69518880 0 2148.25246131 0 -96.38004789 0 379.59361899 0 31257
0.17150000 0.17149500 8380.43228106 0 281.80284619 0 2258.65461208 0 -168.65143717 0 360.20929993 0 32608
0.17250000 0.17250900 8283.71552377 0 165.71948556 0 2207.47832677 0 143.45636205 0 450.62590440 0 32361
0.17350000 0.17350400 8203.34151791 0 111.08974214 0 2401.32151737 0 -41.07002083 0 235.08427885 0 32508
0.17450000 0.17449800 8174.85242615 0 126.26989946 0 2413.40142375 0 -21.97435728 0 172.96078599 0 32791
0.17550000 0.17549800 7999.43358405 0 126.24886205 0 2398.83024428 0 -54.97431417 0 319.75323951 0 33633
0.17650000 0.17650100 7989.09203267 0 73.96567642 0 2387.53647297 0 -9.70324293 0 231.77476096 0 33984
0.17750000 0.17750300 7888.09028568 0 74.27625513 0 2377.95891200 0 34.62714574 0 205.41598450 0 34069
0.17850000 0.17849800 7902.18535517 0 118.32107748 0 2468.22050392 0 23.24645668 0 156.70107700 0 34536
