### header ###
fiducial parameters:
Omega_m = 0.31
Omega_nu = 0
Omega_de = 0.69
Omega_k = 0
H_0 = 100
w_de = -1
zeff = 0
beta = 0
fgrowth = 0
b_1 = 2
gamma = 0.55
Lx = 3500 Ly = 3500 Lz = 3500
nx = 700 ny = 700 nz = 700
xoffset = -685.467585 yoffset = -31.7331281 zoffset = 572.489161
bins = 400 dk = 0.001
kx_ny = 0.628318531 ky_ny = 0.628318531 kz_ny = 0.628318531
############################
A(data) = 8.05669993 (not used)
A(ran) = 8.05131894 (used)
Ngal = 478305
weighted Ngal = 0
Nran = 23820508
weighted Nran = 0
SN(data) = 3493.46791
SN(ran) = 70.1299079
SN(data+ran) = 3563.59782
############################
13 columns: k_central k_mean P_0(k) sigma^{lin}_{P_0(k)} P^img_1(k) sigma^{lin}_{P_1(k)} P_2(k) sigma^{lin}_{P_2(k)} P^img_3(k) sigma^{lin}_{P_3(k)} P_4(k) sigma^{lin}_{P_4(k)} N_modes
### header ###
0.00050000 0 0 0 0 0 0 0 0 0 0 0 0
0.00150000 0.00179520 42020.91208899 0 -26505.70621361 0 16498.09614953 0 38326.18802026 0 -20309.19035211 0 3
0.00250000 0.00253879 69197.60118661 0 -15914.69535483 0 24740.44546778 0 -30618.07837451 0 7138.48282313 0 6
0.00350000 0.00331552 56947.73462350 0 17452.75199539 0 28074.65464042 0 -57632.33646704 0 41895.35192555 0 7
0.00450000 0.00420575 51287.23000647 0 18603.27726730 0 26271.08365071 0 -12370.44418038 0 55679.62126202 0 24
0.00550000 0.00557378 39260.80295820 0 225.06382489 0 35110.34199993 0 21432.47770496 0 13842.28831853 0 45
0.00650000 0.00659388 59330.05603148 0 -659.27279328 0 56312.73679515 0 26246.61381286 0 -11878.83295844 0 40
0.00750000 0.00754703 54385.93083021 0 -9922.82927295 0 29605.84643959 0 28164.22974820 0 8872.56390228 0 57
0.00850000 0.00846663 66226.56426802 0 -3312.18631857 0 49853.03177271 0 2328.75350051 0 18528.98196776 0 75
0.00950000 0.00948925 57701.09560416 0 3550.38524240 0 6067.44577110 0 37193.82136105 0 13195.66454912 0 112
0.01050000 0.01054430 62335.52788026 0 -5906.31022801 0 25987.41068885 0 10261.71991867 0 2057.78049522 0 105
0.01150000 0.01145670 70583.85625391 0 -13141.52088075 0 1658.85570433 0 12393.25316951 0 -8398.82341259 0 144
0.01250000 0.01249090 69831.49178248 0 -4805.02358457 0 4951.76510540 0 -7842.73804322 0 -32819.58871820 0 169
0.01350000 0.01339930 74379.00630875 0 10064.20071623 0 -16641.37203268 0 -14456.13800647 0 -8218.90920661 0 180
0.01450000 0.01448870 72871.06639169 0 -5398.72164135 0 -802.73358426 0 -15566.47073929 0 -20444.38343814 0 267
0.01550000 0.01550050 73980.18116878 0 -1976.40998013 0 -13512.66520868 0 -3477.87258716 0 -2578.47871447 0 238
0.01650000 0.01653350 73837.68034836 0 -967.21296944 0 -6147.89728323 0 1434.04322121 0 -25770.83601540 0 315
0.01750000 0.01747870 75608.03436362 0 -511.80935688 0 -7263.95440797 0 -7706.26056750 0 -29689.11032222 0 297
0.01850000 0.01844180 75302.65964512 0 -122.22296474 0 648.71311710 0 -5728.25617260 0 -10167.42800052 0 388
0.01950000 0.01947590 79385.69014524 0 4887.63420005 0 -5563.57748557 0 -9228.12946918 0 -7431.39010388 0 399
0.02050000 0.02045430 71904.34171178 0 436.69249085 0 973.28392514 0 -12085.88543255 0 1191.31571654 0 462
0.02150000 0.02154770 72234.85060761 0 4220.62628065 0 4135.83441718 0 2314.23768267 0 -1744.02402683 0 571
0.02250000 0.02255340 66767.00444242 0 1725.50002741 0 7960.07146932 0 864.18387977 0 -11703.22588681 0 510
0.02350000 0.02348930 67760.19197866 0 -379.31016747 0 5171.07464308 0 3934.10773131 0 -7403.55427929 0 555
0.02450000 0.02439640 65421.16336072 0 -2294.04176220 0 4869.74132314 0 1506.45622553 0 -6308.91103074 0 592
0.02550000 0.02547300 68283.02715659 0 100.66448398 0 -1477.21421568 0 1765.22752886 0 -4635.10768791 0 837
0.02650000 0.02652900 68305.06108298 0 -374.73840456 0 -4716.37855208 0 492.07847406 0 -688.86468859 0 723
0.02750000 0.02749970 71555.89564974 0 -274.23823388 0 11089.92981511 0 -4157.02684689 0 1273.11805230 0 826
0.02850000 0.02848090 66892.56460587 0 4579.17030292 0 3750.47322420 0 -268.70871486 0 7309.90455597 0 831
0.02950000 0.02946900 68064.01657168 0 6490.59680869 0 13999.51533095 0 -2902.21134751 0 15237.51196892 0 996
0.03050000 0.03053250 62432.85361541 0 959.33390310 0 16254.83717326 0 4940.89208242 0 10700.83724866 0 1041
0.03150000 0.03150510 63948.43343659 0 2603.35822833 0 23669.97310431 0 -2179.75322542 0 16857.61453639 0 1036
0.03250000 0.03246190 57136.51776166 0 4722.16937796 0 22874.86945908 0 -2999.80281847 0 14100.05204031 0 1059
0.03350000 0.03345080 59849.79095847 0 4249.92365212 0 29414.62738997 0 -2698.02660553 0 17288.99231132 0 1302
0.03450000 0.03451200 55017.49623787 0 -872.90665726 0 24815.84799979 0 2446.60732588 0 9816.32458052 0 1339
0.03550000 0.03553350 55471.24010894 0 2130.02741466 0 27669.85044505 0 3242.02099620 0 7279.06813135 0 1365
0.03650000 0.03647120 53612.08604864 0 2317.16077642 0 22526.86629003 0 -1986.17577062 0 -4043.83447027 0 1308
0.03750000 0.03744890 51608.32742621 0 2194.15832001 0 24563.62044042 0 1629.12651219 0 -2628.61420125 0 1579
0.03850000 0.03847530 50414.73081076 0 1334.34800854 0 22548.90021642 0 2629.30068538 0 -3307.20377241 0 1662
0.03950000 0.03950240 48430.23803351 0 1064.68153759 0 22901.22159215 0 3352.67781044 0 -1390.76150350 0 1683
0.04050000 0.04050350 47750.95090589 0 1998.66535301 0 22818.40060251 0 2403.30346351 0 -2591.33368358 0 1822
0.04150000 0.04152450 45230.88977716 0 1860.49381160 0 17616.62240271 0 578.97075753 0 -7844.86392958 0 1887
0.04250000 0.04250150 44841.69755979 0 584.17696466 0 20570.49721783 0 1475.86339205 0 2411.71843037 0 1920
0.04350000 0.04349210 43765.68903391 0 -34.73410440 0 20156.17082311 0 -99.32118953 0 -4773.87713486 0 2005
0.04450000 0.04448520 43480.46594658 0 1411.25637674 0 18627.41493540 0 2746.12478455 0 -2010.50166824 0 2151
0.04550000 0.04548030 43335.86138445 0 1274.26957408 0 17737.86435947 0 4575.71573758 0 -1326.96276789 0 2274
0.04650000 0.04648670 39772.67653456 0 2241.40393001 0 13436.93050692 0 4975.72561630 0 -953.00164054 0 2311
0.04750000 0.04749250 39956.58784980 0 1611.75403455 0 13149.49295462 0 4169.04031932 0 61.67207418 0 2568
0.04850000 0.04851840 37787.96231082 0 855.82095284 0 8720.04262790 0 1350.94542345 0 -1293.98938458 0 2493
0.04950000 0.04949480 36845.48602226 0 1113.57692399 0 8178.40664242 0 -523.84940289 0 3537.51920096 0 2644
0.05050000 0.05050630 36477.22049879 0 -1227.88760541 0 9627.29785121 0 -1422.72730525 0 -2640.09620208 0 2829
0.05150000 0.05149060 38221.66527397 0 405.80956246 0 12462.56592288 0 -3407.75155408 0 -2138.59739407 0 2784
0.05250000 0.05249300 36320.87927235 0 1054.13293373 0 11042.66206046 0 -1278.65421471 0 -3069.51417552 0 3055
0.05350000 0.05348950 35816.31343036 0 2219.83504127 0 13188.02464499 0 19.83728787 0 -414.96305339 0 3009
0.05450000 0.05448610 35387.81445988 0 1120.05423400 0 11894.99855267 0 1000.45430301 0 -3009.70147685 0 3336
0.05550000 0.05550870 33923.72094911 0 453.43273874 0 13447.33849225 0 1078.10451696 0 -3811.60352952 0 3349
0.05650000 0.05647670 33383.28077472 0 1151.16746675 0 15257.99576984 0 450.23172964 0 249.78389728 0 3324
0.05750000 0.05747970 33160.17342962 0 137.80394023 0 13646.30816924 0 1524.82521240 0 669.41947175 0 3639
0.05850000 0.05849280 33344.30619135 0 -1008.86594818 0 15879.59608516 0 668.37645875 0 -2261.51127188 0 3846
0.05950000 0.05951020 34299.29420696 0 -234.26160512 0 15573.44630392 0 -474.42808106 0 -3628.82159141 0 3787
0.06050000 0.06049470 33984.95090536 0 457.93585324 0 13828.44791250 0 84.09153892 0 -3322.94861830 0 3930
0.06150000 0.06148310 32506.79554207 0 1172.43740272 0 13577.21686237 0 527.43240720 0 -3012.48063038 0 4083
0.06250000 0.06249100 32264.42235179 0 1078.27724523 0 12226.28251125 0 1839.56711769 0 -1854.75834735 0 4303
0.06350000 0.06350600 30456.09026241 0 1114.36305905 0 10871.08531507 0 3323.09255852 0 -4104.18971285 0 4470
0.06450000 0.06451750 29338.78196496 0 1068.99752980 0 7981.08674183 0 1752.84866972 0 -1519.16725442 0 4479
0.06550000 0.06550280 28846.61712677 0 507.08701035 0 8631.49724632 0 2208.23124486 0 -1752.70472949 0 4636
0.06650000 0.06648880 28288.23978617 0 338.45218166 0 6813.83118712 0 105.78476987 0 1035.81266509 0 4653
0.06750000 0.06749660 27610.17061427 0 183.38427258 0 7083.42015181 0 878.18704897 0 772.30019226 0 5220
0.06850000 0.06852730 28831.33731852 0 -590.35310745 0 8613.25005502 0 -301.18273632 0 1870.95715856 0 5029
0.06950000 0.06949320 28929.54883966 0 -138.97871389 0 9836.09975264 0 -537.31002817 0 4272.32296522 0 5040
0.07050000 0.07048030 28733.56869037 0 441.95405960 0 10319.31815238 0 517.49721014 0 5246.21143930 0 5475
0.07150000 0.07148790 29435.55408387 0 611.88324306 0 10947.89403233 0 -195.29587962 0 5891.10792603 0 5509
0.07250000 0.07249820 29646.14970193 0 -341.34427290 0 10096.32153053 0 3045.46508602 0 4883.01704060 0 5916
0.07350000 0.07351270 28783.72632180 0 72.93661455 0 9758.10629662 0 1215.44231232 0 4722.78942815 0 5721
0.07450000 0.07449140 28702.78762738 0 955.09541716 0 7995.04894342 0 1574.22992574 0 2621.17359897 0 6028
0.07550000 0.07549160 27725.32279239 0 372.10429848 0 7357.49340804 0 144.72414324 0 2726.57105892 0 6183
0.07650000 0.07648840 26966.75781906 0 1128.41383924 0 6719.21817155 0 -522.61373144 0 1312.65732422 0 6330
0.07750000 0.07749960 25652.02997010 0 1382.85586358 0 7244.16816352 0 -164.06749470 0 200.45004682 0 6583
0.07850000 0.07848650 24845.41110706 0 1279.29640955 0 7352.28941538 0 -1709.02440808 0 -302.11724054 0 6549
0.07950000 0.07947320 24103.78679070 0 1073.18729751 0 8449.80039605 0 -177.17712728 0 879.93094013 0 6828
0.08050000 0.08048110 23839.71184378 0 347.65328359 0 8248.12907180 0 -218.82124816 0 863.85060279 0 7147
0.08150000 0.08149960 23860.74926093 0 244.54558041 0 9219.11659678 0 42.98929762 0 2491.23986722 0 7386
0.08250000 0.08250610 23437.45428312 0 147.42468326 0 9538.55316779 0 181.51415691 0 1660.95944605 0 7227
0.08350000 0.08350160 23474.76801776 0 255.15176035 0 10180.54870543 0 1436.84451939 0 1598.38973849 0 7798
0.08450000 0.08449610 23134.62619933 0 171.37633631 0 9222.18363075 0 1064.40694393 0 1448.91335344 0 7371
0.08550000 0.08548940 22664.38456428 0 780.39849064 0 9733.03855323 0 1417.64510816 0 1698.49462718 0 8256
0.08650000 0.08650700 22260.90904789 0 61.79885230 0 8032.52876294 0 1037.80125462 0 1622.16201988 0 8037
0.08750000 0.08749060 21346.44574112 0 446.88124415 0 7163.28483072 0 1420.13638124 0 617.73607396 0 8155
0.08850000 0.08849210 21309.02128323 0 684.65166900 0 5860.91369625 0 430.25614843 0 -134.33387363 0 8718
0.08950000 0.08949900 20319.26616769 0 2.20882915 0 5812.10688845 0 315.24015991 0 398.27927435 0 8571
0.09050000 0.09049190 20197.47059469 0 198.50574658 0 4768.94995031 0 764.53959980 0 -1204.63572329 0 8932
0.09150000 0.09150830 19759.00653187 0 345.13211522 0 4767.76521156 0 479.59110612 0 -862.49645747 0 9285
0.09250000 0.09250820 19662.56658270 0 734.60889135 0 5390.86029073 0 -299.17643106 0 -883.83393463 0 9204
0.09350000 0.09350330 18980.62209712 0 765.39881220 0 5165.74885484 0 -50.59122367 0 -169.57708353 0 9349
0.09450000 0.09448040 18797.48584462 0 288.39863009 0 6556.08960999 0 -974.10106271 0 1245.10507051 0 9564
0.09550000 0.09549270 18329.90156752 0 139.96082910 0 6948.80282666 0 134.25083119 0 2137.99948853 0 10155
0.09650000 0.09649430 18907.21258357 0 -50.24720654 0 7185.54020361 0 -116.00917605 0 1775.38085072 0 9913
0.09750000 0.09749140 18768.14418385 0 28.71064898 0 7573.45910363 0 56.04212918 0 1966.64418964 0 10476
0.09850000 0.09850240 18618.11418255 0 224.27990429 0 6814.53981591 0 414.14813028 0 371.48867722 0 10575
0.09950000 0.09950330 18311.52150833 0 400.88348515 0 6500.28509291 0 377.35590214 0 269.24461538 0 10882
0.10050000 0.10051200 17811.93821251 0 640.93370168 0 6313.30674369 0 -137.37987019 0 -347.64885466 0 10875
0.10150000 0.10150300 17119.91791134 0 688.96212505 0 6056.38451860 0 202.94131990 0 -464.02895359 0 11118
0.10250000 0.10250800 16486.58093172 0 716.23879724 0 6035.57962027 0 223.66206857 0 -317.27746768 0 11575
0.10350000 0.10349800 16399.99535163 0 186.25532640 0 5825.61512473 0 756.30621906 0 -401.97410915 0 11364
0.10450000 0.10450100 16008.25649955 0 -284.55985507 0 5446.55408457 0 636.56013338 0 80.72920604 0 12093
0.10550000 0.10551000 16477.28017887 0 -304.97279311 0 5852.46551242 0 349.44921467 0 -521.02263836 0 12067
0.10650000 0.10649700 16575.49170001 0 123.60257642 0 5447.82740192 0 -454.27977159 0 -619.22973058 0 12054
0.10750000 0.10749900 16376.30057652 0 677.75803957 0 6395.92843149 0 -342.94090214 0 12.92162451 0 12807
0.10850000 0.10850100 15928.97865385 0 490.47852312 0 6175.20163623 0 -345.72891353 0 -311.82213324 0 12736
0.10950000 0.10950300 15682.61942663 0 247.66465431 0 6138.57438573 0 493.86776175 0 -180.59736842 0 12933
0.11050000 0.11050200 15213.04213108 0 7.63995949 0 5494.92907170 0 728.76934724 0 -201.61042646 0 13428
0.11150000 0.11150900 15718.82592879 0 -108.89963629 0 5948.34077302 0 963.18928660 0 -770.24516878 0 13453
0.11250000 0.11250000 15495.27569070 0 230.53687505 0 5462.22142418 0 318.94828149 0 -214.65694679 0 13668
0.11350000 0.11349100 15348.67811010 0 410.08237261 0 4999.85221208 0 199.22544769 0 132.62762838 0 13791
0.11450000 0.11448600 14865.81402476 0 179.72819092 0 4463.46450857 0 -322.15704123 0 176.19833377 0 14205
0.11550000 0.11549300 14978.97318441 0 78.85078613 0 5132.81976083 0 168.55732241 0 48.47862409 0 14776
0.11650000 0.11649800 14848.31975155 0 241.37225212 0 4847.33093771 0 108.08438101 0 -209.04438534 0 14553
0.11750000 0.11747300 14441.30109122 0 334.42960605 0 5027.84304922 0 -77.19613791 0 76.00741312 0 14568
0.11850000 0.11849100 14342.75740033 0 60.19757268 0 4389.54566808 0 353.63898238 0 -2.38918625 0 16015
0.11950000 0.11950300 14288.28156222 0 -200.01601169 0 4847.95098790 0 543.99549790 0 257.90101861 0 15270
0.12050000 0.12050700 14619.45479755 0 202.68444197 0 4646.30180830 0 112.50699971 0 -303.85670277 0 15999
0.12150000 0.12150000 14263.70100112 0 259.74456069 0 4816.50558541 0 -59.02844590 0 -73.26479826 0 15670
0.12250000 0.12250700 13972.72030489 0 331.62498618 0 4499.16168378 0 199.24537788 0 -33.63429038 0 16887
0.12350000 0.12352200 13801.65288644 0 308.63219646 0 4454.85023986 0 162.04790265 0 783.64046734 0 16407
0.12450000 0.12449800 13653.83735011 0 292.68251256 0 4617.73521027 0 400.08959946 0 -238.57095394 0 16306
0.12550000 0.12549900 13292.43666803 0 192.17016232 0 4166.46046763 0 297.65841533 0 216.91237936 0 17523
0.12650000 0.12650100 13260.10547956 0 94.18119491 0 3888.10222169 0 204.36411364 0 -167.50545155 0 17154
0.12750000 0.12750600 13070.54727867 0 -78.80151429 0 3656.98958575 0 115.24961457 0 -677.77796975 0 18007
0.12850000 0.12850300 13056.37470290 0 -29.83947249 0 3922.13854818 0 99.50056120 0 -598.93305195 0 17496
0.12950000 0.12949900 13177.94882941 0 159.47358713 0 3583.01538364 0 301.47393846 0 -564.20581239 0 18405
0.13050000 0.13049000 13085.16274743 0 -45.35113522 0 3274.02001492 0 689.72390100 0 -34.50767536 0 18100
0.13150000 0.13148800 13011.31034089 0 155.38568481 0 2932.20627545 0 445.70314878 0 -573.60400169 0 19059
0.13250000 0.13249300 13147.83210590 0 59.29041711 0 2749.96688126 0 527.61399333 0 -275.22920695 0 18957
0.13350000 0.13349100 12787.87082605 0 165.48364504 0 2845.13351307 0 16.09517425 0 -322.47592418 0 19468
0.13450000 0.13450700 12551.80886091 0 307.50614103 0 2838.62298608 0 -382.30633857 0 -120.67505373 0 19953
0.13550000 0.13551000 12380.85216571 0 286.68463420 0 3152.57875631 0 -269.99421177 0 -17.49781636 0 19956
0.13650000 0.13649900 12305.78180344 0 45.39608886 0 3011.14087908 0 79.69350078 0 -244.40053295 0 19723
0.13750000 0.13749600 12074.37021473 0 264.92197977 0 3135.23949565 0 67.99979709 0 -227.07234461 0 20946
0.13850000 0.13851100 11946.81703282 0 231.94970370 0 2904.41474015 0 -178.00533718 0 -502.84630994 0 20955
0.13950000 0.13949800 11704.66528904 0 261.86269643 0 3006.34656243 0 33.76361513 0 -475.66153805 0 20506
0.14050000 0.14048300 11526.06868971 0 289.44607201 0 3150.04319393 0 -64.03667987 0 -413.33320718 0 21447
0.14150000 0.14148400 11309.93690925 0 311.55307575 0 3032.03435601 0 8.67367173 0 -694.06535956 0 21771
0.14250000 0.14249400 11013.06573622 0 238.21221061 0 3194.39892715 0 -108.52959919 0 -374.33426470 0 22470
0.14350000 0.14350900 10949.95348475 0 145.74390436 0 3460.27866302 0 154.19651712 0 -302.69521589 0 22519
0.14450000 0.14449900 10808.91421121 0 152.49691526 0 3586.29279179 0 223.86469211 0 -211.43490027 0 22218
0.14550000 0.14550500 10708.55465905 0 91.84980619 0 3476.62141446 0 358.98691527 0 248.11751240 0 23559
0.14650000 0.14650700 10753.14291110 0 114.28410785 0 3341.36189447 0 192.42261133 0 131.63001191 0 23044
0.14750000 0.14750500 10626.16549008 0 137.50941639 0 3415.55754308 0 48.58093237 0 628.32564541 0 23649
0.14850000 0.14849900 10534.59736383 0 69.40432149 0 3191.38725480 0 -151.36310920 0 593.87632121 0 23640
0.14950000 0.14949500 10429.59850757 0 30.08461376 0 3256.03855942 0 245.44354595 0 501.04705716 0 24457
0.15050000 0.15050000 10518.49820354 0 94.48291576 0 2986.91463238 0 247.78755712 0 511.95772603 0 24591
0.15150000 0.15149900 10419.41196874 0 109.36987792 0 3079.85572691 0 345.07786083 0 -80.85653777 0 25020
0.15250000 0.15250500 10198.07619562 0 141.67150329 0 2920.17065837 0 18.61457104 0 279.72457082 0 25297
0.15350000 0.15350100 10143.14639219 0 162.08554856 0 2707.80346835 0 102.05594304 0 295.99535214 0 25452
0.15450000 0.15450400 10089.79993121 0 243.50921081 0 3004.10995282 0 -172.22890532 0 383.67930685 0 26061
0.15550000 0.15549900 9814.49764692 0 257.39722783 0 2906.78421766 0 126.30643814 0 566.71812289 0 26128
0.15650000 0.15649500 9708.93410210 0 128.01489786 0 2922.39619566 0 50.66817633 0 403.56188053 0 26331
0.15750000 0.15749700 9597.19220003 0 154.41907085 0 2870.00195462 0 -113.36510489 0 418.49844671 0 27345
0.15850000 0.15849900 9379.73174059 0 196.26027911 0 2867.22280109 0 116.14979458 0 -183.58911059 0 26980
0.15950000 0.15949700 9266.86046139 0 186.84658855 0 3008.36172555 0 -174.79436298 0 -82.96072238 0 27777
0.16050000 0.16050000 9178.89084071 0 176.39209945 0 3015.95734038 0 -27.07526660 0 -313.73985990 0 28224
0.16150000 0.16150500 9091.91772926 0 50.63108404 0 3151.53795778 0 -21.55427328 0 -241.23384806 0 28075
0.16250000 0.16249700 8917.80542149 0 64.82757603 0 2888.48166474 0 98.75550446 0 -307.03113829 0 28590
0.16350000 0.16349900 9039.10273987 0 68.67974855 0 3064.75307585 0 99.96404871 0 -280.11099496 0 29163
0.16450000 0.16449100 8867.33776496 0 88.09828110 0 2759.05725993 0 553.23313849 0 -197.36197543 0 28996
0.16550000 0.16550500 8814.30132908 0 122.10781256 0 2607.59892874 0 352.14200407 0 -146.34070266 0 30777
0.16650000 0.16650700 8661.20429381 0 97.09022681 0 2431.63754272 0 219.89858536 0 -179.65511358 0 29211
0.16750000 0.16749900 8654.51660962 0 101.66066105 0 2384.71303014 0 125.24128049 0 -181.60716444 0 30922
0.16850000 0.16850800 8538.82188759 0 -11.48620832 0 2111.61413849 0 120.29527299 0 -56.16713572 0 30867
0.16950000 0.16949900 8542.64183966 0 67.03794423 0 2089.79058627 0 148.32818497 0 102.37615468 0 30852
0.17050000 0.17049200 8566.13731292 0 55.82378293 0 2110.71728018 0 251.64847678 0 -14.95328539 0 31257
0.17150000 0.17149500 8525.61260408 0 20.43718643 0 1944.01235771 0 69.36877933 0 116.56389953 0 32608
0.17250000 0.17250900 8515.28212503 0 95.25343884 0 2020.20102479 0 1.19648649 0 -6.13950446 0 32361
0.17350000 0.17350400 8336.65230873 0 218.64851989 0 2081.45312568 0 -259.76781257 0 198.12596584 0 32508
0.17450000 0.17449800 8269.93047937 0 249.63663536 0 2288.64954001 0 -173.98608327 0 352.21286695 0 32791
0.17550000 0.17549800 8110.83224405 0 95.85333740 0 2195.56450526 0 72.06289740 0 312.52744033 0 33633
0.17650000 0.17650100 8106.37009715 0 -75.67413614 0 2357.04329042 0 114.40036726 0 -43.88593448 0 33984
0.17750000 0.17750300 8132.20183095 0 32.46527432 0 2369.58823444 0 125.31435783 0 -130.70879448 0 34069
0.17850000 0.17849800 8039.80328034 0 232.33834230 0 2368.81317170 0 -126.61203430 0 -122.38351345 0 34536
