### header ###
fiducial parameters:
Omega_m = 0.31
Omega_nu = 0
Omega_de = 0.69
Omega_k = 0
H_0 = 100
w_de = -1
zeff = 0
beta = 0
fgrowth = 0
b_1 = 2
gamma = 0.55
Lx = 3500 Ly = 3500 Lz = 3500
nx = 700 ny = 700 nz = 700
xoffset = -685.467585 yoffset = -31.7331281 zoffset = 572.489161
bins = 400 dk = 0.001
kx_ny = 0.628318531 ky_ny = 0.628318531 kz_ny = 0.628318531
############################
A(data) = 7.99501654 (not used)
A(ran) = 7.99074603 (used)
Ngal = 475042
weighted Ngal = 0
Nran = 23820508
weighted Nran = 0
SN(data) = 3487.55462
SN(ran) = 69.6022959
SN(data+ran) = 3557.15691
############################
13 columns: k_central k_mean P_0(k) sigma^{lin}_{P_0(k)} P^img_1(k) sigma^{lin}_{P_1(k)} P_2(k) sigma^{lin}_{P_2(k)} P^img_3(k) sigma^{lin}_{P_3(k)} P_4(k) sigma^{lin}_{P_4(k)} N_modes
### header ###
0.00050000 0 0 0 0 0 0 0 0 0 0 0 0
0.00150000 0.00179520 4964.44291731 0 -5296.35799840 0 -28493.96358130 0 35896.58778530 0 5578.18188201 0 3
0.00250000 0.00253879 20266.34045506 0 -18908.65198580 0 5975.46796883 0 -12378.96987049 0 23983.31989668 0 6
0.00350000 0.00331552 38278.24485379 0 -35129.27567537 0 -7111.33348267 0 -21721.79755247 0 -4535.86644056 0 7
0.00450000 0.00420575 65656.67170961 0 -33273.55403576 0 16450.37442956 0 -7973.32504213 0 11256.56830363 0 24
0.00550000 0.00557378 87107.30802727 0 2398.35413432 0 34624.48838689 0 -17471.02133134 0 -8906.89918154 0 45
0.00650000 0.00659388 87514.43741085 0 25699.41952032 0 53260.65045889 0 13307.82719953 0 -6735.22875323 0 40
0.00750000 0.00754703 79316.93100812 0 7674.70444177 0 55429.49744437 0 -12586.24379110 0 -2541.79610234 0 57
0.00850000 0.00846663 68520.63924720 0 4735.27901054 0 67163.39367093 0 8295.47433273 0 7769.76035034 0 75
0.00950000 0.00948925 96852.28254666 0 -12441.19633598 0 64980.37410969 0 36832.86357196 0 -20090.29049044 0 112
0.01050000 0.01054430 102057.16099741 0 -8313.19005244 0 63893.29325899 0 3718.52956709 0 -23722.45592395 0 105
0.01150000 0.01145670 96671.47148237 0 847.93745756 0 24440.38546519 0 33540.72923364 0 -16159.72590307 0 144
0.01250000 0.01249090 96959.68409740 0 14138.69445392 0 34848.48151797 0 12479.61730310 0 -19700.21248708 0 169
0.01350000 0.01339930 80917.32483740 0 8464.77017921 0 34319.44583813 0 1975.90065319 0 -31804.81014857 0 180
0.01450000 0.01448870 76562.24731649 0 3587.69897704 0 14548.14902572 0 -4900.78812193 0 -28082.84816078 0 267
0.01550000 0.01550050 72971.16020805 0 6824.34989570 0 19921.43753696 0 -5431.97183278 0 -15944.14773885 0 238
0.01650000 0.01653350 76808.71726695 0 -5458.71149722 0 19848.24946991 0 -13329.30750968 0 -36761.77924663 0 315
0.01750000 0.01747870 84040.82766874 0 -1118.76984433 0 26484.00445697 0 -9562.05971338 0 -9801.73125641 0 297
0.01850000 0.01844180 87692.70184043 0 -890.06876073 0 24143.53643680 0 -3654.90798869 0 -51378.35523972 0 388
0.01950000 0.01947590 80836.05397324 0 288.97881991 0 30741.97768923 0 -17327.30255520 0 -30484.21396745 0 399
0.02050000 0.02045430 89634.45544388 0 9086.68051962 0 38314.34063270 0 1124.85962298 0 -33284.95853033 0 462
0.02150000 0.02154770 73112.99668898 0 6445.76496550 0 30719.39014660 0 9561.58360342 0 -21368.14749776 0 571
0.02250000 0.02255340 74314.56537830 0 1961.29625675 0 43313.27384182 0 15647.07726397 0 -20595.85284166 0 510
0.02350000 0.02348930 66726.25828709 0 6952.81100824 0 25107.93592851 0 11141.74829526 0 -23414.64529399 0 555
0.02450000 0.02439640 65229.50141811 0 2307.88216822 0 34940.38181396 0 7201.63936389 0 -8320.13240010 0 592
0.02550000 0.02547300 59920.10022107 0 4117.14433289 0 26301.97543695 0 367.67204686 0 -10266.91283901 0 837
0.02650000 0.02652900 58714.65621806 0 2899.95259325 0 27998.25559917 0 -2042.72213347 0 -3980.44541068 0 723
0.02750000 0.02749970 58052.30974741 0 -156.82508703 0 25930.83110903 0 6901.98903733 0 -6632.87618261 0 826
0.02850000 0.02848090 57689.24821661 0 974.66242958 0 21337.25571152 0 1563.84408506 0 1802.54126350 0 831
0.02950000 0.02946900 56282.73079489 0 2461.01242047 0 25976.89198027 0 9588.23468925 0 -4306.37036404 0 996
0.03050000 0.03053250 54709.57488466 0 151.03093946 0 23235.38435518 0 4683.98092966 0 2067.87845546 0 1041
0.03150000 0.03150510 54839.67470128 0 282.65873690 0 19874.38015648 0 9149.79277109 0 7671.61526315 0 1036
0.03250000 0.03246190 57539.77183156 0 -1275.64254236 0 23425.49617231 0 -155.88726112 0 255.90357121 0 1059
0.03350000 0.03345080 56902.55953824 0 -1341.70003222 0 23583.83041722 0 49.30085493 0 6175.64452922 0 1302
0.03450000 0.03451200 58173.88387392 0 66.72470816 0 21290.53050078 0 -4950.04889505 0 -3225.53430454 0 1339
0.03550000 0.03553350 56471.73537955 0 3875.28046955 0 25454.61041858 0 -912.53561502 0 4549.57397868 0 1365
0.03650000 0.03647120 55020.04287258 0 5031.41941014 0 26976.39074165 0 -996.93994711 0 -3428.32393360 0 1308
0.03750000 0.03744890 49999.85079980 0 4401.75844235 0 23029.43911355 0 3799.50147849 0 -2419.46905775 0 1579
0.03850000 0.03847530 47838.20082546 0 861.06480587 0 20988.14530999 0 -1293.64614251 0 -4818.66468875 0 1662
0.03950000 0.03950240 46008.38842593 0 -7.29393826 0 21293.85219823 0 9966.57602831 0 -7619.63069812 0 1683
0.04050000 0.04050350 47167.21794145 0 -166.92194004 0 15656.59946331 0 3661.34100941 0 -4273.74022280 0 1822
0.04150000 0.04152450 45195.12616800 0 880.97284589 0 13457.30358458 0 5355.99353987 0 -6721.43263651 0 1887
0.04250000 0.04250150 44559.68544666 0 1972.33536460 0 14105.25603297 0 1838.30487267 0 -4222.94039653 0 1920
0.04350000 0.04349210 42220.87827521 0 1887.31098231 0 10305.13450429 0 2015.79423951 0 -1271.37969730 0 2005
0.04450000 0.04448520 42699.64560037 0 -85.41944283 0 12225.28600201 0 -631.43032529 0 -3992.10456871 0 2151
0.04550000 0.04548030 41636.92386428 0 1156.12786826 0 11502.59536110 0 -403.79993551 0 -6573.58388321 0 2274
0.04650000 0.04648670 40580.51335333 0 2429.84382610 0 13840.84891630 0 -3585.88311577 0 -3791.37439208 0 2311
0.04750000 0.04749250 38734.86752931 0 1488.05402168 0 10991.24218400 0 290.18459608 0 -6531.65298912 0 2568
0.04850000 0.04851840 38879.47209144 0 -1123.14341263 0 11254.46456191 0 -1310.36535299 0 -8016.34102405 0 2493
0.04950000 0.04949480 38499.35918042 0 592.03499359 0 12295.92743435 0 1517.55069499 0 -11431.73248226 0 2644
0.05050000 0.05050630 39922.04219637 0 527.70478639 0 10959.97393871 0 -830.51958339 0 -9460.55971177 0 2829
0.05150000 0.05149060 36984.11152899 0 1144.98910950 0 12412.96190769 0 423.74783590 0 -6025.40415376 0 2784
0.05250000 0.05249300 36940.04367621 0 2486.35697198 0 14049.00862289 0 -212.11141932 0 -5132.56509736 0 3055
0.05350000 0.05348950 35354.70820868 0 1485.86170136 0 16582.68871114 0 -13.88524894 0 -2317.80297126 0 3009
0.05450000 0.05448610 34425.96160289 0 1951.37545371 0 16314.84917378 0 3729.67939819 0 3034.08273610 0 3336
0.05550000 0.05550870 32998.73893376 0 -405.35559715 0 16050.22061061 0 4751.89857009 0 8163.20434044 0 3349
0.05650000 0.05647670 34870.95833735 0 -1522.92077253 0 14527.33305506 0 5324.86923481 0 7321.38655681 0 3324
0.05750000 0.05747970 34950.78979929 0 -753.21039704 0 12785.32419134 0 3272.51417875 0 7224.95767996 0 3639
0.05850000 0.05849280 33866.47702980 0 575.21613219 0 10542.00474913 0 1204.82395282 0 6566.99584994 0 3846
0.05950000 0.05951020 35300.45381706 0 159.74596632 0 9870.59004445 0 -535.72004233 0 3673.90809808 0 3787
0.06050000 0.06049470 31821.30791255 0 1085.33806677 0 10279.21419189 0 -1373.86513582 0 4543.61706793 0 3930
0.06150000 0.06148310 33151.09412327 0 1511.69343516 0 8349.77301364 0 -1217.93358540 0 -1429.52571269 0 4083
0.06250000 0.06249100 32148.27366444 0 -231.76368864 0 8359.95955247 0 -400.52584906 0 -146.30859292 0 4303
0.06350000 0.06350600 31605.17613209 0 460.59099674 0 8902.47025161 0 1263.04223671 0 -2962.86554287 0 4470
0.06450000 0.06451750 31343.64781987 0 971.66072232 0 7227.23857888 0 133.76364890 0 -2806.18107436 0 4479
0.06550000 0.06550280 30617.08186527 0 344.88188068 0 8051.39600443 0 1317.09732648 0 -2947.96219367 0 4636
0.06650000 0.06648880 29725.42754763 0 926.34391130 0 7527.33179843 0 133.87990831 0 -3328.48478071 0 4653
0.06750000 0.06749660 28973.83813894 0 1188.91302205 0 7993.90849397 0 -56.32070887 0 -1580.47471694 0 5220
0.06850000 0.06852730 27725.76568538 0 744.28499601 0 7936.40991118 0 139.81578165 0 -2384.69088549 0 5029
0.06950000 0.06949320 27843.13232846 0 181.45436636 0 7177.91137181 0 1194.20559332 0 -528.19196868 0 5040
0.07050000 0.07048030 27848.00415138 0 -254.88713179 0 7923.87603949 0 614.45645135 0 -2915.60886055 0 5475
0.07150000 0.07148790 28547.11074043 0 -267.30474407 0 8370.74399685 0 -430.74333072 0 -1196.61936013 0 5509
0.07250000 0.07249820 28783.94776830 0 262.72301606 0 7838.14302842 0 -811.81953401 0 -2371.48160198 0 5916
0.07350000 0.07351270 28194.56791820 0 -74.72291272 0 8557.60055049 0 -1103.18997607 0 -1131.56945182 0 5721
0.07450000 0.07449140 28111.63620531 0 778.94026546 0 11177.29045793 0 -546.44912508 0 -1772.78992671 0 6028
0.07550000 0.07549160 27816.22657915 0 1727.68127540 0 11434.38984022 0 -1337.47040414 0 -3438.25580896 0 6183
0.07650000 0.07648840 26156.26364234 0 1180.38733194 0 11101.66647942 0 129.66245979 0 292.57621824 0 6330
0.07750000 0.07749960 25538.31719421 0 410.23738516 0 10526.08274604 0 2176.94085492 0 -155.03469211 0 6583
0.07850000 0.07848650 25451.06727464 0 -135.63265733 0 10255.88480349 0 1372.10463618 0 -261.59474617 0 6549
0.07950000 0.07947320 25640.18258254 0 164.77944518 0 9165.69262953 0 2930.84437950 0 -1688.52953484 0 6828
0.08050000 0.08048110 24419.56949453 0 961.41882186 0 8209.55309214 0 142.44102986 0 -168.49088846 0 7147
0.08150000 0.08149960 23980.99470847 0 913.89197481 0 8339.35395598 0 -363.37487760 0 445.96888458 0 7386
0.08250000 0.08250610 23371.68467370 0 419.65550465 0 7572.77261949 0 287.96791665 0 277.52560711 0 7227
0.08350000 0.08350160 23387.73954468 0 -136.71553070 0 8247.52009394 0 649.33538176 0 225.11697205 0 7798
0.08450000 0.08449610 22975.84906143 0 621.32129273 0 7697.55772020 0 -263.20466219 0 31.95151845 0 7371
0.08550000 0.08548940 22701.03395943 0 520.64839378 0 8236.70243259 0 763.10241204 0 -778.42983128 0 8256
0.08650000 0.08650700 22117.07954849 0 247.04238966 0 8192.78959236 0 -148.59613523 0 -757.17982549 0 8037
0.08750000 0.08749060 21890.31833621 0 168.72340728 0 8056.57785244 0 448.69710542 0 -1229.57059879 0 8155
0.08850000 0.08849210 21654.47781757 0 272.92284169 0 7443.03818959 0 893.51003929 0 -1897.46430417 0 8718
0.08950000 0.08949900 20896.02356749 0 735.29758995 0 7043.09474482 0 1137.58172419 0 -486.82022700 0 8571
0.09050000 0.09049190 20487.89767468 0 454.21887380 0 5868.91898710 0 780.58007676 0 -592.86431072 0 8932
0.09150000 0.09150830 19826.43699001 0 524.67429109 0 6707.88011093 0 808.63956232 0 -1435.58227436 0 9285
0.09250000 0.09250820 19148.58926462 0 1076.00409695 0 5884.49774812 0 66.45819730 0 -1541.84337565 0 9204
0.09350000 0.09350330 18426.00934695 0 488.19098081 0 6570.69400643 0 -746.59911189 0 -925.26546687 0 9349
0.09450000 0.09448040 18399.10359764 0 364.26841421 0 7160.93749786 0 -1055.49482968 0 198.48028023 0 9564
0.09550000 0.09549270 18179.65011974 0 -93.46082945 0 7127.48800458 0 -357.95276013 0 -1034.04330758 0 10155
0.09650000 0.09649430 18405.63626928 0 196.25806464 0 7732.93379799 0 896.56821540 0 730.13677935 0 9913
0.09750000 0.09749140 18331.89458599 0 128.07579564 0 7111.06774688 0 701.00438552 0 -978.49013227 0 10476
0.09850000 0.09850240 17753.58706071 0 445.39423092 0 6935.10636086 0 474.37936283 0 16.32248908 0 10575
0.09950000 0.09950330 17925.09737215 0 382.33734108 0 6929.60341542 0 599.12903210 0 -1060.88926634 0 10882
0.10050000 0.10051200 16878.09833730 0 221.29701999 0 6443.71658541 0 1053.96020546 0 358.25835630 0 10875
0.10150000 0.10150300 16755.63842481 0 466.80478542 0 5902.00309366 0 851.16393302 0 767.76828971 0 11118
0.10250000 0.10250800 16566.19094716 0 82.50111018 0 5477.23549664 0 1005.14453980 0 275.66767101 0 11575
0.10350000 0.10349800 16305.76986743 0 319.72888039 0 4840.06749262 0 429.16220274 0 805.54484753 0 11364
0.10450000 0.10450100 16512.60089504 0 265.98049403 0 5007.14887414 0 -231.23775321 0 528.41895134 0 12093
0.10550000 0.10551000 15949.01956177 0 312.02364955 0 5546.92470905 0 -373.08752093 0 1247.07594432 0 12067
0.10650000 0.10649700 16043.13432273 0 377.18428111 0 5538.64261008 0 -296.98189629 0 1289.71546720 0 12054
0.10750000 0.10749900 15632.57251845 0 -15.07596675 0 5368.08451858 0 651.91191174 0 1427.63234514 0 12807
0.10850000 0.10850100 15629.36154426 0 67.61503380 0 5256.87408810 0 663.58878550 0 641.13853969 0 12736
0.10950000 0.10950300 15512.43779417 0 281.57364907 0 4876.78332172 0 481.38482275 0 1051.81438891 0 12933
0.11050000 0.11050200 15083.82810044 0 521.17211475 0 4679.27519161 0 273.57500162 0 327.29349271 0 13428
0.11150000 0.11150900 14742.46832628 0 323.95075785 0 4762.58336354 0 -374.77826493 0 326.69447994 0 13453
0.11250000 0.11250000 14580.59093743 0 -105.07060492 0 4892.69425249 0 48.92871410 0 -200.82318417 0 13668
0.11350000 0.11349100 14764.94514566 0 -25.69875518 0 4614.85640581 0 -458.73416786 0 123.50624719 0 13791
0.11450000 0.11448600 14878.10430531 0 175.28375974 0 4926.81915758 0 -221.19404737 0 206.55311226 0 14205
0.11550000 0.11549300 14550.25276743 0 121.48111898 0 4749.71732210 0 380.87911590 0 531.28446901 0 14776
0.11650000 0.11649800 14702.60795694 0 158.46489834 0 4726.52080161 0 895.15317229 0 812.50712538 0 14553
0.11750000 0.11747300 14456.91306921 0 -41.53384052 0 4184.63015266 0 1297.77611967 0 229.26909386 0 14568
0.11850000 0.11849100 14514.15698852 0 -46.37189285 0 4395.60222975 0 912.74377473 0 -22.00325605 0 16015
0.11950000 0.11950300 14268.01920780 0 457.50181811 0 3763.82644793 0 -169.96682936 0 654.37107508 0 15270
0.12050000 0.12050700 13879.26988342 0 457.38666593 0 4111.59709816 0 -332.58717121 0 639.33375075 0 15999
0.12150000 0.12150000 13916.03000182 0 140.84440062 0 4557.23602746 0 -912.20787421 0 1123.05483403 0 15670
0.12250000 0.12250700 13827.78357301 0 193.08805805 0 4851.67128903 0 -264.15356043 0 425.78182197 0 16887
0.12350000 0.12352200 13524.06970324 0 320.22049162 0 4904.48627842 0 -267.63912828 0 353.48064814 0 16407
0.12450000 0.12449800 13540.56746722 0 232.18886591 0 5103.32308751 0 -48.89737942 0 -111.89248569 0 16306
0.12550000 0.12549900 13371.49306724 0 69.40376787 0 5166.09209691 0 135.57175954 0 -46.71458130 0 17523
0.12650000 0.12650100 13138.86352280 0 159.72492890 0 5051.21672692 0 321.89130543 0 -470.05119106 0 17154
0.12750000 0.12750600 13121.81214258 0 114.36604305 0 4886.49375059 0 464.17178658 0 -397.41231132 0 18007
0.12850000 0.12850300 12979.31132216 0 39.68664457 0 4227.03715672 0 126.60981984 0 -545.29317437 0 17496
0.12950000 0.12949900 13032.34775804 0 130.07656474 0 4290.61444582 0 504.03990656 0 -277.95853501 0 18405
0.13050000 0.13049000 12728.85533476 0 9.06002943 0 3762.99602357 0 616.52143992 0 -72.04418517 0 18100
0.13150000 0.13148800 12982.52229636 0 -3.42635306 0 3593.54516454 0 759.57255488 0 134.30287112 0 19059
0.13250000 0.13249300 12668.51116450 0 57.93671468 0 3266.93372704 0 528.07238758 0 133.53223731 0 18957
0.13350000 0.13349100 12571.51759909 0 388.91762372 0 2880.12205950 0 656.73944536 0 397.57507450 0 19468
0.13450000 0.13450700 12245.10546344 0 380.89572439 0 3128.25285869 0 5.16016840 0 647.17406395 0 19953
0.13550000 0.13551000 11786.60049270 0 200.64491974 0 2901.17054898 0 244.14808395 0 948.54281533 0 19956
0.13650000 0.13649900 11785.27181372 0 64.90519302 0 2709.36466615 0 518.55350993 0 877.66222077 0 19723
0.13750000 0.13749600 11712.96953265 0 48.08622090 0 2628.62527357 0 26.14807012 0 295.28007996 0 20946
0.13850000 0.13851100 11600.03181950 0 324.14452353 0 2899.60935118 0 -109.24099606 0 351.91723587 0 20955
0.13950000 0.13949800 11209.17875340 0 452.28010973 0 2633.77390461 0 -260.48087029 0 617.13041779 0 20506
0.14050000 0.14048300 10917.75516418 0 337.28405139 0 2632.68881678 0 16.61003735 0 987.38785249 0 21447
0.14150000 0.14148400 10637.54783999 0 -32.70299714 0 2591.58834705 0 511.51815474 0 660.29033993 0 21771
0.14250000 0.14249400 10684.30626770 0 -184.26562963 0 2465.17561460 0 832.90788386 0 688.88794047 0 22470
0.14350000 0.14350900 10826.13167630 0 11.35367259 0 2134.55599551 0 552.90539768 0 615.62347438 0 22519
0.14450000 0.14449900 10824.40439363 0 73.59497499 0 1805.18754913 0 167.81990558 0 805.41197963 0 22218
0.14550000 0.14550500 10791.65245682 0 207.59391079 0 1876.92514163 0 -132.84907487 0 1232.98087483 0 23559
0.14650000 0.14650700 10556.05552933 0 268.17170711 0 2132.17544568 0 -440.44933066 0 1180.33197032 0 23044
0.14750000 0.14750500 10295.94447469 0 275.59570090 0 2161.11850275 0 -348.13271525 0 745.97795447 0 23649
0.14850000 0.14849900 10242.50943511 0 229.06093415 0 2414.91833225 0 1.04626826 0 988.78739435 0 23640
0.14950000 0.14949500 9994.14611711 0 193.38368912 0 2405.45149453 0 -105.15276157 0 798.51724297 0 24457
0.15050000 0.15050000 9991.88736284 0 142.60490027 0 2431.85898922 0 64.61487667 0 706.03897162 0 24591
0.15150000 0.15149900 9782.21074775 0 68.22844060 0 2635.92193563 0 -61.55005716 0 423.20529199 0 25020
0.15250000 0.15250500 9871.76371089 0 170.60902420 0 2461.56603671 0 -193.11795332 0 325.51970627 0 25297
0.15350000 0.15350100 9696.79883410 0 98.39100353 0 2564.82653797 0 -352.01024340 0 68.20286352 0 25452
0.15450000 0.15450400 9660.02764338 0 183.84155959 0 2709.95149936 0 -275.44401005 0 155.75992939 0 26061
0.15550000 0.15549900 9611.55300532 0 37.71942462 0 2790.98984471 0 14.14157326 0 -235.95899251 0 26128
0.15650000 0.15649500 9577.54989580 0 56.32059815 0 2585.35462818 0 122.12663552 0 -80.80073326 0 26331
0.15750000 0.15749700 9465.15472657 0 63.38773091 0 2564.58294682 0 270.36513465 0 224.18246784 0 27345
0.15850000 0.15849900 9375.86749923 0 103.50088143 0 2402.36231590 0 686.05121086 0 71.89648036 0 26980
0.15950000 0.15949700 9302.22546686 0 109.20899704 0 2363.53167276 0 587.03916063 0 431.84502704 0 27777
0.16050000 0.16050000 9149.08414230 0 144.01551445 0 2179.57606823 0 492.73395568 0 261.49177354 0 28224
0.16150000 0.16150500 9031.11959368 0 156.84280275 0 2226.62237638 0 -33.61203501 0 720.97553780 0 28075
0.16250000 0.16249700 8759.73691237 0 345.06346681 0 2363.99671041 0 -181.83968326 0 1061.34655335 0 28590
0.16350000 0.16349900 8775.42639664 0 166.27199457 0 2651.01351435 0 -265.65939661 0 1243.93140408 0 29163
0.16450000 0.16449100 8727.47215785 0 35.34263937 0 2680.08943933 0 -239.46116885 0 1395.86584524 0 28996
0.16550000 0.16550500 8834.53046652 0 -86.92649696 0 2875.65991260 0 89.16532104 0 1233.29089992 0 30777
0.16650000 0.16650700 8709.21389423 0 37.45346738 0 2683.44435375 0 70.75226631 0 1110.80884278 0 29211
0.16750000 0.16749900 8836.37954477 0 144.47723040 0 2790.91233844 0 -36.18468968 0 627.39003397 0 30922
0.16850000 0.16850800 8504.64162088 0 121.18770237 0 2630.47435182 0 135.45882183 0 759.09423045 0 30867
0.16950000 0.16949900 8545.49849946 0 114.33946947 0 2529.74941294 0 136.57380494 0 331.35260699 0 30852
0.17050000 0.17049200 8401.49184287 0 22.33907966 0 2399.93747677 0 214.47203897 0 333.06771010 0 31257
0.17150000 0.17149500 8289.76101312 0 113.95636703 0 2296.11228694 0 -8.89485249 0 244.16579967 0 32608
0.17250000 0.17250900 8297.07981983 0 210.23244580 0 2220.72082725 0 71.36168707 0 255.53154109 0 32361
0.17350000 0.17350400 8102.58336206 0 94.63848192 0 2259.59575969 0 147.51215463 0 520.51663312 0 32508
0.17450000 0.17449800 8057.70722957 0 88.97166608 0 2044.93659843 0 106.18293067 0 383.51654367 0 32791
0.17550000 0.17549800 7999.52216265 0 13.37725068 0 2000.39263569 0 107.07879247 0 151.52255068 0 33633
0.17650000 0.17650100 8032.84986035 0 29.46611370 0 1858.19076804 0 69.53818590 0 -203.54365437 0 33984
0.17750000 0.17750300 7877.06225016 0 198.96856976 0 1973.27651220 0 -127.69380044 0 69.45680431 0 34069
0.17850000 0.17849800 7849.65824623 0 93.81680470 0 1728.05773445 0 46.58270991 0 24.20819881 0 34536
