### header ###
fiducial parameters:
Omega_m = 0.31
Omega_nu = 0
Omega_de = 0.69
Omega_k = 0
H_0 = 100
w_de = -1
zeff = 0
beta = 0
fgrowth = 0
b_1 = 2
gamma = 0.55
Lx = 3500 Ly = 3500 Lz = 3500
nx = 700 ny = 700 nz = 700
xoffset = -685.467585 yoffset = -31.7331281 zoffset = 572.489161
bins = 400 dk = 0.001
kx_ny = 0.628318531 ky_ny = 0.628318531 kz_ny = 0.628318531
############################
A(data) = 8.05905859 (not used)
A(ran) = 8.04721474 (used)
Ngal = 478192
weighted Ngal = 0
Nran = 23820508
weighted Nran = 0
SN(data) = 3502.33245
SN(ran) = 70.0941588
SN(data+ran) = 3572.4266
############################
13 columns: k_central k_mean P_0(k) sigma^{lin}_{P_0(k)} P^img_1(k) sigma^{lin}_{P_1(k)} P_2(k) sigma^{lin}_{P_2(k)} P^img_3(k) sigma^{lin}_{P_3(k)} P_4(k) sigma^{lin}_{P_4(k)} N_modes
### header ###
0.00050000 0 0 0 0 0 0 0 0 0 0 0 0
0.00150000 0.00179520 118297.82559490 0 -99178.91016080 0 59612.95393060 0 107614.13937739 0 -377290.57542786 0 3
0.00250000 0.00253879 185480.26366452 0 -70055.26346706 0 58071.79703909 0 16781.87983463 0 284351.69536510 0 6
0.00350000 0.00331552 165926.53803479 0 28125.36588808 0 67009.48835595 0 -148961.52194766 0 77740.34267719 0 7
0.00450000 0.00420575 125708.53259602 0 86382.07075165 0 17666.55858764 0 -27151.33347379 0 83000.36130554 0 24
0.00550000 0.00557378 65194.84504142 0 12297.36683658 0 3104.28127545 0 25258.29809954 0 -7284.46035354 0 45
0.00650000 0.00659388 78005.74630309 0 -22501.51066620 0 20849.07691026 0 15122.91340705 0 -3443.02798096 0 40
0.00750000 0.00754703 79499.07075138 0 -9972.30042024 0 18244.09105018 0 32776.51737465 0 -34123.02279585 0 57
0.00850000 0.00846663 79727.60353564 0 12091.31087171 0 14532.53704772 0 15869.85243932 0 -208.55609582 0 75
0.00950000 0.00948925 62976.17259426 0 10898.63325922 0 -1693.89961238 0 1498.43986236 0 -7759.40772663 0 112
0.01050000 0.01054430 63228.95376987 0 7433.37205002 0 -14606.27873101 0 8616.28387202 0 3405.41529355 0 105
0.01150000 0.01145670 51782.38437236 0 -3041.80014650 0 -8368.90599093 0 -14015.34875544 0 -5040.21083605 0 144
0.01250000 0.01249090 59130.86490800 0 -1387.19621490 0 -8839.42443409 0 -17721.92021173 0 -4543.84958675 0 169
0.01350000 0.01339930 65090.43301838 0 -2814.04242498 0 3028.70158624 0 -29457.14511727 0 -16444.06320441 0 180
0.01450000 0.01448870 64833.22291285 0 -1417.66725281 0 -5964.30706541 0 -8953.46937973 0 -841.20769854 0 267
0.01550000 0.01550050 65118.55672342 0 -2729.42771872 0 12868.36662748 0 -443.44107282 0 5872.65036056 0 238
0.01650000 0.01653350 79092.38426080 0 -12299.35985505 0 -1907.18580536 0 11973.16916589 0 -19614.29124649 0 315
0.01750000 0.01747870 86244.33103090 0 -8564.62040442 0 25935.59220870 0 1412.44111549 0 -1738.14462236 0 297
0.01850000 0.01844180 93116.14798310 0 7217.60565628 0 17852.13075160 0 -12346.19578903 0 6469.84727198 0 388
0.01950000 0.01947590 84979.76081337 0 5795.73092005 0 17776.61749634 0 13966.74124949 0 37120.07967776 0 399
0.02050000 0.02045430 85349.79790881 0 4700.76657408 0 26058.82718393 0 -1424.83104696 0 33127.62079465 0 462
0.02150000 0.02154770 78799.41054609 0 5429.45841505 0 26382.13906864 0 11455.20581088 0 12503.42280146 0 571
0.02250000 0.02255340 70277.70647267 0 6813.38829413 0 28320.79242113 0 -2905.49982799 0 11217.15082727 0 510
0.02350000 0.02348930 62840.20444549 0 9321.55774600 0 24859.91585257 0 -5401.25720373 0 2758.35970347 0 555
0.02450000 0.02439640 60613.89209420 0 2370.08648906 0 25166.50852680 0 5486.53624949 0 15323.10103977 0 592
0.02550000 0.02547300 56293.24950347 0 -3336.12468483 0 19140.39574425 0 4514.38613041 0 1973.09935501 0 837
0.02650000 0.02652900 64788.37999733 0 -2344.62014197 0 15357.75741646 0 3862.79088716 0 -3889.09873093 0 723
0.02750000 0.02749970 62900.77006225 0 2422.97898471 0 19234.84267495 0 434.47027526 0 -3128.81754725 0 826
0.02850000 0.02848090 61965.71223131 0 5311.98104872 0 18273.54343420 0 -4576.83404239 0 3209.32442101 0 831
0.02950000 0.02946900 56470.18525407 0 644.84998297 0 21538.66129997 0 587.28496624 0 12273.78278472 0 996
0.03050000 0.03053250 58789.28368734 0 -753.28568885 0 22399.86672436 0 10150.48734355 0 5675.97265481 0 1041
0.03150000 0.03150510 59371.68797280 0 -722.29535892 0 21205.27359968 0 7393.96564599 0 9861.58824438 0 1036
0.03250000 0.03246190 61854.21392039 0 -3025.95564969 0 19397.82729628 0 3587.06785452 0 -749.60414085 0 1059
0.03350000 0.03345080 60266.22109490 0 788.55215063 0 19378.78289759 0 -1139.04327107 0 3345.43651001 0 1302
0.03450000 0.03451200 59588.26264625 0 6505.50015790 0 17588.94159066 0 -4276.22042356 0 2555.92438881 0 1339
0.03550000 0.03553350 55901.28920489 0 2435.95574940 0 21649.05237841 0 -302.14492135 0 4731.56978173 0 1365
0.03650000 0.03647120 53384.32832712 0 745.23500148 0 21457.16898930 0 4626.12803248 0 2064.23566059 0 1308
0.03750000 0.03744890 54617.23169567 0 1244.33000777 0 22120.29052269 0 5051.10600367 0 210.42178255 0 1579
0.03850000 0.03847530 50197.04890482 0 3549.16728667 0 21800.18961218 0 5436.61113688 0 2164.71700832 0 1662
0.03950000 0.03950240 49695.14042079 0 1066.91925443 0 20553.88873060 0 5008.86508448 0 5132.39901249 0 1683
0.04050000 0.04050350 45878.84222555 0 1771.37266914 0 22244.07911416 0 2921.18931225 0 5270.78092807 0 1822
0.04150000 0.04152450 48615.47802773 0 3198.98286963 0 19351.21280880 0 191.59550866 0 5901.77057483 0 1887
0.04250000 0.04250150 43855.59631144 0 2231.33918675 0 21008.85055740 0 -164.89570459 0 9385.07967348 0 1920
0.04350000 0.04349210 42170.38847404 0 3011.39554255 0 21718.25440853 0 207.17537691 0 7451.49744575 0 2005
0.04450000 0.04448520 41703.24708994 0 -154.43125041 0 23415.86324972 0 239.52981727 0 10808.71490936 0 2151
0.04550000 0.04548030 40625.90988509 0 -841.82221257 0 21577.85732983 0 2723.94691793 0 4767.39982484 0 2274
0.04650000 0.04648670 43834.44817104 0 -1379.56738310 0 23053.79822815 0 2939.20398473 0 5426.35816410 0 2311
0.04750000 0.04749250 43786.39428132 0 -907.78115874 0 21534.56453979 0 2424.82806296 0 7623.62780738 0 2568
0.04850000 0.04851840 43899.44271772 0 769.16118818 0 19175.93790692 0 -697.22097213 0 4428.02199682 0 2493
0.04950000 0.04949480 43919.81579539 0 627.29591921 0 20191.15936954 0 1344.82242782 0 1987.08370125 0 2644
0.05050000 0.05050630 41999.98539508 0 2736.31470476 0 18107.34783867 0 745.89823373 0 -171.63099978 0 2829
0.05150000 0.05149060 39090.84277223 0 2763.24259872 0 14827.83595063 0 28.25867668 0 1462.65410854 0 2784
0.05250000 0.05249300 37396.99852147 0 1054.69983676 0 14591.99543200 0 2870.55557086 0 -118.46280323 0 3055
0.05350000 0.05348950 38136.96198910 0 -783.88627295 0 13479.89112721 0 2290.79757103 0 1913.65204306 0 3009
0.05450000 0.05448610 37982.61378113 0 -1271.82259029 0 14705.92965438 0 1755.55031697 0 -3287.25144308 0 3336
0.05550000 0.05550870 38221.00093448 0 1191.65895861 0 14255.28603426 0 -402.99387026 0 -858.37533817 0 3349
0.05650000 0.05647670 38172.72559827 0 1242.38127860 0 15647.07726397 0 -2496.72066801 0 -341.96875202 0 3324
0.05750000 0.05747970 37571.38763737 0 366.71318353 0 17278.47360275 0 -999.24631237 0 3949.15502074 0 3639
0.05850000 0.05849280 37803.02067257 0 428.68166384 0 17336.93547779 0 1171.90593113 0 4270.21922351 0 3846
0.05950000 0.05951020 36538.22900854 0 1229.89169621 0 17509.22085197 0 4823.00504008 0 2658.19945316 0 3787
0.06050000 0.06049470 35984.50204436 0 1646.94188282 0 14624.88023671 0 4177.58815408 0 2974.86794297 0 3930
0.06150000 0.06148310 33359.91816935 0 1783.02075485 0 12120.20963948 0 4957.11303828 0 2870.43377529 0 4083
0.06250000 0.06249100 31545.60702456 0 1259.66517764 0 10863.68900209 0 1773.86394222 0 2919.53953586 0 4303
0.06350000 0.06350600 31011.81024506 0 312.95593930 0 9968.56904677 0 621.46634019 0 1203.72779266 0 4470
0.06450000 0.06451750 30637.01204995 0 -87.42840545 0 10567.31608367 0 -1852.11206171 0 1159.09525132 0 4479
0.06550000 0.06550280 31301.68370881 0 282.16934014 0 12213.10644471 0 -897.77399157 0 -454.45028539 0 4636
0.06650000 0.06648880 30408.92215868 0 659.47430959 0 12142.35428912 0 -2754.10793074 0 -633.55178273 0 4653
0.06750000 0.06749660 30269.07869622 0 1207.11592405 0 13212.49448284 0 -52.82008265 0 1294.53192850 0 5220
0.06850000 0.06852730 30579.65740739 0 -639.51201518 0 13074.97620859 0 1593.04180561 0 888.61717895 0 5029
0.06950000 0.06949320 30122.25966913 0 -45.07333059 0 13176.50942718 0 3752.68768916 0 3737.88399088 0 5040
0.07050000 0.07048030 30535.70027786 0 346.29692380 0 11710.42289794 0 2701.01613324 0 2043.80722130 0 5475
0.07150000 0.07148790 29704.94374671 0 867.46682408 0 11552.75299253 0 1362.54921986 0 6035.59069259 0 5509
0.07250000 0.07249820 28924.78773999 0 624.48465593 0 10828.44579219 0 243.11282158 0 5197.71465659 0 5916
0.07350000 0.07351270 28659.60556058 0 125.48597887 0 11424.42474788 0 147.84100268 0 5142.27552622 0 5721
0.07450000 0.07449140 28507.36109433 0 814.72269757 0 12547.71210073 0 -550.13288754 0 4790.27524792 0 6028
0.07550000 0.07549160 27668.30031957 0 1306.35717140 0 13877.05541846 0 -2366.45476651 0 5001.39126523 0 6183
0.07650000 0.07648840 27758.65049009 0 981.23828329 0 13788.03392692 0 -320.30796298 0 6959.91944078 0 6330
0.07750000 0.07749960 26634.58807450 0 -176.64122676 0 14069.49242381 0 730.28514851 0 5831.19557644 0 6583
0.07850000 0.07848650 26758.04449623 0 506.78362865 0 13810.17857655 0 2346.62423276 0 6429.16755060 0 6549
0.07950000 0.07947320 26261.67217461 0 26.83189690 0 12445.40381941 0 3135.77096724 0 4061.58340695 0 6828
0.08050000 0.08048110 26048.08702886 0 195.69669777 0 10862.54855263 0 2791.03413401 0 2279.53701669 0 7147
0.08150000 0.08149960 25806.82107106 0 263.24230810 0 9037.59690370 0 231.91205779 0 1581.30514130 0 7386
0.08250000 0.08250610 24187.71501283 0 969.54590828 0 7387.30010645 0 203.71638264 0 487.95292583 0 7227
0.08350000 0.08350160 23859.42058196 0 954.20630948 0 7579.61531623 0 231.52231196 0 -212.37161895 0 7798
0.08450000 0.08449610 22759.60655772 0 773.40742474 0 5378.79145668 0 314.63007481 0 -1613.73598069 0 7371
0.08550000 0.08548940 21764.09383328 0 982.14178499 0 5404.47925025 0 1338.85444475 0 -1552.20707168 0 8256
0.08650000 0.08650700 21295.18087721 0 324.94615985 0 5009.96124464 0 1583.55282324 0 -1638.92551966 0 8037
0.08750000 0.08749060 20830.36468132 0 -90.46310823 0 4669.46511182 0 2004.12400915 0 322.02528056 0 8155
0.08850000 0.08849210 20839.77615742 0 52.00593461 0 3617.73819427 0 1215.57518022 0 -266.97257433 0 8718
0.08950000 0.08949900 21077.05607828 0 55.10784641 0 4213.17460604 0 411.75540089 0 1577.42982761 0 8571
0.09050000 0.09049190 20886.61209140 0 439.51593368 0 4565.37418620 0 -450.79863267 0 2342.15101354 0 8932
0.09150000 0.09150830 20421.13155602 0 1251.72632075 0 5269.12007935 0 -401.47917623 0 3330.56637777 0 9285
0.09250000 0.09250820 19856.33226702 0 620.47315265 0 5310.89596089 0 6.82588895 0 4005.42457547 0 9204
0.09350000 0.09350330 19339.36542124 0 29.87379670 0 6324.26834526 0 -286.91936749 0 3535.90264154 0 9349
0.09450000 0.09448040 19454.07470636 0 15.93108240 0 6559.07913769 0 359.11646147 0 2299.00216372 0 9564
0.09550000 0.09549270 19196.08953809 0 -103.30324043 0 6763.30816897 0 59.09510130 0 2589.32959279 0 10155
0.09650000 0.09649430 19107.40021629 0 571.13487326 0 6210.52235240 0 -81.84363553 0 2051.32532985 0 9913
0.09750000 0.09749140 18822.06640571 0 547.96603358 0 6524.13488057 0 -444.03565667 0 1456.66398082 0 10476
0.09850000 0.09850240 18005.70389683 0 672.39239096 0 6142.59363964 0 -1.38437277 0 1809.57218976 0 10575
0.09950000 0.09950330 17943.14526161 0 324.61841903 0 5875.20806759 0 -180.21648045 0 951.38065218 0 10882
0.10050000 0.10051200 17325.42025998 0 -120.40599624 0 5510.06493973 0 915.98132250 0 566.31398303 0 10875
0.10150000 0.10150300 17709.18703819 0 -94.78662963 0 5026.99048021 0 280.68343415 0 -925.22117757 0 11118
0.10250000 0.10250800 17428.61432729 0 187.17654383 0 4732.62165258 0 233.10233271 0 -1110.65383023 0 11575
0.10350000 0.10349800 17327.96689469 0 427.39063077 0 4911.68328955 0 -497.72868141 0 -1384.94853297 0 11364
0.10450000 0.10450100 17089.13684835 0 303.68840343 0 5010.97989853 0 -731.92717428 0 -1883.91177859 0 12093
0.10550000 0.10551000 16940.32480278 0 401.05067726 0 5568.96970776 0 -876.81075899 0 -1120.00994471 0 12067
0.10650000 0.10649700 16537.29217939 0 244.96743599 0 6290.64169479 0 -652.16768245 0 -1881.04404647 0 12054
0.10750000 0.10749900 16382.94397141 0 698.60501274 0 6699.06654038 0 -275.50822953 0 -794.11931555 0 12807
0.10850000 0.10850100 15807.95814358 0 601.54722784 0 6754.26207960 0 588.65904175 0 -652.51313898 0 12736
0.10950000 0.10950300 15382.33797755 0 374.07960123 0 6509.43083321 0 1039.93489162 0 1367.54283835 0 12933
0.11050000 0.11050200 15381.78436131 0 -128.84421498 0 5949.16012506 0 1916.49763053 0 705.03249729 0 13428
0.11150000 0.11150900 15450.98639143 0 -305.07576573 0 5719.05507068 0 947.97923400 0 1605.74176217 0 13453
0.11250000 0.11250000 15256.22419787 0 240.72119942 0 5213.10518809 0 894.36150106 0 932.59756036 0 13668
0.11350000 0.11349100 14932.80158992 0 491.12514689 0 5032.42699170 0 -57.29618069 0 1391.25975811 0 13791
0.11450000 0.11448600 14757.41596479 0 364.88292824 0 4584.47394651 0 -339.67124462 0 918.47038112 0 14205
0.11550000 0.11549300 14602.29269408 0 -58.70900933 0 4979.95524438 0 -270.91653643 0 328.63656571 0 14776
0.11650000 0.11649800 14421.70307629 0 170.53705409 0 4477.85853083 0 282.62330546 0 -56.18861603 0 14553
0.11750000 0.11747300 14517.36796272 0 168.11221495 0 4640.65492264 0 -9.57095079 0 -73.53274852 0 14568
0.11850000 0.11849100 14253.07156930 0 131.61893958 0 4476.19768211 0 335.61545204 0 -63.04127786 0 16015
0.11950000 0.11950300 14256.94688299 0 148.07684319 0 4481.43489175 0 -105.16261594 0 283.21899654 0 15270
0.12050000 0.12050700 14103.48446100 0 18.28716239 0 4735.32329984 0 699.76207068 0 -25.16407262 0 15999
0.12150000 0.12150000 13935.62801675 0 232.44574385 0 4290.54801188 0 292.37470193 0 -36.56292029 0 15670
0.12250000 0.12250700 13938.94971419 0 29.51760001 0 3767.29208560 0 379.77963405 0 357.35042566 0 16887
0.12350000 0.12352200 13761.79251710 0 -16.25284415 0 3685.30152031 0 580.20421452 0 183.14732483 0 16407
0.12450000 0.12449800 13702.88774906 0 149.22615051 0 3450.62359578 0 444.92144265 0 38.01937390 0 16306
0.12550000 0.12549900 13504.13951857 0 299.15650088 0 2962.83232590 0 180.97936363 0 64.74165479 0 17523
0.12650000 0.12650100 13229.21369332 0 417.40007208 0 2884.61742338 0 7.10682705 0 -29.12076789 0 17154
0.12750000 0.12750600 12887.74319591 0 123.25490542 0 2942.34852498 0 -130.92691928 0 12.42624870 0 18007
0.12850000 0.12850300 12923.94969807 0 380.82818321 0 3294.45952654 0 -373.96002012 0 299.55510457 0 17496
0.12950000 0.12949900 12700.28873673 0 137.80726193 0 3556.00998341 0 -187.72573114 0 121.58630607 0 18405
0.13050000 0.13049000 12811.67632441 0 -21.11813440 0 3608.18277795 0 198.98960718 0 659.70461395 0 18100
0.13150000 0.13148800 12696.30269980 0 45.90475147 0 3673.01123976 0 -300.88489078 0 163.70100075 0 19059
0.13250000 0.13249300 12807.02594798 0 132.36742874 0 4186.36850766 0 -132.38071553 0 141.09131347 0 18957
0.13350000 0.13349100 12406.87212904 0 282.31992376 0 4289.34112847 0 -103.35572325 0 647.52173495 0 19468
0.13450000 0.13450700 12310.21073337 0 323.33513659 0 4167.94415916 0 559.78352586 0 963.41959096 0 19953
0.13550000 0.13551000 12143.90441459 0 -67.42879730 0 3818.15834581 0 864.89361579 0 1066.57711960 0 19956
0.13650000 0.13649900 12294.26658563 0 -34.54897513 0 3737.72897833 0 794.37619349 0 702.05293468 0 19723
0.13750000 0.13749600 12134.38221525 0 217.05299788 0 3501.40127740 0 310.52224231 0 1346.30611935 0 20946
0.13850000 0.13851100 11953.90332071 0 329.84898528 0 3375.86325861 0 -147.31174555 0 983.49925202 0 20955
0.13950000 0.13949800 11712.30519316 0 313.91037370 0 3031.35894420 0 -366.27804116 0 1506.97662479 0 20506
0.14050000 0.14048300 11475.80033504 0 36.97359282 0 3221.00572369 0 -136.65131121 0 922.07885178 0 21447
0.14150000 0.14148400 11611.76848381 0 -76.28898234 0 2999.31563617 0 46.28818607 0 569.54045849 0 21771
0.14250000 0.14249400 11365.63070309 0 81.63148979 0 2686.35637518 0 354.09959110 0 271.20995304 0 22470
0.14350000 0.14350900 11317.35536688 0 92.45014765 0 2787.95602771 0 536.99778861 0 -211.69177821 0 22519
0.14450000 0.14449900 11123.36823606 0 236.70305274 0 2524.74472212 0 552.13144217 0 13.46350409 0 22218
0.14550000 0.14550500 10749.01293394 0 520.09920647 0 2432.86657078 0 317.54873964 0 25.35075201 0 23559
0.14650000 0.14650700 10397.77664604 0 497.90030244 0 2338.18712125 0 74.61606478 0 347.58242071 0 23044
0.14750000 0.14750500 10226.17775601 0 132.15151841 0 2732.24008922 0 -120.25098369 0 496.22284523 0 23649
0.14850000 0.14849900 10098.63564642 0 131.83263545 0 2726.44926334 0 -354.10623449 0 1322.13523427 0 23640
0.14950000 0.14949500 10118.02328718 0 113.11376311 0 3132.93645209 0 -71.23324810 0 1123.76346282 0 24457
0.15050000 0.15050000 9964.25084010 0 79.26057287 0 2939.81296260 0 141.67039605 0 1674.97700927 0 24591
0.15150000 0.15149900 10058.80849405 0 153.77466155 0 3129.07221072 0 241.60477094 0 1362.01774827 0 25020
0.15250000 0.15250500 9829.57815333 0 94.05973150 0 2804.87454003 0 78.99007598 0 1016.18586211 0 25297
0.15350000 0.15350100 9706.18816555 0 156.34454814 0 2867.13422249 0 181.38793241 0 1022.27896246 0 25452
0.15450000 0.15450400 9621.55131463 0 127.33505711 0 2829.90906645 0 -248.92025595 0 717.56194006 0 26061
0.15550000 0.15549900 9551.30848598 0 33.56209882 0 2714.84546693 0 10.30953022 0 901.02039721 0 26128
0.15650000 0.15649500 9607.92128278 0 -58.11586489 0 2675.22868873 0 136.66349077 0 743.57636722 0 26331
0.15750000 0.15749700 9720.32752434 0 -1.50820565 0 2705.79937756 0 167.89851908 0 966.04483917 0 27345
0.15850000 0.15849900 9516.14278236 0 165.29541552 0 2604.43224384 0 304.76131170 0 727.68204494 0 26980
0.15950000 0.15949700 9533.82528510 0 157.06646371 0 2777.68091028 0 113.22780806 0 1062.84574613 0 27777
0.16050000 0.16050000 9360.12265334 0 142.47203237 0 2482.14948854 0 220.57510441 0 1042.16928677 0 28224
0.16150000 0.16150500 9137.53570751 0 183.31008800 0 2588.06734776 0 -41.48866543 0 987.56943862 0 28075
0.16250000 0.16249700 9080.80111514 0 157.96110756 0 2363.54274509 0 163.43969388 0 920.42353922 0 28590
0.16350000 0.16349900 8915.42487165 0 122.97145390 0 2558.20528772 0 63.27014282 0 699.35350189 0 29163
0.16450000 0.16449100 8726.80781836 0 308.64548325 0 2160.96349021 0 117.33121164 0 910.57692076 0 28996
0.16550000 0.16550500 8611.16845796 0 161.04142832 0 2404.45498529 0 -16.27388157 0 591.00083845 0 30777
0.16650000 0.16650700 8512.18187408 0 102.68839424 0 2225.27155275 0 45.15814460 0 932.88433357 0 29211
0.16750000 0.16749900 8485.07682292 0 119.58775144 0 2526.08447343 0 125.13387894 0 666.50412862 0 30922
0.16850000 0.16850800 8359.47237018 0 66.86410873 0 2427.66257811 0 318.95271042 0 1307.25402971 0 30867
0.16950000 0.16949900 8383.49931504 0 7.96314958 0 2300.16475783 0 323.12144072 0 1186.60997849 0 30852
0.17050000 0.17049200 8432.67150956 0 -40.09454902 0 2299.41183974 0 -2.48809533 0 883.68999440 0 31257
0.17150000 0.17149500 8414.86721125 0 20.21884018 0 2172.79980544 0 -78.37124375 0 643.92655108 0 32608
0.17250000 0.17250900 8270.19621517 0 222.96672657 0 2103.84136647 0 -516.03787773 0 505.68082509 0 32361
0.17350000 0.17350400 8310.41089891 0 125.74950020 0 2265.92912949 0 -413.04532673 0 604.03628646 0 32508
0.17450000 0.17449800 8164.59945337 0 -43.88150555 0 2315.26740888 0 -151.36643090 0 201.03577280 0 32791
0.17550000 0.17549800 8143.75026574 0 89.58274769 0 2496.69852336 0 -2.61113100 0 56.03515361 0 33633
0.17650000 0.17650100 8144.83535357 0 255.04657327 0 2489.22470410 0 207.65148688 0 -202.89370891 0 33984
0.17750000 0.17750300 7943.03116143 0 230.66309955 0 2594.32321128 0 105.35317065 0 541.94379611 0 34069
0.17850000 0.17849800 7733.03344892 0 127.32066309 0 2567.57247452 0 306.99127792 0 521.88406523 0 34536
