### header ###
fiducial parameters:
Omega_m = 0.31
Omega_nu = 0
Omega_de = 0.69
Omega_k = 0
H_0 = 100
w_de = -1
zeff = 0
beta = 0
fgrowth = 0
b_1 = 2
gamma = 0.55
Lx = 3500 Ly = 3500 Lz = 3500
nx = 700 ny = 700 nz = 700
xoffset = -685.467585 yoffset = -31.7331281 zoffset = 572.489161
bins = 400 dk = 0.001
kx_ny = 0.628318531 ky_ny = 0.628318531 kz_ny = 0.628318531
############################
A(data) = 8.06134179 (not used)
A(ran) = 8.05983335 (used)
Ngal = 479103
weighted Ngal = 0
Nran = 23820508
weighted Nran = 0
SN(data) = 3488.11906
SN(ran) = 70.2040715
SN(data+ran) = 3558.32313
############################
13 columns: k_central k_mean P_0(k) sigma^{lin}_{P_0(k)} P^img_1(k) sigma^{lin}_{P_1(k)} P_2(k) sigma^{lin}_{P_2(k)} P^img_3(k) sigma^{lin}_{P_3(k)} P_4(k) sigma^{lin}_{P_4(k)} N_modes
### header ###
0.00050000 0 0 0 0 0 0 0 0 0 0 0 0
0.00150000 0.00179520 18515.69517798 0 -22042.56280246 0 -4736.76270207 0 31562.21551179 0 -38063.44175231 0 3
0.00250000 0.00253879 22178.19878149 0 -7934.49439899 0 -4051.33043417 0 -4631.59776094 0 4844.29712071 0 6
0.00350000 0.00331552 24084.63166877 0 -4680.38242409 0 -3366.57357808 0 -34062.67862559 0 -767.19806499 0 7
0.00450000 0.00420575 22686.63993717 0 -10348.61552385 0 -24918.48845086 0 6427.15238748 0 12235.36181760 0 24
0.00550000 0.00557378 45941.40086078 0 -25972.13088060 0 -12583.91860289 0 -14676.58799361 0 5249.00166515 0 45
0.00650000 0.00659388 74649.28175757 0 -26800.23005379 0 -48613.37428601 0 21729.21601010 0 47111.52414761 0 40
0.00750000 0.00754703 96011.89309292 0 -24368.52607712 0 1548.09923917 0 -25372.78593817 0 25178.68808410 0 57
0.00850000 0.00846663 113194.59108599 0 -4695.95011279 0 -13225.78127262 0 13633.57499570 0 36384.65586331 0 75
0.00950000 0.00948925 128403.53645688 0 6725.85049411 0 27612.49580248 0 -14897.81304349 0 16265.35588184 0 112
0.01050000 0.01054430 100041.99788041 0 21399.03928400 0 30256.34552268 0 -11760.35908288 0 38441.45092162 0 105
0.01150000 0.01145670 97615.60861965 0 17196.42767584 0 55407.02062499 0 21701.86736779 0 33150.42978378 0 144
0.01250000 0.01249090 78252.32697680 0 3615.71195883 0 38591.70236941 0 9934.02339334 0 10832.22145495 0 169
0.01350000 0.01339930 90682.67243446 0 734.83919570 0 50845.66569270 0 22165.02271496 0 1815.38516029 0 180
0.01450000 0.01448870 83550.54512578 0 -7173.77032233 0 37867.01871003 0 -4528.40369363 0 -15320.44368182 0 267
0.01550000 0.01550050 91019.16038570 0 8705.58217169 0 36898.63318139 0 -3795.44900761 0 7109.89408045 0 238
0.01650000 0.01653350 83214.27862103 0 6716.49437964 0 45425.98414047 0 -3580.91164192 0 -13179.05606189 0 315
0.01750000 0.01747870 72039.75624431 0 4933.97187941 0 34985.99979221 0 17847.48037518 0 -1330.56127346 0 297
0.01850000 0.01844180 76692.67930285 0 2389.58485306 0 29372.88472540 0 26122.49305164 0 1373.56618305 0 388
0.01950000 0.01947590 77939.97669367 0 -4909.41346296 0 29739.37867690 0 19515.19393936 0 10034.49366874 0 399
0.02050000 0.02045430 80756.99757403 0 -2582.97407834 0 28085.61624199 0 7656.50153977 0 11434.50056346 0 462
0.02150000 0.02154770 82508.30719060 0 1849.22218494 0 17876.93275919 0 1110.45452839 0 9903.53021079 0 571
0.02250000 0.02255340 78762.09681146 0 4452.69113652 0 19440.56647008 0 -1325.58979961 0 15750.82494752 0 510
0.02350000 0.02348930 77602.04934021 0 179.29415579 0 7974.58728716 0 -6183.79376029 0 20955.92484476 0 555
0.02450000 0.02439640 75966.22407150 0 -812.70531999 0 19255.32647587 0 3304.26960633 0 7650.84358179 0 592
0.02550000 0.02547300 77793.15766658 0 -59.38929297 0 14958.15721375 0 -1344.05843741 0 -3399.42516582 0 837
0.02650000 0.02652900 75692.40547873 0 1953.73385890 0 12474.30258718 0 3241.93241760 0 -7514.98615626 0 723
0.02750000 0.02749970 75061.06151757 0 6957.29529980 0 18471.07370896 0 -5101.65116647 0 -10417.26393773 0 826
0.02850000 0.02848090 65149.78067941 0 8536.78457983 0 18667.93964424 0 -3705.20956034 0 -8370.42289943 0 831
0.02950000 0.02946900 62820.49570731 0 6785.46389094 0 24605.80599798 0 -1167.49914585 0 -1786.37566927 0 996
0.03050000 0.03053250 57759.44675596 0 1662.04453388 0 23441.10815031 0 8943.39356414 0 4167.34625362 0 1041
0.03150000 0.03150510 56296.57120092 0 -325.87734236 0 27542.62943288 0 10523.94578735 0 8015.07877902 0 1036
0.03250000 0.03246190 57589.15440025 0 -124.91132521 0 25010.27802361 0 7987.07686955 0 2339.30542606 0 1059
0.03350000 0.03345080 55326.08193056 0 3311.65484698 0 27671.95418676 0 4608.44552974 0 13919.35169926 0 1302
0.03450000 0.03451200 52504.85356677 0 3673.62021763 0 26159.91750953 0 1118.71448270 0 14281.52744408 0 1339
0.03550000 0.03553350 51428.18070141 0 286.58609051 0 29864.71739385 0 2996.69149519 0 20819.51380300 0 1365
0.03650000 0.03647120 50327.48089119 0 1719.11129599 0 29932.70146823 0 1456.91864429 0 14042.14378150 0 1308
0.03750000 0.03744890 51310.70333508 0 245.26085259 0 28017.52144435 0 1569.46882607 0 15315.35041240 0 1579
0.03850000 0.03847530 49016.62835591 0 2515.57683717 0 27153.10504576 0 2621.18467129 0 16317.61725498 0 1662
0.03950000 0.03950240 48001.96050953 0 3133.18004323 0 27582.71124872 0 3205.06157595 0 17884.68338657 0 1683
0.04050000 0.04050350 45441.37467197 0 213.01824272 0 24175.64617878 0 5419.39367179 0 14587.89867181 0 1822
0.04150000 0.04152450 45071.44829977 0 810.75216189 0 21613.28876925 0 5518.02594127 0 9411.05534751 0 1887
0.04250000 0.04250150 44818.66712416 0 49.81903974 0 21749.36764127 0 4891.05554841 0 6527.50086731 0 1920
0.04350000 0.04349210 43278.83891164 0 -194.93270736 0 15382.67014730 0 2095.72535237 0 4523.68688326 0 2005
0.04450000 0.04448520 43448.68837435 0 1457.72692400 0 12134.93583149 0 -2287.33193336 0 212.00955393 0 2151
0.04550000 0.04548030 41838.32945273 0 1446.78746708 0 13668.78498862 0 1193.36409663 0 -1031.25418896 0 2274
0.04650000 0.04648670 41410.71626823 0 877.00341745 0 13699.45532837 0 -1450.02058593 0 -1040.92254299 0 2311
0.04750000 0.04749250 38471.12475213 0 2377.53816366 0 13117.38321265 0 2544.94064259 0 -1284.38967896 0 2568
0.04850000 0.04851840 39728.49795854 0 1223.38116921 0 15030.23804832 0 -51.02736254 0 136.29921129 0 2493
0.04950000 0.04949480 38001.65817982 0 11.11794280 0 17106.74184481 0 -1131.11548650 0 2707.79239602 0 2644
0.05050000 0.05050630 38666.66200843 0 80.24844570 0 17826.33223477 0 521.12671822 0 1768.87032373 0 2829
0.05150000 0.05149060 37616.78416912 0 1328.42431477 0 19195.31447535 0 -1246.09050742 0 2958.90165059 0 2784
0.05250000 0.05249300 37427.00452173 0 830.56055099 0 19208.49054188 0 1273.58308994 0 288.70644072 0 3055
0.05350000 0.05348950 36550.96218208 0 1134.86900461 0 19537.89220524 0 1462.56552994 0 1802.56340815 0 3009
0.05450000 0.05448610 35548.36316975 0 910.73082608 0 16942.64999100 0 4137.98244820 0 -1937.15858865 0 3336
0.05550000 0.05550870 35236.78794936 0 -1215.90734996 0 13434.05170246 0 1870.55855486 0 -979.58629243 0 3349
0.05650000 0.05647670 36390.96708845 0 -1204.97896536 0 12642.26975468 0 3899.17454651 0 -5381.55953788 0 3324
0.05750000 0.05747970 36323.64735355 0 -173.52436733 0 11937.40555673 0 -988.30242652 0 -3648.99536723 0 3639
0.05850000 0.05849280 36851.24363116 0 1091.60721708 0 10730.93182751 0 -867.21880400 0 -4519.56797842 0 3846
0.05950000 0.05951020 35354.04386919 0 1373.00149449 0 11009.75511110 0 1364.09934533 0 -611.83341760 0 3787
0.06050000 0.06049470 35023.75641985 0 -155.07455248 0 10689.47704339 0 67.54660683 0 -3737.03142187 0 3930
0.06150000 0.06148310 36043.96042864 0 -497.86929994 0 13004.33477625 0 4036.64853146 0 -7.97252783 0 4083
0.06250000 0.06249100 35127.94699639 0 652.24075979 0 12422.48410703 0 1898.28365621 0 -1535.56536747 0 4303
0.06350000 0.06350600 34394.84837015 0 1682.76085361 0 10943.76405518 0 655.76397355 0 -930.67429754 0 4470
0.06450000 0.06451750 33422.80897432 0 1095.93538885 0 9682.32730556 0 -689.03630963 0 1986.40828944 0 4479
0.06550000 0.06550280 31918.30147796 0 933.37594479 0 9657.34814077 0 808.13134261 0 2218.60601321 0 4636
0.06650000 0.06648880 31554.46488442 0 865.84362126 0 11313.03716020 0 -104.06479493 0 376.60298406 0 4653
0.06750000 0.06749660 30630.81154805 0 766.37871295 0 9191.80117145 0 1458.39126349 0 1875.67396893 0 5220
0.06850000 0.06852730 29933.03363798 0 1162.59410596 0 8757.99855738 0 1824.32052642 0 -275.40747138 0 5029
0.06950000 0.06949320 29011.04115033 0 -77.76038359 0 7371.97600890 0 1824.77449174 0 1476.67167176 0 5040
0.07050000 0.07048030 29394.58648205 0 -180.24748296 0 8138.29160960 0 618.75140614 0 290.24438663 0 5475
0.07150000 0.07148790 29610.71826251 0 77.47095301 0 7622.78631070 0 -1322.35668077 0 379.26144925 0 5509
0.07250000 0.07249820 29099.95191862 0 813.33533527 0 9023.22502608 0 -1947.54442933 0 1703.59896892 0 5916
0.07350000 0.07351270 29067.62073015 0 1710.48595496 0 10345.12774153 0 -1945.47390459 0 2821.20621914 0 5721
0.07450000 0.07449140 27709.60009114 0 456.54074032 0 10884.57140670 0 -898.44386722 0 1346.29504702 0 6028
0.07550000 0.07549160 27305.34951202 0 396.73689951 0 11879.71874442 0 108.47578769 0 308.52036598 0 6183
0.07650000 0.07648840 27183.99683200 0 545.18577282 0 11005.72478486 0 819.24242056 0 -738.99906814 0 6330
0.07750000 0.07749960 26187.37687508 0 691.88521880 0 10671.89419158 0 655.83040750 0 -2054.50308707 0 6583
0.07850000 0.07848650 26123.04666788 0 364.08904255 0 9798.66422243 0 641.06878405 0 -1163.67919379 0 6549
0.07950000 0.07947320 25314.98840262 0 -126.77369024 0 9214.82053475 0 2017.62117310 0 -2320.28317202 0 6828
0.08050000 0.08048110 25234.38187794 0 307.49285424 0 8399.70919857 0 1848.91215984 0 -362.80576010 0 7147
0.08150000 0.08149960 24565.05984265 0 589.31452338 0 7113.01647605 0 2772.37726669 0 -696.28093176 0 7386
0.08250000 0.08250610 24172.10303483 0 595.57703030 0 6534.84181867 0 2027.64162706 0 948.34240625 0 7227
0.08350000 0.08350160 24206.53796502 0 -40.85710003 0 6690.21975285 0 1195.97716529 0 2329.07459793 0 7798
0.08450000 0.08449610 23923.41861941 0 -145.92438325 0 6367.45041206 0 2.67282599 0 2874.74090964 0 7371
0.08550000 0.08548940 24150.95489443 0 651.51884421 0 7677.60539087 0 -1268.40124192 0 2826.50986273 0 8256
0.08650000 0.08650700 23344.55747789 0 1395.20150575 0 8847.44079726 0 -2413.53429164 0 2514.42531539 0 8037
0.08750000 0.08749060 22761.71029944 0 1087.93784864 0 9237.04269066 0 -982.10856802 0 2953.40977748 0 8155
0.08850000 0.08849210 21152.23716380 0 960.04363912 0 9106.38925780 0 -595.26479074 0 2182.88669335 0 8718
0.08950000 0.08949900 21299.27763739 0 389.11914003 0 9659.54046109 0 1235.73788371 0 1163.85635099 0 8571
0.09050000 0.09049190 20606.70371998 0 264.45915660 0 9279.17288659 0 1132.69882895 0 -624.35068080 0 8932
0.09150000 0.09150830 19987.53931612 0 494.99160272 0 7976.91247537 0 643.25667543 0 -672.79542358 0 9285
0.09250000 0.09250820 20008.46601003 0 361.12165950 0 7947.00612604 0 85.63358159 0 -352.53507160 0 9204
0.09350000 0.09350330 19351.32353204 0 46.51273282 0 8110.90975033 0 18.60239148 0 160.77126360 0 9349
0.09450000 0.09448040 19742.73021438 0 -116.38452787 0 7897.51283410 0 826.70295303 0 -387.00875492 0 9564
0.09550000 0.09549270 19602.88675192 0 71.97299013 0 8128.17150472 0 156.54052829 0 -234.26824851 0 10155
0.09650000 0.09649430 19799.75268720 0 280.10988773 0 7829.58412133 0 821.52331948 0 73.06339267 0 9913
0.09750000 0.09749140 18894.81157977 0 742.82677083 0 7984.09841418 0 364.79545687 0 516.83287065 0 10476
0.09850000 0.09850240 18514.03432926 0 950.86136015 0 7739.42218034 0 252.56637251 0 820.76375799 0 10575
0.09950000 0.09950330 17692.13565797 0 485.60005680 0 7302.85148506 0 979.51764401 0 1250.61908827 0 10882
0.10050000 0.10051200 17186.01969051 0 265.74465351 0 7325.99264393 0 302.13495626 0 1182.31391646 0 10875
0.10150000 0.10150300 17074.29993309 0 203.89132537 0 7084.47202266 0 209.02113346 0 818.97225584 0 11118
0.10250000 0.10250800 16797.49181262 0 146.77584503 0 6634.64775458 0 233.70577441 0 -279.19088477 0 11575
0.10350000 0.10349800 16656.09822469 0 275.38864842 0 5789.81829859 0 348.22018662 0 -786.29450360 0 11364
0.10450000 0.10450100 16174.56281833 0 267.64909338 0 5329.46424961 0 433.93105304 0 -1292.12923401 0 12093
0.10550000 0.10551000 16265.24515859 0 130.89370231 0 4779.33579099 0 809.17103391 0 -2047.77111358 0 12067
0.10650000 0.10649700 15929.53227009 0 234.56720128 0 4122.94623110 0 701.50928353 0 -2374.55970828 0 12054
0.10750000 0.10749900 15553.40539600 0 289.29548840 0 4055.00644601 0 182.28589795 0 -2002.27493090 0 12807
0.10850000 0.10850100 15305.05315032 0 445.75075978 0 4261.69353340 0 -121.16002156 0 -1086.11866567 0 12736
0.10950000 0.10950300 15106.74781282 0 242.85040748 0 3954.86834035 0 704.31943957 0 -464.27918813 0 12933
0.11050000 0.11050200 14830.38258534 0 230.98862590 0 4190.31025529 0 345.39120763 0 356.65951259 0 13428
0.11150000 0.11150900 15136.42164333 0 49.32964298 0 3849.61482062 0 129.37568658 0 994.02128229 0 13453
0.11250000 0.11250000 15150.92638884 0 -244.83013916 0 4716.83251739 0 -276.37408533 0 599.64832413 0 13668
0.11350000 0.11349100 15114.38771694 0 226.84093302 0 4381.39643701 0 -137.40090760 0 1055.10397662 0 13791
0.11450000 0.11448600 15269.73243415 0 271.78017777 0 4840.92006164 0 -59.88577601 0 511.71967105 0 14205
0.11550000 0.11549300 14640.93510770 0 214.61265749 0 4772.17199684 0 -124.30013288 0 337.93621132 0 14776
0.11650000 0.11649800 14498.76645702 0 447.87332445 0 4088.67738578 0 460.24664743 0 -204.63095667 0 14553
0.11750000 0.11747300 14248.97480912 0 229.12404640 0 4787.10856302 0 34.49693520 0 -249.42404672 0 14568
0.11850000 0.11849100 13887.46340379 0 159.87219082 0 4370.93309006 0 -22.04743463 0 -308.67759299 0 16015
0.11950000 0.11950300 14114.00316958 0 -58.16569035 0 4847.14270818 0 147.22427418 0 87.23718640 0 15270
0.12050000 0.12050700 13985.78564818 0 103.10526726 0 4578.10735974 0 228.53499872 0 -163.02669616 0 15999
0.12150000 0.12150000 13944.15370686 0 193.93619813 0 4845.75866758 0 -244.31527605 0 -495.92721416 0 15670
0.12250000 0.12250700 13858.56463601 0 287.75311355 0 5022.36224844 0 149.03349206 0 -572.28307334 0 16887
0.12350000 0.12352200 13435.60182794 0 263.98526109 0 4921.40479074 0 35.80479821 0 -452.65324707 0 16407
0.12450000 0.12449800 13348.57335486 0 120.87657005 0 4705.16228703 0 326.78195130 0 -473.14147692 0 16306
0.12550000 0.12549900 13395.07711910 0 -147.98162120 0 4673.83868012 0 420.05632281 0 -311.41356445 0 17523
0.12650000 0.12650100 13519.97294306 0 68.21670393 0 4182.43783235 0 266.67583602 0 -388.44483545 0 17154
0.12750000 0.12750600 13214.37677806 0 120.68723329 0 4476.00945259 0 -47.74641125 0 -675.45499600 0 18007
0.12850000 0.12850300 13251.02617321 0 332.75879224 0 4798.32482806 0 146.32409418 0 52.73006465 0 17496
0.12950000 0.12949900 13054.93530067 0 349.81903032 0 5085.29734271 0 -57.53102469 0 289.90114456 0 18405
0.13050000 0.13049000 12784.10623561 0 166.41593479 0 5154.54366212 0 75.73990575 0 1028.53371875 0 18100
0.13150000 0.13148800 12790.63890725 0 12.61713558 0 5421.45312420 0 446.09732355 0 1354.43320577 0 19059
0.13250000 0.13249300 12848.43644281 0 141.98485008 0 5119.92050242 0 417.48532898 0 1363.51251212 0 18957
0.13350000 0.13349100 12656.44233045 0 126.36955039 0 4832.78190289 0 792.36435207 0 1177.69675701 0 19468
0.13450000 0.13450700 12586.79740734 0 171.48041616 0 4080.36206984 0 389.44466638 0 1691.20903745 0 19953
0.13550000 0.13551000 12394.58184849 0 165.22123094 0 3909.64896579 0 488.12011793 0 1476.05162157 0 19956
0.13650000 0.13649900 11947.81354206 0 202.69994322 0 3602.69090484 0 548.41556996 0 1347.28048393 0 19723
0.13750000 0.13749600 11776.41395386 0 411.34683211 0 3658.68365145 0 67.75952764 0 1232.57119881 0 20946
0.13850000 0.13851100 11568.14352403 0 224.55006902 0 3251.79785901 0 228.48849496 0 1048.26238711 0 20955
0.13950000 0.13949800 11387.33245974 0 91.52151176 0 3765.93018964 0 -164.20479153 0 1835.22676637 0 20506
0.14050000 0.14048300 11485.65470413 0 42.15300492 0 3373.75951689 0 10.53485203 0 1243.78746385 0 21447
0.14150000 0.14148400 11463.17788474 0 3.54366434 0 3523.74522888 0 -65.68878145 0 1358.66283385 0 21771
0.14250000 0.14249400 11479.56492548 0 282.17044738 0 3689.77473954 0 -254.46749068 0 818.45849997 0 22470
0.14350000 0.14350900 11045.76231141 0 257.59431521 0 3865.44824511 0 -443.30709769 0 355.56113797 0 22519
0.14450000 0.14449900 10870.69778370 0 484.51829067 0 3951.09267759 0 -252.27517037 0 629.28893767 0 22218
0.14550000 0.14550500 10603.29006700 0 179.84998649 0 4132.36877952 0 0.06791443 0 405.23490881 0 23559
0.14650000 0.14650700 10514.21321384 0 -17.64518900 0 3915.53944259 0 365.22506307 0 -185.55776994 0 23044
0.14750000 0.14750500 10535.95925978 0 86.79595425 0 3920.64378433 0 60.20942007 0 -250.91770334 0 23649
0.14850000 0.14849900 10345.42669430 0 255.75852375 0 3770.46984282 0 134.94949489 0 -200.22417139 0 23640
0.14950000 0.14949500 10122.20862596 0 218.23441494 0 3941.38224872 0 -187.13889792 0 -15.33539132 0 24457
0.15050000 0.15050000 10080.87563741 0 17.30482574 0 3614.22826730 0 31.47197606 0 -121.80110917 0 24591
0.15150000 0.15149900 10106.58557564 0 30.58541502 0 3680.86151806 0 401.19572471 0 -321.77283155 0 25020
0.15250000 0.15250500 9985.81972884 0 90.83524907 0 3700.32666509 0 213.83427306 0 -391.88832847 0 25297
0.15350000 0.15350100 10025.72438749 0 24.37417296 0 3323.84547661 0 268.70650040 0 -271.82668153 0 25452
0.15450000 0.15450400 9965.45772350 0 73.84819906 0 3323.67939174 0 105.54915080 0 -196.35328664 0 26061
0.15550000 0.15549900 9810.63340556 0 216.51820460 0 3227.18408094 0 105.57472787 0 -205.36615904 0 26128
0.15650000 0.15649500 9700.56342454 0 238.47130301 0 3348.93536465 0 -30.62970432 0 -42.82409853 0 26331
0.15750000 0.15749700 9425.17256165 0 166.22659804 0 3172.27642217 0 20.56219297 0 344.60285810 0 27345
0.15850000 0.15849900 9350.30150123 0 243.76941044 0 3552.74364758 0 -123.39995287 0 -16.37707564 0 26980
0.15950000 0.15949700 9215.01983659 0 209.96006661 0 3452.51696333 0 111.78619137 0 76.11857926 0 27777
0.16050000 0.16050000 9061.28060649 0 134.41580883 0 3604.09709009 0 362.44590954 0 256.54244435 0 28224
0.16150000 0.16150500 9007.33623997 0 99.78943815 0 3208.56043060 0 300.92918008 0 586.56858683 0 28075
0.16250000 0.16249700 8880.51383150 0 -16.26978481 0 3316.93634592 0 515.11666031 0 494.66164744 0 28590
0.16350000 0.16349900 8960.23457019 0 47.84063674 0 3175.73098751 0 464.86159242 0 348.03749326 0 29163
0.16450000 0.16449100 8813.75878516 0 78.44066722 0 2992.50615641 0 73.59087823 0 719.44534251 0 28996
0.16550000 0.16550500 8765.74918475 0 153.39488081 0 2935.76049172 0 113.04511470 0 587.98695163 0 30777
0.16650000 0.16650700 8671.82265331 0 136.76646339 0 2763.51940684 0 13.28036783 0 981.57598920 0 29211
0.16750000 0.16749900 8582.11467763 0 81.77122253 0 2823.94108337 0 222.72202819 0 821.92635210 0 30922
0.16850000 0.16850800 8533.05320636 0 85.49163439 0 2630.91724481 0 -23.70363297 0 644.80569367 0 30867
0.16950000 0.16949900 8341.71236117 0 207.38021492 0 2665.99436983 0 -194.54185430 0 64.70268020 0 30852
0.17050000 0.17049200 8199.08974518 0 232.92517551 0 2611.25279593 0 6.51436909 0 437.38229668 0 31257
0.17150000 0.17149500 8064.63850491 0 45.62273935 0 2639.73081536 0 -188.65359196 0 118.98430973 0 32608
0.17250000 0.17250900 8040.22402868 0 -33.24454454 0 2674.87437434 0 119.15371630 0 -198.34851957 0 32361
0.17350000 0.17350400 8150.18328646 0 -54.32514377 0 2676.41342749 0 68.81815262 0 -416.43788706 0 32508
0.17450000 0.17449800 8159.97122160 0 45.03380240 0 2602.73817814 0 -196.59355608 0 -478.13509541 0 32791
0.17550000 0.17549800 8176.57970883 0 130.66893411 0 2798.30865142 0 -100.41945343 0 -222.45407793 0 33633
0.17650000 0.17650100 8100.14745060 0 106.52595129 0 2743.55600519 0 163.68328503 0 -103.56764755 0 33984
0.17750000 0.17750300 7971.43167459 0 121.55973249 0 2663.39237350 0 431.90481760 0 269.75062063 0 34069
0.17850000 0.17849800 7949.14308473 0 55.97680246 0 2497.94969606 0 454.32627535 0 356.68830064 0 34536
