### header ###
fiducial parameters:
Omega_m = 0.31
Omega_nu = 0
Omega_de = 0.69
Omega_k = 0
H_0 = 100
w_de = -1
zeff = 0
beta = 0
fgrowth = 0
b_1 = 2
gamma = 0.55
Lx = 3500 Ly = 3500 Lz = 3500
nx = 700 ny = 700 nz = 700
xoffset = -685.467585 yoffset = -31.7331281 zoffset = 572.489161
bins = 400 dk = 0.001
kx_ny = 0.628318531 ky_ny = 0.628318531 kz_ny = 0.628318531
############################
A(data) = 8.05078054 (not used)
A(ran) = 8.04156247 (used)
Ngal = 477648
weighted Ngal = 0
Nran = 23820508
weighted Nran = 0
SN(data) = 3498.2996
SN(ran) = 70.0449255
SN(data+ran) = 3568.34453
############################
13 columns: k_central k_mean P_0(k) sigma^{lin}_{P_0(k)} P^img_1(k) sigma^{lin}_{P_1(k)} P_2(k) sigma^{lin}_{P_2(k)} P^img_3(k) sigma^{lin}_{P_3(k)} P_4(k) sigma^{lin}_{P_4(k)} N_modes
### header ###
0.00050000 0 0 0 0 0 0 0 0 0 0 0 0
0.00150000 0.00179520 10902.30927106 0 -15155.13387227 0 -8246.06961939 0 -6189.85032197 0 11145.62360895 0 3
0.00250000 0.00253879 20670.25886444 0 -16828.16215237 0 -6388.72034803 0 -9055.82195035 0 -21552.94459898 0 6
0.00350000 0.00331552 26516.11419894 0 -6559.84312811 0 -5735.95143835 0 -6134.89837389 0 22503.94657766 0 7
0.00450000 0.00420575 31636.51081133 0 515.43222156 0 -9088.30815137 0 -18447.04676411 0 -509.81190948 0 24
0.00550000 0.00557378 25467.78648511 0 1176.31271641 0 -12196.94085048 0 -7808.51348720 0 8788.70211410 0 45
0.00650000 0.00659388 31934.24562570 0 -7160.62747277 0 -4056.45692056 0 -7440.28118071 0 10997.45375822 0 40
0.00750000 0.00754703 33437.42444308 0 -12451.27215156 0 -17104.41665660 0 2873.75547273 0 10365.31258968 0 57
0.00850000 0.00846663 50804.03375138 0 -15179.82515662 0 -19827.87639224 0 6078.70632544 0 8783.74171258 0 75
0.00950000 0.00948925 61991.62147139 0 -17002.99416126 0 -32535.47286335 0 17362.29110162 0 23747.14720830 0 112
0.01050000 0.01054430 77173.10747673 0 -12480.72453558 0 -30120.93099015 0 573.25854516 0 1988.95492415 0 105
0.01150000 0.01145670 81987.68647762 0 -8715.70227657 0 -27112.58033692 0 1703.17822058 0 -8153.15066951 0 144
0.01250000 0.01249090 89560.27086759 0 -1142.13244969 0 -17540.99842420 0 -31787.09442886 0 -14151.75979721 0 169
0.01350000 0.01339930 100726.04610771 0 2381.64599617 0 3684.40466200 0 -64315.03811133 0 -17178.04761664 0 180
0.01450000 0.01448870 84210.67713146 0 2899.99688255 0 19119.24760385 0 -34100.32452997 0 -21386.85972670 0 267
0.01550000 0.01550050 89910.59922485 0 974.75211541 0 32491.84790357 0 -21590.03688713 0 -17643.74959851 0 238
0.01650000 0.01653350 91250.46125116 0 -2412.64850566 0 47572.46502981 0 -8415.74192491 0 -37940.76039332 0 315
0.01750000 0.01747870 102411.36466835 0 4602.38896807 0 44197.17753209 0 2150.50014325 0 -36100.31856196 0 297
0.01850000 0.01844180 84684.90480345 0 15739.19900646 0 53029.12814694 0 2900.70551134 0 -27359.82535012 0 388
0.01950000 0.01947590 80976.78322168 0 12472.42029196 0 57735.19836460 0 300.64683580 0 -9220.79959015 0 399
0.02050000 0.02045430 62764.80191347 0 7436.71589212 0 50742.91451838 0 11552.42082278 0 -1736.62771386 0 462
0.02150000 0.02154770 66709.20690687 0 -102.39841005 0 60042.89230331 0 16224.05611027 0 -7503.36021520 0 571
0.02250000 0.02255340 65282.53785399 0 -3050.60264473 0 56466.30994039 0 6215.57133252 0 -6300.48499155 0 510
0.02350000 0.02348930 68862.99553059 0 2737.99769813 0 53234.51977232 0 8318.22796023 0 -1012.61835906 0 555
0.02450000 0.02439640 66813.50820666 0 1523.48546110 0 55553.50748234 0 -372.74981502 0 13048.95624527 0 592
0.02550000 0.02547300 69695.41291046 0 117.21827393 0 43046.54153694 0 15192.89049991 0 -2057.03864946 0 837
0.02650000 0.02652900 68547.43427326 0 14.64126728 0 42593.46200536 0 14169.58624017 0 609.57577057 0 723
0.02750000 0.02749970 69396.79231010 0 -2537.78792076 0 26083.51846828 0 18051.54332158 0 -8145.92044140 0 826
0.02850000 0.02848090 67955.95068145 0 -243.77494660 0 22566.17304314 0 13220.02366372 0 382.76916175 0 831
0.02950000 0.02946900 67958.60803941 0 1215.11014257 0 11744.30421189 0 8056.98752846 0 -5861.52267412 0 996
0.03050000 0.03053250 65495.68010675 0 963.52699251 0 14530.21185951 0 521.42124206 0 -3662.27108469 0 1041
0.03150000 0.03150510 61803.72411922 0 6645.04466759 0 11765.12018255 0 -5629.54639684 0 -5355.82745500 0 1036
0.03250000 0.03246190 59685.03476517 0 1795.78714536 0 22159.04365956 0 -4644.59667028 0 -3280.58590354 0 1059
0.03350000 0.03345080 56445.27252323 0 1260.46238503 0 21875.14925121 0 -178.58884870 0 179.10924796 0 1302
0.03450000 0.03451200 54754.74996992 0 6468.74003950 0 21450.30414792 0 2973.08529868 0 1424.83104696 0 1339
0.03550000 0.03553350 51884.80337693 0 1622.63812985 0 19768.63945446 0 4760.93358715 0 8567.16703913 0 1365
0.03650000 0.03647120 53933.18346838 0 -3344.65037494 0 23905.03856021 0 4632.59427017 0 6382.94059448 0 1308
0.03750000 0.03744890 53976.58698167 0 93.37059001 0 21624.91471031 0 6636.38610958 0 8817.89983465 0 1579
0.03850000 0.03847530 53903.62036111 0 1806.74874693 0 18984.38668755 0 1945.75071271 0 9854.44659487 0 1662
0.03950000 0.03950240 52839.56994604 0 240.66030163 0 18743.12072976 0 2288.36165957 0 9283.75682907 0 1683
0.04050000 0.04050350 51724.25466706 0 2161.12957508 0 19237.27858641 0 -641.77630560 0 5971.00582193 0 1822
0.04150000 0.04152450 51826.00933214 0 2410.87693369 0 21064.32290474 0 -2589.26315884 0 2470.37960726 0 1887
0.04250000 0.04250150 46963.70861128 0 3683.99498598 0 21128.43166544 0 -4000.81848835 0 2047.23964199 0 1920
0.04350000 0.04349210 45745.97432773 0 2300.48585525 0 20049.10144212 0 -2700.76146976 0 -1439.67903454 0 2005
0.04450000 0.04448520 43596.17174094 0 1126.64226727 0 19177.04513940 0 2997.76551070 0 -1749.60447854 0 2151
0.04550000 0.04548030 42937.92203047 0 1221.32171680 0 16872.67289814 0 3977.34515973 0 -1771.28409054 0 2274
0.04650000 0.04648670 41635.26301556 0 1374.50733066 0 16408.96393474 0 6685.17077273 0 -3562.08868973 0 2311
0.04750000 0.04749250 38824.33191385 0 1541.81015867 0 12536.52905266 0 6017.39886292 0 -1404.07043793 0 2568
0.04850000 0.04851840 36017.71901882 0 2855.08753309 0 10583.04985724 0 4260.04375700 0 598.67617401 0 2493
0.04950000 0.04949480 34544.32475520 0 1573.83132205 0 9510.71734320 0 3157.61666411 0 5124.59302349 0 2644
0.05050000 0.05050630 33373.31568238 0 832.86359456 0 9908.88921600 0 2888.00555477 0 3895.59818559 0 2829
0.05150000 0.05149060 32410.24486965 0 -219.87754795 0 8357.46827939 0 -82.19684269 0 8208.26870246 0 2784
0.05250000 0.05249300 34185.47070783 0 196.27578036 0 11276.83065805 0 -1027.00684516 0 4572.44940176 0 3055
0.05350000 0.05348950 34259.43383761 0 -741.68078521 0 10332.50529124 0 -1302.16076030 0 8409.89573740 0 3009
0.05450000 0.05448610 35359.69075484 0 -1079.60481698 0 13157.24358200 0 -859.99300483 0 5538.21078941 0 3336
0.05550000 0.05550870 36517.74520763 0 -493.87772684 0 10963.62780590 0 613.28610661 0 5402.48623179 0 3349
0.05650000 0.05647670 37307.31269044 0 -788.30302332 0 12573.06772457 0 -624.45808235 0 1844.18427714 0 3324
0.05750000 0.05747970 37238.88572306 0 971.96078232 0 11774.75310514 0 -1788.22474751 0 13.58939642 0 3639
0.05850000 0.05849280 36291.98050457 0 1229.61488809 0 12504.86220368 0 794.37619349 0 -493.24217539 0 3846
0.05950000 0.05951020 35127.17193365 0 299.83523439 0 11919.24694402 0 1388.98993152 0 -1955.26183972 0 3787
0.06050000 0.06049470 35111.55995566 0 9.08352491 0 10793.64547529 0 847.84445004 0 -3079.61213576 0 3930
0.06150000 0.06148310 34318.89222189 0 713.70434209 0 10928.80534435 0 1322.40097007 0 -3946.76339858 0 4083
0.06250000 0.06249100 33373.31568238 0 1474.61221935 0 9582.47708035 0 -590.82146679 0 -3286.47638035 0 4303
0.06350000 0.06350600 32520.19305510 0 2214.19922793 0 12008.15771232 0 -481.21541618 0 -216.49384548 0 4470
0.06450000 0.06451750 31353.17001922 0 1377.31970117 0 12128.95677609 0 -1406.72779588 0 2775.38893904 0 4479
0.06550000 0.06550280 30119.93448092 0 991.84224877 0 12543.28317080 0 2361.25077385 0 2021.47434214 0 4636
0.06650000 0.06648880 29953.96033188 0 -213.45670678 0 12349.40676323 0 2462.64005221 0 3362.10035886 0 4653
0.06750000 0.06749660 30171.42079132 0 -563.38535312 0 11416.34195076 0 3384.52181661 0 1096.98283078 0 5220
0.06850000 0.06852730 29501.54513979 0 210.93443119 0 9276.13906959 0 787.76490834 0 255.86149637 0 5029
0.06950000 0.06949320 30234.09014980 0 644.64957389 0 9283.66825047 0 660.33130753 0 1106.65118481 0 5040
0.07050000 0.07048030 28602.69381102 0 31.97432744 0 7447.68856601 0 422.53984526 0 41.32435213 0 5475
0.07150000 0.07148790 28592.50727218 0 373.55809473 0 7461.66183994 0 -141.78886993 0 -1807.15842295 0 5509
0.07250000 0.07249820 28709.87391526 0 324.40693763 0 8266.57556495 0 495.01374736 0 -2230.12123102 0 5916
0.07350000 0.07351270 27833.72085236 0 753.83930509 0 8413.66032784 0 464.36998120 0 -477.50729459 0 5721
0.07450000 0.07449140 27224.07864785 0 946.41914343 0 8367.01262338 0 579.15787982 0 658.51766073 0 6028
0.07550000 0.07549160 26825.25350788 0 578.53007901 0 9399.67299759 0 98.87253893 0 2508.91129763 0 6183
0.07650000 0.07648840 26348.14703144 0 603.44834601 0 9085.54007016 0 787.33087320 0 2151.17555507 0 6330
0.07750000 0.07749960 26096.47308832 0 743.87974892 0 9687.17698383 0 525.17697464 0 1327.59389041 0 6583
0.07850000 0.07848650 25455.60692781 0 733.93569400 0 9041.25077089 0 -676.09719084 0 2149.35969380 0 6549
0.07950000 0.07947320 24531.06780546 0 961.67569980 0 8673.39492344 0 -711.42676488 0 114.29518017 0 6828
0.08050000 0.08048110 23939.14132065 0 833.63533560 0 8279.41946174 0 361.33092643 0 122.10781256 0 7147
0.08150000 0.08149960 23405.78743414 0 267.32467426 0 7892.84031302 0 550.03655832 0 -2141.40976458 0 7386
0.08250000 0.08250610 22924.69492077 0 420.01535521 0 7502.89517756 0 307.82280952 0 -850.75204253 0 7227
0.08350000 0.08350160 22832.35173178 0 423.55296299 0 7078.11650822 0 150.62347790 0 -1411.66605275 0 7798
0.08450000 0.08449610 22746.54121443 0 -55.72490707 0 7136.99913160 0 849.17312901 0 -260.97248151 0 7371
0.08550000 0.08548940 22651.42994424 0 21.45152210 0 7627.21524062 0 600.75002045 0 -1258.40293261 0 8256
0.08650000 0.08650700 22236.43921004 0 333.11975003 0 7514.59862489 0 1392.65487104 0 369.19338429 0 8037
0.08750000 0.08749060 22368.64276837 0 369.88761905 0 6966.91715006 0 1174.07610679 0 -413.42510747 0 8155
0.08850000 0.08849210 21226.97535632 0 593.84199700 0 6342.08371590 0 1122.96625543 0 95.41819504 0 8718
0.08950000 0.08949900 20985.04505904 0 749.79569207 0 6091.98204289 0 64.29145406 0 -191.74387781 0 8571
0.09050000 0.09049190 19847.03151418 0 892.67518599 0 5595.00074341 0 -257.92869942 0 -538.81475711 0 8932
0.09150000 0.09150830 19485.96300184 0 378.15421676 0 4666.57523504 0 -311.49217796 0 938.81909968 0 9285
0.09250000 0.09250820 19780.81901176 0 -269.23243583 0 5943.00391246 0 231.61864118 0 -85.63513172 0 9204
0.09350000 0.09350330 19565.13012429 0 -134.25636736 0 5573.37649304 0 133.26760875 0 -179.46466959 0 9349
0.09450000 0.09448040 19660.57356423 0 570.65322713 0 6659.64906402 0 -397.60829147 0 -8.93999436 0 9564
0.09550000 0.09549270 18948.73380164 0 1058.70469665 0 7392.33801425 0 -377.22081978 0 1242.97918414 0 10155
0.09650000 0.09649430 18746.22098071 0 438.00123964 0 7543.35345245 0 314.29126167 0 2089.73522465 0 9913
0.09750000 0.09749140 18412.39038742 0 -42.50532630 0 8178.26270220 0 876.45865906 0 2094.02021435 0 10476
0.09850000 0.09850240 18328.01927231 0 214.72227351 0 7418.35797757 0 979.95057191 0 2814.30816078 0 10575
0.09950000 0.09950330 17819.68883988 0 276.48813028 0 6521.14535287 0 929.59585310 0 2462.13072527 0 10882
0.10050000 0.10051200 17972.26547588 0 257.16249454 0 6468.92826902 0 523.68442525 0 2352.43720329 0 10875
0.10150000 0.10150300 17249.46411172 0 613.98255584 0 6004.31137498 0 92.42501347 0 1760.76538196 0 11118
0.10250000 0.10250800 16911.09386526 0 657.98618914 0 5759.42476697 0 -487.94074627 0 1231.97329327 0 11575
0.10350000 0.10349800 16356.48111510 0 169.71548759 0 5038.66071057 0 559.34284733 0 1061.96106738 0 11364
0.10450000 0.10450100 15991.31584258 0 406.53147804 0 5149.20680156 0 392.03005423 0 375.44038995 0 12093
0.10550000 0.10551000 15964.07792352 0 153.97728509 0 4504.84178642 0 585.22219213 0 -205.85223410 0 12067
0.10650000 0.10649700 15544.54753615 0 57.17814970 0 4421.36752961 0 240.23401713 0 -148.22964128 0 12054
0.10750000 0.10749900 15454.41881212 0 28.91116878 0 3742.68937985 0 700.56702869 0 196.02443859 0 12807
0.10850000 0.10850100 15379.68061960 0 124.87921547 0 3459.24893682 0 540.55311211 0 -1041.24917657 0 12736
0.10950000 0.10950300 15283.01922393 0 279.91833651 0 3405.00561753 0 434.05838477 0 -337.04821087 0 12933
0.11050000 0.11050200 15060.57621832 0 214.44325093 0 3536.61127032 0 260.14094992 0 -381.22900137 0 13428
0.11150000 0.11150900 14776.23891698 0 118.40744161 0 2841.78967098 0 300.86717506 0 581.43102811 0 13453
0.11250000 0.11250000 15105.75130358 0 -307.02560213 0 3225.98826986 0 471.13295720 0 472.64875846 0 13668
0.11350000 0.11349100 15107.19070581 0 -70.16964058 0 3047.87885283 0 78.81446891 0 -278.21541295 0 13791
0.11450000 0.11448600 15341.03820598 0 281.11857652 0 3370.06136040 0 -513.65400620 0 -166.71488756 0 14205
0.11550000 0.11549300 14668.72664299 0 589.84710220 0 3781.83004808 0 -1035.68311889 0 -338.58504956 0 14776
0.11650000 0.11649800 14306.32945168 0 650.31417527 0 3992.15993034 0 -724.50650218 0 -6.48077566 0 14553
0.11750000 0.11747300 13957.10832690 0 54.34607046 0 4520.66413858 0 -351.87183934 0 -829.28169748 0 14568
0.11850000 0.11849100 14036.38617260 0 121.00500901 0 4613.41700359 0 -148.37025980 0 -1417.00291332 0 16015
0.11950000 0.11950300 13982.13178099 0 111.57360273 0 4654.34031612 0 220.85966316 0 -1178.44967510 0 15270
0.12050000 0.12050700 13942.38213489 0 15.43360284 0 4398.45888956 0 17.29984319 0 -1483.68045337 0 15999
0.12150000 0.12150000 13719.93912928 0 278.43796668 0 4487.93434642 0 411.99677757 0 -253.29160978 0 15670
0.12250000 0.12250700 13787.92320367 0 250.78262098 0 4324.76149556 0 678.72908245 0 -426.88130383 0 16887
0.12350000 0.12352200 13538.46372550 0 5.92579752 0 4211.84592706 0 802.20764883 0 54.43099519 0 16407
0.12450000 0.12449800 13460.29311228 0 148.73343206 0 4092.25374670 0 702.20130384 0 -148.24624976 0 16306
0.12550000 0.12549900 13105.97871809 0 223.61556480 0 3638.48773098 0 186.63289268 0 79.99378222 0 17523
0.12650000 0.12650100 13188.35681474 0 118.94887829 0 3620.27375665 0 -157.29344637 0 161.72016184 0 17154
0.12750000 0.12750600 13290.00075657 0 -41.04842980 0 3911.46482706 0 -454.81345765 0 76.13253039 0 18007
0.12850000 0.12850300 13167.76229058 0 73.87432974 0 3837.54598657 0 -480.42485218 0 -390.15329517 0 17496
0.12950000 0.12949900 13145.72836419 0 367.21808154 0 4048.29661717 0 -378.08778281 0 -262.32884130 0 18405
0.13050000 0.13049000 12800.49327634 0 395.02290362 0 3889.49733462 0 84.63175764 0 -17.22864814 0 18100
0.13150000 0.13148800 12531.54650650 0 217.07071360 0 4107.10173428 0 659.01591535 0 -289.92328921 0 19059
0.13250000 0.13249300 12281.64413534 0 67.25595831 0 3870.44186361 0 517.67436734 0 26.30784377 0 18957
0.13350000 0.13349100 12410.74744272 0 110.37480212 0 3865.90221043 0 798.24929271 0 344.43123706 0 19468
0.13450000 0.13450700 12228.16480646 0 71.66052912 0 3637.97840404 0 410.49204863 0 959.76129484 0 19953
0.13550000 0.13551000 12356.27160462 0 -63.44154241 0 3439.06408867 0 37.53019859 0 850.28921936 0 19956
0.13650000 0.13649900 12299.69202479 0 223.05641240 0 3689.73045024 0 183.75076653 0 935.40771640 0 19723
0.13750000 0.13749600 12254.18476979 0 187.94164147 0 3813.07614872 0 -270.16694004 0 1090.27743087 0 20946
0.13850000 0.13851100 11909.72474468 0 157.07975050 0 3471.57243434 0 -81.12382370 0 681.55141805 0 20955
0.13950000 0.13949800 11969.62602195 0 88.17899835 0 4001.75963596 0 -190.92452578 0 455.89411655 0 20506
0.14050000 0.14048300 11659.49020378 0 131.75070025 0 3602.53589229 0 227.88394602 0 -130.47849013 0 21447
0.14150000 0.14148400 11789.70074365 0 71.20147053 0 3503.79289956 0 179.46356236 0 -276.77490349 0 21771
0.14250000 0.14249400 11443.35842332 0 124.20158919 0 3508.43220366 0 7.62577584 0 -177.20480810 0 22470
0.14350000 0.14350900 11519.20384833 0 340.49170389 0 3560.19532219 0 52.38261510 0 -210.85249599 0 22519
0.14450000 0.14449900 11001.21834866 0 411.48080724 0 3292.98690734 0 397.67029649 0 8.15460114 0 22218
0.14550000 0.14550500 10802.75799861 0 361.21245256 0 3198.71713383 0 213.31055210 0 349.66955394 0 23559
0.14650000 0.14650700 10563.57363788 0 75.06039718 0 3341.57226864 0 505.71847100 0 475.74790218 0 23044
0.14750000 0.14750500 10551.05083851 0 45.68319425 0 3180.87961855 0 428.22326959 0 613.63377761 0 23649
0.14850000 0.14849900 10435.65506925 0 -78.16939526 0 3005.93688642 0 351.06134516 0 691.97822633 0 23640
0.14950000 0.14949500 10481.37269843 0 60.81762287 0 2802.25039905 0 135.73452272 0 436.67145343 0 24457
0.15050000 0.15050000 10385.50851015 0 247.68126280 0 2934.33216181 0 -141.97820668 0 727.40745129 0 24591
0.15150000 0.15149900 10213.13455737 0 371.91274726 0 2775.42215602 0 -232.54207307 0 527.51766410 0 25020
0.15250000 0.15250500 9897.08611775 0 294.01008430 0 2954.45057601 0 155.91826363 0 1027.53831675 0 25297
0.15350000 0.15350100 9700.57449686 0 79.48567324 0 2835.72203698 0 -47.58320518 0 581.87945726 0 25452
0.15450000 0.15450400 9717.34906896 0 122.69464578 0 2768.54624230 0 213.62389889 0 519.04622838 0 26061
0.15550000 0.15549900 9520.77101413 0 217.69187103 0 2816.01329880 0 71.98760559 0 469.55182921 0 26128
0.15650000 0.15649500 9231.92727659 0 65.96171426 0 2596.93627994 0 141.85530388 0 341.47935527 0 26331
0.15750000 0.15749700 9430.16618014 0 43.42687589 0 2616.96611554 0 156.02677241 0 234.15088187 0 27345
0.15850000 0.15849900 9427.94064285 0 -76.48119790 0 2527.26921218 0 -3.94398425 0 -23.53954112 0 26980
0.15950000 0.15949700 9346.54798311 0 130.69882939 0 2677.14420093 0 -102.50968691 0 178.61874397 0 27777
0.16050000 0.16050000 9341.35506277 0 289.16815666 0 2641.14807294 0 -31.33080392 0 298.15999165 0 28224
0.16150000 0.16150500 9166.08016089 0 197.53027476 0 2631.50407802 0 -104.03501038 0 433.45937200 0 28075
0.16250000 0.16249700 9005.11070268 0 72.47667018 0 2717.90142858 0 130.74311869 0 429.76453721 0 28590
0.16350000 0.16349900 8886.12750018 0 121.50104916 0 2627.00871415 0 302.98752527 0 -39.14432210 0 29163
0.16450000 0.16449100 8938.70997074 0 30.31801837 0 2760.75132563 0 -42.43402053 0 136.25381475 0 28996
0.16550000 0.16550500 8815.91788850 0 54.61058830 0 2492.34709970 0 -68.15182011 0 -262.44731518 0 30777
0.16650000 0.16650700 8867.76958563 0 -28.51245436 0 2436.01111103 0 -132.13601715 0 -105.52014131 0 29211
0.16750000 0.16749900 8762.52713823 0 89.71539414 0 2435.88931545 0 208.15970659 0 -359.86827233 0 30922
0.16850000 0.16850800 8740.08353582 0 110.09467231 0 2347.44358480 0 15.18048950 0 -502.38680846 0 30867
0.16950000 0.16949900 8665.11282447 0 106.17562294 0 2358.50483730 0 274.43753572 0 -402.26420406 0 30852
0.17050000 0.17049200 8559.40533943 0 162.77203269 0 2129.34093052 0 331.67148994 0 69.20147650 0 31257
0.17150000 0.17149500 8410.20576250 0 -12.44651105 0 2056.21929742 0 390.34152469 0 0.51458740 0 32608
0.17250000 0.17250900 8516.48900843 0 42.49336819 0 1991.03652121 0 374.69300803 0 27.96592441 0 32361
0.17350000 0.17350400 8413.60496622 0 78.80051778 0 1918.45743203 0 158.50475871 0 276.06295301 0 32508
0.17450000 0.17449800 8285.58674667 0 313.67564041 0 1865.28812825 0 39.67524008 0 515.18752318 0 32791
0.17550000 0.17549800 8071.48120165 0 188.43878886 0 1672.15356644 0 -44.60164956 0 800.30653066 0 33633
0.17650000 0.17650100 7920.55434204 0 66.41601175 0 1936.15100709 0 183.00227737 0 665.90400862 0 33984
0.17750000 0.17750300 7999.93183867 0 -9.18514670 0 1850.88303366 0 90.20257643 0 638.64173045 0 34069
0.17850000 0.17849800 7894.42365547 0 83.54567330 0 1889.61402587 0 0.01656232 0 323.86992988 0 34536
