### header ###
fiducial parameters:
Omega_m = 0.31
Omega_nu = 0
Omega_de = 0.69
Omega_k = 0
H_0 = 100
w_de = -1
zeff = 0
beta = 0
fgrowth = 0
b_1 = 2
gamma = 0.55
Lx = 3500 Ly = 3500 Lz = 3500
nx = 700 ny = 700 nz = 700
xoffset = -685.467585 yoffset = -31.7331281 zoffset = 572.489161
bins = 400 dk = 0.001
kx_ny = 0.628318531 ky_ny = 0.628318531 kz_ny = 0.628318531
############################
A(data) = 8.0477407 (not used)
A(ran) = 8.04251651 (used)
Ngal = 478238
weighted Ngal = 0
Nran = 23820508
weighted Nran = 0
SN(data) = 3496.73366
SN(ran) = 70.0532356
SN(data+ran) = 3566.7869
############################
13 columns: k_central k_mean P_0(k) sigma^{lin}_{P_0(k)} P^img_1(k) sigma^{lin}_{P_1(k)} P_2(k) sigma^{lin}_{P_2(k)} P^img_3(k) sigma^{lin}_{P_3(k)} P_4(k) sigma^{lin}_{P_4(k)} N_modes
### header ###
0.00050000 0 0 0 0 0 0 0 0 0 0 0 0
0.00150000 0.00179520 10648.06654857 0 -18109.34085714 0 7850.01256062 0 -40923.64469946 0 13729.57205187 0 3
0.00250000 0.00253879 17168.85758704 0 -9775.62271449 0 2892.65593120 0 6616.34520166 0 12045.69289345 0 6
0.00350000 0.00331552 24559.41295699 0 -4291.04626649 0 6942.90127753 0 -13393.63771688 0 -22101.57829375 0 7
0.00450000 0.00420575 26428.42138638 0 4819.37331754 0 8167.45611318 0 -9109.84382314 0 18618.22490580 0 24
0.00550000 0.00557378 28400.95605282 0 2965.39003293 0 15159.78424870 0 13713.07428789 0 22117.19027174 0 45
0.00650000 0.00659388 32061.35591462 0 -10098.03774088 0 40477.98362551 0 9615.55011458 0 32877.71842350 0 40
0.00750000 0.00754703 46603.85805468 0 -8454.69436362 0 18991.91586843 0 67358.93092723 0 37742.45505582 0 57
0.00850000 0.00846663 62546.34494480 0 -15264.52844148 0 50040.04333889 0 36672.09341560 0 41101.79840579 0 75
0.00950000 0.00948925 63746.47423190 0 -6032.57902024 0 30041.98531419 0 39514.02702680 0 36921.88506351 0 112
0.01050000 0.01054430 86599.75265758 0 -757.23186542 0 45925.12454329 0 36066.54797127 0 72528.48866181 0 105
0.01150000 0.01145670 94362.67031118 0 -10209.92358317 0 49497.27797628 0 12639.72311997 0 46025.55052940 0 144
0.01250000 0.01249090 94366.43490162 0 10582.91698934 0 75642.58001705 0 -4101.65415047 0 48764.84368953 0 169
0.01350000 0.01339930 90914.85908590 0 16550.35752267 0 68832.87880709 0 14189.51642484 0 23220.99033291 0 180
0.01450000 0.01448870 80455.60889247 0 6171.37061184 0 88640.04995191 0 8311.80601184 0 51112.39799758 0 267
0.01550000 0.01550050 79118.18277762 0 2209.95852753 0 84395.25278619 0 27070.61622586 0 39608.58468075 0 238
0.01650000 0.01653350 84255.18787723 0 -3318.22073560 0 71485.91855688 0 29811.34878822 0 -15729.78753036 0 315
0.01750000 0.01747870 75389.57739494 0 3044.41321516 0 56468.41368210 0 15978.02905280 0 -5045.22659919 0 297
0.01850000 0.01844180 74700.10372849 0 10387.41295001 0 40852.44965088 0 1404.35831837 0 -2503.07618245 0 388
0.01950000 0.01947590 67445.84867705 0 -1831.59504383 0 40704.63411455 0 17393.62578086 0 811.20723444 0 399
0.02050000 0.02045430 75074.45903060 0 -10056.38365491 0 33734.60564121 0 10434.31531795 0 -17806.40205010 0 462
0.02150000 0.02154770 77852.72677410 0 -8072.13446881 0 23990.62763106 0 4734.21606736 0 -14874.00754513 0 571
0.02250000 0.02255340 91198.19987801 0 -2489.90011592 0 26650.64294549 0 -8711.10726177 0 -17450.53753043 0 510
0.02350000 0.02348930 88530.10176646 0 -2208.14266626 0 18245.86262215 0 -4864.75877697 0 -17758.79105338 0 555
0.02450000 0.02439640 88617.13023954 0 6130.85697533 0 24211.63123444 0 -9944.35387240 0 -21602.10572118 0 592
0.02550000 0.02547300 85732.34673129 0 11209.17875340 0 26692.49633330 0 -11784.27530449 0 -32152.03825488 0 837
0.02650000 0.02652900 74321.43021969 0 6748.86985741 0 30613.76016783 0 -7573.01621064 0 -18280.51899883 0 723
0.02750000 0.02749970 67199.15728009 0 6513.41687014 0 33707.58916865 0 5440.81862031 0 -22385.58342535 0 826
0.02850000 0.02848090 69253.40570370 0 -448.71039221 0 29708.26544416 0 12378.85914725 0 -15340.04169675 0 831
0.02950000 0.02946900 64443.03418624 0 57.00376059 0 22710.55615877 0 13616.30216898 0 -5664.75638977 0 996
0.03050000 0.03053250 64150.17119478 0 1273.16234160 0 22350.59487892 0 10498.08083658 0 -3459.32644309 0 1041
0.03150000 0.03150510 65970.68284147 0 2499.16765179 0 24999.75931503 0 4815.65301640 0 -191.03192733 0 1036
0.03250000 0.03246190 60594.73697227 0 6899.11023287 0 24781.41306961 0 -3688.68965171 0 6841.22411872 0 1059
0.03350000 0.03345080 54622.65713484 0 5285.19709498 0 29017.24165223 0 338.59833635 0 9428.00707680 0 1302
0.03450000 0.03451200 53430.49992161 0 1177.97356513 0 26722.05944057 0 1787.31681688 0 5803.22688395 0 1339
0.03550000 0.03553350 51863.76595977 0 1054.86149270 0 24136.78231866 0 4863.76226774 0 1386.70903261 0 1365
0.03650000 0.03647120 50286.40256611 0 -580.27175570 0 16521.90164789 0 4162.45228605 0 -3621.86817143 0 1308
0.03750000 0.03744890 49603.57229454 0 -512.22124737 0 13533.48117934 0 4487.46930877 0 -5592.27695150 0 1579
0.03850000 0.03847530 50442.19017631 0 -914.41458854 0 11360.98032667 0 -245.31178529 0 -13049.50986151 0 1662
0.03950000 0.03950240 49817.93250303 0 3274.64006511 0 13639.11115810 0 -3375.19891912 0 -13090.58818659 0 1683
0.04050000 0.04050350 46675.60671950 0 3757.61487370 0 16225.49551249 0 -3661.32993708 0 -7600.89632453 0 1822
0.04150000 0.04152450 46401.01306400 0 1985.15711674 0 20635.60248776 0 -3578.16570537 0 -4450.96385385 0 1887
0.04250000 0.04250150 44732.19226733 0 -176.89589023 0 23506.32414349 0 -343.30075270 0 4907.32079357 0 1920
0.04350000 0.04349210 45957.23428527 0 -1339.96167723 0 26389.66824951 0 6581.93241612 0 -908.16536842 0 2005
0.04450000 0.04448520 46593.89296234 0 -800.75606705 0 23111.37431721 0 8536.38597613 0 6007.19017943 0 2151
0.04550000 0.04548030 48206.46634893 0 -809.84644572 0 22717.64244666 0 2224.81758743 0 -662.98534379 0 2274
0.04650000 0.04648670 46119.33312061 0 2637.25061460 0 19589.37851565 0 1775.42514002 0 3923.24578067 0 2311
0.04750000 0.04749250 43642.89695167 0 3665.59278214 0 18067.70891582 0 -733.44408278 0 5060.71678161 0 2568
0.04850000 0.04851840 41420.57063732 0 2351.62892358 0 16976.42058169 0 -192.25763369 0 2676.91168210 0 2493
0.04950000 0.04949480 39537.83252516 0 368.28213196 0 15519.52408206 0 1666.57311473 0 5676.26053525 0 2644
0.05050000 0.05050630 39514.35919654 0 -229.45400168 0 14825.62148567 0 4968.58396679 0 799.54696918 0 2829
0.05150000 0.05149060 39403.08233212 0 465.69201678 0 14402.43723110 0 813.36633778 0 -241.48408260 0 2784
0.05250000 0.05249300 38971.04021769 0 1078.78989387 0 11762.24137810 0 1055.52915389 0 -1243.58816201 0 3055
0.05350000 0.05348950 35809.11641923 0 1996.80520244 0 13216.48051978 0 -1321.80306453 0 3013.38856102 0 3009
0.05450000 0.05448610 37595.96819847 0 1713.58620591 0 13821.25090137 0 -1522.14570979 0 -674.30015253 0 3336
0.05550000 0.05550870 34732.55427712 0 39.19370467 0 14171.46853539 0 2180.38434794 0 3040.41610590 0 3349
0.05650000 0.05647670 35710.01911211 0 -60.40030695 0 13427.62975407 0 979.27405287 0 975.97450007 0 3324
0.05750000 0.05747970 35609.37167950 0 -514.29730827 0 12111.01960988 0 2026.32402041 0 -2670.27935954 0 3639
0.05850000 0.05849280 36989.64769140 0 326.62583152 0 13876.61252546 0 -923.90910707 0 -4738.63392496 0 3846
0.05950000 0.05951020 34825.00818935 0 1799.10884281 0 12427.90954619 0 -2146.23729820 0 -5118.51431716 0 3787
0.06050000 0.06049470 33964.02421145 0 1354.08996370 0 12348.41025400 0 -2545.37246326 0 -5943.97827704 0 3930
0.06150000 0.06148310 32832.32189174 0 721.21137832 0 12113.67696784 0 659.12663859 0 -5319.99741189 0 4083
0.06250000 0.06249100 32856.68100634 0 -456.06463035 0 11245.82814855 0 2483.54460147 0 -6775.99705322 0 4303
0.06350000 0.06350600 32839.18673313 0 -634.07218199 0 9888.43863206 0 3751.45866110 0 -6033.74161435 0 4470
0.06450000 0.06451750 32355.87975479 0 722.48580290 0 10954.79209070 0 3875.54620535 0 -3904.64427497 0 4479
0.06550000 0.06550280 32157.68514054 0 871.85257194 0 8654.38374172 0 2218.01918000 0 -2849.56244300 0 4636
0.06650000 0.06648880 31131.72352284 0 1042.63653887 0 9953.92036104 0 990.98635806 0 1118.92485687 0 4653
0.06750000 0.06749660 30204.63776578 0 848.62504894 0 8846.65466220 0 -368.88446643 0 2140.24717047 0 5220
0.06850000 0.06852730 30331.52660820 0 1077.08586308 0 10930.47726539 0 -404.27936717 0 1967.69606050 0 5029
0.06950000 0.06949320 28507.36109433 0 1574.25207039 0 10575.18850661 0 -1285.59656237 0 3247.24713351 0 5040
0.07050000 0.07048030 28298.75849474 0 1546.29445022 0 11575.11908866 0 -1426.42546174 0 2694.25094277 0 5475
0.07150000 0.07148790 27388.17050166 0 142.42552861 0 12594.43731147 0 117.41425407 0 1865.27705592 0 5509
0.07250000 0.07249820 26892.24107303 0 32.76378420 0 12667.40393202 0 1053.80962185 0 2736.29256011 0 5916
0.07350000 0.07351270 26945.94184840 0 560.98930203 0 13257.66956810 0 520.66168057 0 2669.95826212 0 5721
0.07450000 0.07449140 26743.20758097 0 489.69349529 0 13795.12021480 0 1528.66730911 0 2466.41571498 0 6028
0.07550000 0.07549160 26207.19633650 0 638.00396454 0 13099.66749294 0 879.09497960 0 2475.31786413 0 6183
0.07650000 0.07648840 25490.04185800 0 639.61609503 0 12924.61403756 0 402.57533638 0 3488.50201899 0 6330
0.07750000 0.07749960 25469.33661059 0 -79.17199428 0 12300.79925728 0 836.08010492 0 2047.25071432 0 6583
0.07850000 0.07848650 25569.98404319 0 -265.29622435 0 12272.34338249 0 433.80261407 0 1260.05270901 0 6549
0.07950000 0.07947320 25028.54735956 0 566.59300562 0 10703.76034241 0 -360.74187875 0 -1968.43790626 0 6828
0.08050000 0.08048110 25006.73487966 0 576.94562933 0 11139.31238380 0 13.50425024 0 -819.45722367 0 7147
0.08150000 0.08149960 24025.06256124 0 549.71435367 0 9784.98990128 0 145.70958015 0 -1542.61843838 0 7386
0.08250000 0.08250610 23791.10433783 0 793.92665710 0 9949.70180528 0 1390.82793744 0 -958.39164826 0 7227
0.08350000 0.08350160 23547.84536156 0 389.10031708 0 8878.81976580 0 2108.02670525 0 -1179.31331643 0 7798
0.08450000 0.08449610 22948.16824938 0 95.86529551 0 7775.77262272 0 2156.89994700 0 -965.27531260 0 7371
0.08550000 0.08548940 22706.45939859 0 500.25317147 0 7939.42158354 0 1319.44465934 0 692.93487520 0 8256
0.08650000 0.08650700 22068.47204254 0 762.91750421 0 7559.12044299 0 713.07875574 0 180.66380237 0 8037
0.08750000 0.08749060 21189.66162168 0 582.71209609 0 7032.93035063 0 178.61210058 0 1442.02636741 0 8155
0.08850000 0.08849210 20779.09981741 0 723.25090055 0 7253.93395401 0 85.91869396 0 1989.09886437 0 8718
0.08950000 0.08949900 20687.08879817 0 -125.17263207 0 7903.65797437 0 306.65246478 0 1220.40271384 0 8571
0.09050000 0.09049190 20521.33609563 0 415.05163199 0 7610.77283827 0 122.33700969 0 1173.77715402 0 8932
0.09150000 0.09150830 19990.86101357 0 248.36663970 0 7840.29105943 0 60.68154400 0 2257.33700543 0 9285
0.09250000 0.09250820 20471.39991070 0 92.96955040 0 7884.22604431 0 47.06579545 0 1405.22195971 0 9204
0.09350000 0.09350330 19956.97969962 0 40.20925830 0 7909.83633162 0 -178.94759202 0 1199.57567085 0 9349
0.09450000 0.09448040 20209.31798224 0 355.09388586 0 8212.39867961 0 664.97504056 0 -60.23532931 0 9564
0.09550000 0.09549270 19843.82053998 0 391.81525112 0 7479.33327035 0 -207.22520238 0 140.57645036 0 10155
0.09650000 0.09649430 19472.34404231 0 568.29814364 0 7355.07964123 0 -31.76638918 0 -256.67641948 0 9913
0.09750000 0.09749140 18556.55205656 0 701.66983224 0 7325.27294282 0 572.27532272 0 -843.55170970 0 10476
0.09850000 0.09850240 18374.74448304 0 398.50293532 0 6635.89892729 0 835.51430912 0 -639.89733208 0 10575
0.09950000 0.09950330 17627.25183453 0 579.84547120 0 6081.56298524 0 1064.46341279 0 -1028.39310023 0 10882
0.10050000 0.10051200 17260.97932953 0 140.37825575 0 5550.61179321 0 154.77338524 0 -772.45077588 0 10875
0.10150000 0.10150300 17044.29393283 0 208.68674925 0 6000.53571222 0 253.17977930 0 -586.57190852 0 11118
0.10250000 0.10250800 16561.54057074 0 398.99011761 0 5390.39525309 0 -210.28005679 0 -695.89561485 0 11575
0.10350000 0.10349800 16554.23283636 0 291.27189838 0 5748.52959934 0 -83.99775633 0 -1156.62612288 0 11364
0.10450000 0.10450100 16346.40529951 0 82.36314901 0 5673.76926217 0 -389.93406314 0 -692.34029135 0 12093
0.10550000 0.10551000 16171.35184413 0 79.71143794 0 5567.28671439 0 487.83666642 0 -1107.60894091 0 12067
0.10650000 0.10649700 16046.12385043 0 -24.90841264 0 4901.87320976 0 1104.00489918 0 -1199.25457343 0 12054
0.10750000 0.10749900 16269.89553502 0 35.23545927 0 4648.16195887 0 742.68725954 0 -1091.89731199 0 12807
0.10850000 0.10850100 16218.40922461 0 328.90119427 0 4186.62317113 0 608.05000421 0 -396.04598644 0 12736
0.10950000 0.10950300 15522.62433300 0 395.98730312 0 4143.59611688 0 367.67869025 0 -204.50251770 0 12933
0.11050000 0.11050200 15386.54546098 0 381.80476226 0 3879.74261645 0 554.18092950 0 508.31382394 0 13428
0.11150000 0.11150900 15182.48251458 0 -15.87494571 0 4030.81341628 0 397.37134372 0 780.51475005 0 13453
0.11250000 0.11250000 15215.92093553 0 264.03840825 0 4276.49723168 0 699.85286374 0 1378.88089897 0 13668
0.11350000 0.11349100 15011.63654262 0 204.24563977 0 3998.02826249 0 -302.77050770 0 696.70721626 0 13791
0.11450000 0.11448600 14694.52515982 0 401.94421387 0 4322.33665643 0 113.06947382 0 1951.57475556 0 14205
0.11550000 0.11549300 14528.55101079 0 334.10518694 0 4305.79460315 0 31.29681189 0 1340.69245067 0 14776
0.11650000 0.11649800 14018.89189938 0 171.80594251 0 4287.89065392 0 320.25149412 0 2330.55828945 0 14553
0.11750000 0.11747300 14099.71987056 0 90.88972491 0 4639.78020898 0 281.07207275 0 1559.69196325 0 14568
0.11850000 0.11849100 13931.97414956 0 -106.00765577 0 4050.41143121 0 509.49634823 0 1544.61145685 0 16015
0.11950000 0.11950300 14050.33730187 0 179.28308346 0 4285.28865759 0 84.20281578 0 1275.25501099 0 15270
0.12050000 0.12050700 13784.04788998 0 288.53039075 0 4195.79105608 0 -298.59956294 0 1347.18083301 0 15999
0.12150000 0.12150000 13718.16755731 0 198.95971190 0 4117.08897127 0 107.23070477 0 1468.03525841 0 15670
0.12250000 0.12250700 13516.65124561 0 -1.55606024 0 3925.49346260 0 98.28061245 0 983.61772589 0 16887
0.12350000 0.12352200 13726.58252417 0 76.91102555 0 4161.66615099 0 -116.70119636 0 969.01111499 0 16407
0.12450000 0.12449800 13552.41485477 0 221.74987807 0 4210.41759716 0 -456.76107958 0 333.82062819 0 16306
0.12550000 0.12549900 13299.96584891 0 416.27401665 0 4087.41514075 0 -75.79150279 0 703.14909484 0 17523
0.12650000 0.12650100 13278.59626201 0 74.31545116 0 4234.92065199 0 -234.71224874 0 420.14379417 0 17154
0.12750000 0.12750600 13138.53135305 0 37.45789631 0 4619.81680733 0 504.17941785 0 465.63333346 0 18007
0.12850000 0.12850300 13012.86046636 0 78.90891584 0 4536.97367304 0 251.45249663 0 44.22153665 0 17496
0.12950000 0.12949900 13074.75476210 0 204.15373947 0 3983.55673395 0 415.73368720 0 192.39160882 0 18405
0.13050000 0.13049000 12671.72213870 0 313.10763015 0 4344.29307654 0 -127.18558073 0 257.69618060 0 18100
0.13150000 0.13148800 12707.59647111 0 345.46207050 0 4246.04833843 0 78.55725880 0 -18.64158751 0 19059
0.13250000 0.13249300 12278.32243789 0 125.68749518 0 4040.61242374 0 28.21870559 0 655.33990351 0 18957
0.13350000 0.13349100 12272.78627548 0 201.67243148 0 4126.00219275 0 80.62866933 0 452.94334198 0 19468
0.13450000 0.13450700 12292.27356716 0 45.66891095 0 4331.21666093 0 187.17765106 0 -51.16897758 0 19953
0.13550000 0.13551000 12131.83558054 0 150.61351281 0 4716.64428787 0 -274.33677757 0 -31.07647262 0 19956
0.13650000 0.13649900 11894.66638293 0 299.52520930 0 4376.41389084 0 187.34595040 0 582.42643011 0 19723
0.13750000 0.13749600 11988.11680440 0 73.20091095 0 4675.27808235 0 362.26543065 0 1074.00111339 0 20946
0.13850000 0.13851100 11740.53962145 0 -182.91812770 0 4250.39976208 0 618.30740592 0 143.96901069 0 20955
0.13950000 0.13949800 11853.80950435 0 146.84117174 0 4231.73182244 0 852.07850705 0 1001.14078715 0 20506
0.14050000 0.14048300 11725.81342944 0 408.99396308 0 3915.04118798 0 138.89567146 0 1037.50008739 0 21447
0.14150000 0.14148400 11376.81375116 0 197.49262886 0 3847.89861028 0 130.46963227 0 1018.68931475 0 21771
0.14250000 0.14249400 11095.90887051 0 274.69219919 0 3971.67612942 0 -20.95061013 0 1149.81664312 0 22470
0.14350000 0.14350900 10966.24087456 0 211.53898013 0 4044.44344813 0 -348.25451082 0 762.15572826 0 22519
0.14450000 0.14449900 10624.63750925 0 240.02032126 0 3939.36708560 0 -96.63526498 0 1142.37604084 0 22218
0.14550000 0.14550500 10732.75876111 0 10.92613691 0 4166.30545509 0 30.39220295 0 539.18346553 0 23559
0.14650000 0.14650700 10575.93035238 0 58.96289774 0 4106.69205826 0 265.25082782 0 784.18744019 0 23044
0.14750000 0.14750500 10542.34799120 0 215.72099721 0 3821.18109049 0 307.21161719 0 304.79342145 0 23649
0.14850000 0.14849900 10438.30135488 0 148.69357169 0 3620.01909318 0 410.06797859 0 937.17707390 0 23640
0.14950000 0.14949500 10217.41954707 0 122.21632135 0 3552.92080478 0 333.27808427 0 736.15790959 0 24457
0.15050000 0.15050000 10292.52312632 0 184.30549000 0 3405.13848543 0 257.43376650 0 981.23385436 0 24591
0.15150000 0.15149900 9907.97021304 0 230.61991749 0 3187.12440975 0 120.25873432 0 880.28968345 0 25020
0.15250000 0.15250500 9760.58649738 0 194.70351024 0 2948.90334127 0 43.43794822 0 1034.62239017 0 25297
0.15350000 0.15350100 9662.08709579 0 173.93515058 0 3155.13646335 0 -133.66067628 0 794.77922611 0 25452
0.15450000 0.15450400 9502.50167818 0 174.91948025 0 3057.04673778 0 -43.37550031 0 420.72287676 0 26061
0.15550000 0.15549900 9478.15363591 0 60.34317375 0 3091.70311446 0 16.14610694 0 477.24598773 0 26128
0.15650000 0.15649500 9228.41734962 0 199.07264961 0 3070.53282941 0 -64.26189095 0 606.47551962 0 26331
0.15750000 0.15749700 9372.91118851 0 43.82271151 0 3294.10521215 0 380.43622291 0 555.30255600 0 27345
0.15850000 0.15849900 9298.89269709 0 -54.02929125 0 3142.18184331 0 193.81108086 0 489.25503123 0 26980
0.15950000 0.15949700 9133.36144105 0 124.99104595 0 3040.54897380 0 311.81659708 0 555.33245128 0 27777
0.16050000 0.16050000 9241.40518663 0 111.66882473 0 3118.89674422 0 36.82433788 0 648.98217460 0 28224
0.16150000 0.16150500 9064.41407441 0 163.37547440 0 3013.20033150 0 139.46921788 0 513.10481889 0 28075
0.16250000 0.16249700 9032.62542985 0 -25.91721215 0 2929.47141122 0 -10.77255270 0 18.94541210 0 28590
0.16350000 0.16349900 8955.77242329 0 147.07811950 0 2761.73676254 0 -25.59390026 0 72.94181855 0 29163
0.16450000 0.16449100 8817.71160512 0 201.68793273 0 2644.02687739 0 -209.13185671 0 -6.08230483 0 28996
0.16550000 0.16550500 8702.90266908 0 87.91315183 0 2556.53336668 0 229.59683467 0 179.67061483 0 30777
0.16650000 0.16650700 8610.00586385 0 73.73094314 0 2593.88031829 0 406.06201147 0 121.68374252 0 29211
0.16750000 0.16749900 8629.69245738 0 134.41359437 0 2507.93693305 0 179.82230568 0 107.90523080 0 30922
0.16850000 0.16850800 8373.25741458 0 139.13704814 0 2451.68952297 0 233.65705618 0 184.53025820 0 30867
0.16950000 0.16949900 8402.41084583 0 172.34848643 0 2457.89002487 0 121.24860016 0 804.18738051 0 30852
0.17050000 0.17049200 8166.92464158 0 87.24349762 0 2436.05540032 0 121.02051027 0 762.44582317 0 31257
0.17150000 0.17149500 8121.28451868 0 7.82071519 0 2269.23975461 0 382.85995481 0 630.86342226 0 32608
0.17250000 0.17250900 8162.42927771 0 82.25275793 0 2076.72524299 0 201.65360853 0 321.33879642 0 32361
0.17350000 0.17350400 8042.07310693 0 13.18437078 0 1902.59079056 0 27.76053279 0 261.38105030 0 32508
0.17450000 0.17449800 8035.97225595 0 42.52248840 0 1985.45606951 0 -157.33773567 0 83.35235051 0 32791
0.17550000 0.17549800 8112.21628465 0 14.09219069 0 2038.69180723 0 -200.53087479 0 118.90126730 0 33633
0.17650000 0.17650100 8158.94149539 0 0.99991951 0 2206.30466034 0 -295.15606992 0 -142.70012226 0 33984
0.17750000 0.17750300 8146.70657647 0 100.33751823 0 2275.00843584 0 -131.78059553 0 6.12294026 0 34069
0.17850000 0.17849800 8162.39606073 0 135.90614375 0 2441.96802178 0 -58.19159959 0 -39.55300161 0 34536
