### header ###
fiducial parameters:
Omega_m = 0.31
Omega_nu = 0
Omega_de = 0.69
Omega_k = 0
H_0 = 100
w_de = -1
zeff = 0
beta = 0
fgrowth = 0
b_1 = 2
gamma = 0.55
Lx = 3500 Ly = 3500 Lz = 3500
nx = 700 ny = 700 nz = 700
xoffset = -685.467585 yoffset = -31.7331281 zoffset = 572.489161
bins = 400 dk = 0.001
kx_ny = 0.628318531 ky_ny = 0.628318531 kz_ny = 0.628318531
############################
A(data) = 8.01453082 (not used)
A(ran) = 8.01178904 (used)
Ngal = 476085
weighted Ngal = 0
Nran = 23820508
weighted Nran = 0
SN(data) = 3490.01831
SN(ran) = 69.7855881
SN(data+ran) = 3559.8039
############################
13 columns: k_central k_mean P_0(k) sigma^{lin}_{P_0(k)} P^img_1(k) sigma^{lin}_{P_1(k)} P_2(k) sigma^{lin}_{P_2(k)} P^img_3(k) sigma^{lin}_{P_3(k)} P_4(k) sigma^{lin}_{P_4(k)} N_modes
### header ###
0.00050000 0 0 0 0 0 0 0 0 0 0 0 0
0.00150000 0.00179520 3214.17409928 0 -7715.40630780 0 2927.02442743 0 6841.16875710 0 15009.08990792 0 3
0.00250000 0.00253879 13956.55471066 0 -16071.14730452 0 9214.41085873 0 -32286.45627818 0 18247.52347087 0 6
0.00350000 0.00331552 20491.55154187 0 -8580.68634773 0 -3048.85321741 0 3187.16869905 0 -10369.66401333 0 7
0.00450000 0.00420575 37549.02154123 0 -9911.11475329 0 16534.52409818 0 -39252.60943783 0 1710.61882286 0 24
0.00550000 0.00557378 47701.23616745 0 -8544.11445886 0 31485.59502405 0 -26584.09827333 0 11640.33508184 0 45
0.00650000 0.00659388 57494.26457655 0 549.13084215 0 34060.79633037 0 -5560.51045160 0 -3285.94490875 0 40
0.00750000 0.00754703 65825.30321660 0 -224.21347035 0 55934.94907234 0 -1542.08696679 0 -7738.14886298 0 57
0.00850000 0.00846663 62837.43636429 0 12461.01579740 0 46548.82860033 0 1740.99020983 0 705.46653243 0 75
0.00950000 0.00948925 67189.30291101 0 2331.44407544 0 35092.51555697 0 13366.62124432 0 -1723.69523847 0 112
0.01050000 0.01054430 65988.17711468 0 -13433.83025597 0 34209.38692943 0 36294.74858578 0 -10994.61924307 0 105
0.01150000 0.01145670 81704.56713201 0 -9211.58741590 0 37368.21047695 0 4982.16970935 0 -10986.85754337 0 144
0.01250000 0.01249090 89039.31798487 0 -7053.35878992 0 18474.17395991 0 24125.93144034 0 -7840.71180778 0 169
0.01350000 0.01339930 86515.16009597 0 -10835.76459890 0 14550.03132093 0 4732.73237583 0 9967.49503127 0 180
0.01450000 0.01448870 98697.37475444 0 -1779.55511718 0 7696.26225819 0 11392.86862215 0 -16634.72863779 0 267
0.01550000 0.01550050 88834.81214547 0 2017.25578638 0 16332.89706323 0 -12848.99005905 0 11586.63430647 0 238
0.01650000 0.01653350 82337.46121864 0 15628.80792802 0 8423.92437295 0 705.27719567 0 -21623.58603133 0 315
0.01750000 0.01747870 71072.69939465 0 10076.97817907 0 -879.91433164 0 1265.54458212 0 9081.86405832 0 297
0.01850000 0.01844180 73240.32842440 0 -6064.94342569 0 1233.14695970 0 -2724.60018510 0 -16345.96240652 0 388
0.01950000 0.01947590 82645.38257185 0 -5451.66949863 0 -1059.91490175 0 2028.07344773 0 -15517.30961709 0 399
0.02050000 0.02045430 77817.73822767 0 -1207.53667240 0 5980.12941758 0 -14078.01811392 0 -9504.55005827 0 462
0.02150000 0.02154770 83425.98147157 0 3677.58410991 0 5239.86699718 0 3430.68233878 0 1323.54141952 0 571
0.02250000 0.02255340 74069.86699981 0 -176.33673783 0 17707.74763596 0 -1327.69354133 0 15660.80694674 0 510
0.02350000 0.02348930 80443.42933517 0 6507.51532101 0 12870.24892270 0 19399.26669851 0 9426.94413362 0 555
0.02450000 0.02439640 75734.25886655 0 781.44814703 0 21266.17138618 0 12345.19927980 0 10722.58329460 0 592
0.02550000 0.02547300 70911.48634529 0 4729.43282304 0 14594.98495970 0 6669.10482942 0 24465.18747278 0 837
0.02650000 0.02652900 68284.13438907 0 4940.11701969 0 17583.07325851 0 -1218.17717655 0 23875.69689944 0 723
0.02750000 0.02749970 66307.39223920 0 393.87802524 0 18162.04512327 0 4811.96593223 0 22662.72371556 0 826
0.02850000 0.02848090 62532.50453878 0 2192.28709712 0 15729.45536062 0 -2386.98285673 0 13231.87105128 0 831
0.02950000 0.02946900 62794.58646724 0 3394.07723293 0 17756.90875816 0 -7539.15704134 0 4536.63043097 0 996
0.03050000 0.03053250 57660.34944883 0 5123.55222496 0 20520.33958640 0 -6601.80723917 0 -120.20558716 0 1041
0.03150000 0.03150510 53856.89515038 0 3989.12611334 0 20985.48795203 0 -6850.93454759 0 -8923.67375364 0 1036
0.03250000 0.03246190 52693.52598168 0 2594.10176479 0 18354.03923563 0 -2029.94467063 0 -11412.68808357 0 1059
0.03350000 0.03345080 53165.31774220 0 -1531.23608847 0 22767.13573860 0 2352.16039517 0 -13228.54935383 0 1302
0.03450000 0.03451200 53922.22186681 0 -3872.16914628 0 17653.82541410 0 7263.11291129 0 -9509.12292843 0 1339
0.03550000 0.03553350 56923.37550890 0 -1533.53913203 0 12946.64796395 0 8968.45023521 0 -6578.97610539 0 1365
0.03650000 0.03647120 58419.57876165 0 656.69847776 0 9338.23266717 0 15034.44553175 0 -1085.61930382 0 1308
0.03750000 0.03744890 54546.25809359 0 500.24652807 0 5256.98481135 0 4905.11740093 0 -4915.41466302 0 1579
0.03850000 0.03847530 54555.33739994 0 3114.22422314 0 4713.15650555 0 2952.02573687 0 -829.14772235 0 1662
0.03950000 0.03950240 50220.52223344 0 4721.42753219 0 5483.05953949 0 -4651.06290797 0 1479.42868064 0 1683
0.04050000 0.04050350 46359.04895293 0 3960.27163486 0 8494.70974552 0 -7535.94606714 0 -83.44458298 0 1822
0.04150000 0.04152450 43962.55496919 0 1706.20096525 0 10427.94873118 0 -9071.24569882 0 1039.94817841 0 1887
0.04250000 0.04250150 43232.44587065 0 1867.70189506 0 16296.80128432 0 -3582.49498437 0 -4042.01860900 0 1920
0.04350000 0.04349210 42791.54589637 0 -239.64718391 0 15634.67626017 0 -2047.71575196 0 -4076.11029711 0 2005
0.04450000 0.04448520 43975.95248222 0 -481.48890260 0 19324.41778274 0 -1188.07152537 0 -3549.10085272 0 2151
0.04550000 0.04548030 44393.37912788 0 545.43379289 0 21012.17225484 0 711.82536857 0 -6595.01990406 0 2274
0.04650000 0.04648670 43266.99152408 0 -5.89445177 0 20368.53801313 0 2260.96872797 0 -8566.43626569 0 2311
0.04750000 0.04749250 43011.55299051 0 1494.99636934 0 18824.72376367 0 2858.77461725 0 -6052.90780861 0 2568
0.04850000 0.04851840 42823.21274535 0 1144.65693975 0 18324.80829811 0 2504.22770423 0 -4437.38918362 0 2493
0.04950000 0.04949480 42088.45327038 0 991.22552027 0 15539.78643647 0 5002.59814864 0 -3569.18604994 0 2644
0.05050000 0.05050630 40222.65581519 0 689.37955170 0 12315.74689578 0 3393.88900341 0 1007.30585761 0 2829
0.05150000 0.05149060 39467.63398581 0 930.02878100 0 13604.67622792 0 3962.97328212 0 831.85822746 0 2784
0.05250000 0.05249300 37783.20121115 0 1863.25082048 0 9920.20513197 0 4891.04447609 0 1705.69163831 0 3055
0.05350000 0.05348950 36512.20904522 0 2362.84518862 0 10849.95931931 0 1053.00244937 0 4979.06945840 0 3009
0.05450000 0.05448610 34776.62212989 0 398.90153901 0 11891.56613198 0 -641.80398642 0 2745.89226573 0 3336
0.05550000 0.05550870 34835.63762118 0 754.64869204 0 14130.83310330 0 -135.66587431 0 5848.32446294 0 3349
0.05650000 0.05647670 34289.10766813 0 171.06520398 0 14038.82208406 0 -483.49963679 0 4703.54572761 0 3324
0.05750000 0.05747970 33682.34426807 0 672.45107428 0 12570.41036661 0 556.70984849 0 5091.56427856 0 3639
0.05850000 0.05849280 33874.00621068 0 675.21804825 0 12762.73664871 0 1783.91761316 0 4600.45131122 0 3846
0.05950000 0.05951020 32776.51737465 0 603.28558284 0 11970.84397768 0 2459.24084850 0 2698.17054576 0 3787
0.06050000 0.06049470 32168.86818861 0 190.51263529 0 10483.14427040 0 2136.96976232 0 5426.09242830 0 3930
0.06150000 0.06148310 31471.20100178 0 396.96498940 0 10672.50316945 0 1641.23963554 0 3774.40051813 0 4083
0.06250000 0.06249100 32285.01687595 0 -791.09767811 0 11443.24770007 0 188.83517808 0 6389.65042332 0 4303
0.06350000 0.06350600 32398.17603560 0 255.89582058 0 12585.02583537 0 -72.74229525 0 6419.58998963 0 4470
0.06450000 0.06451750 32439.58653042 0 1693.14669429 0 13857.56812678 0 -1534.38062872 0 7098.55601983 0 4479
0.06550000 0.06550280 31346.96951732 0 749.70268454 0 15386.43473774 0 -2444.65859671 0 5762.94576626 0 4636
0.06650000 0.06648880 30835.76028044 0 460.91209416 0 15564.14555107 0 -1349.51709355 0 4950.66894524 0 4653
0.06750000 0.06749660 31204.80086665 0 -177.30113732 0 17280.68806771 0 -1128.92316618 0 2958.03800925 0 5220
0.06850000 0.06852730 31472.30823426 0 -368.33970804 0 15526.49964669 0 1434.30895701 0 803.00596345 0 5029
0.06950000 0.06949320 31598.86490694 0 119.00645438 0 15485.64276811 0 2371.08299829 0 -1253.73041154 0 5040
0.07050000 0.07048030 31258.39091877 0 647.77418396 0 12567.08866916 0 2564.56080217 0 -2794.01258939 0 5475
0.07150000 0.07148790 29805.36973282 0 720.56696901 0 11471.92502135 0 1125.12535877 0 -1197.21726567 0 5509
0.07250000 0.07249820 29286.74203831 0 998.00731923 0 9686.53478899 0 1400.58265561 0 -1659.59755009 0 5916
0.07350000 0.07351270 28725.59661650 0 719.53724280 0 10446.82704499 0 812.02215755 0 329.59321457 0 5721
0.07450000 0.07449140 27515.05934408 0 800.07069014 0 8509.26985265 0 1449.98736895 0 41.41802400 0 6028
0.07550000 0.07549160 27582.15763248 0 923.57140117 0 9869.67104149 0 1351.76477548 0 1064.18881913 0 6183
0.07650000 0.07648840 26627.28034012 0 516.24825190 0 9448.59052864 0 946.04822055 0 1268.74448399 0 6330
0.07750000 0.07749960 26035.13240882 0 806.91781581 0 9202.74062837 0 1141.35738696 0 754.79152503 0 6583
0.07850000 0.07848650 25727.10033237 0 414.96858955 0 8891.86296444 0 150.33116853 0 2467.91047883 0 6549
0.07950000 0.07947320 25202.93647545 0 93.79023112 0 7839.39420112 0 475.31829598 0 219.73914389 0 6828
0.08050000 0.08048110 25797.40959496 0 268.87369250 0 8145.84293513 0 -329.74158373 0 573.47224103 0 7147
0.08150000 0.08149960 24460.31564986 0 419.35101572 0 7399.54609770 0 -242.32225759 0 151.89125909 0 7386
0.08250000 0.08250610 24212.07412743 0 1287.42349596 0 7884.45856314 0 -261.66450181 0 -581.10771622 0 7227
0.08350000 0.08350160 23055.34835363 0 1017.58983290 0 7352.63265745 0 -122.25950342 0 -781.69727434 0 7798
0.08450000 0.08449610 22411.04977243 0 422.58302733 0 7681.50284921 0 260.01472541 0 -765.66897693 0 7371
0.08550000 0.08548940 21674.07583250 0 523.43419071 0 7414.05084322 0 1077.38370862 0 -1379.26843033 0 8256
0.08650000 0.08650700 21755.45741992 0 447.50904496 0 6940.35464282 0 1116.10141404 0 -1621.85199479 0 8037
0.08750000 0.08749060 21351.64973378 0 -58.25925150 0 6643.14022772 0 914.67146648 0 -346.83946771 0 8155
0.08850000 0.08849210 21723.01550820 0 -78.85532579 0 6591.54319406 0 507.14901537 0 156.60696223 0 8718
0.08950000 0.08949900 21498.02586788 0 439.91675183 0 5748.29708052 0 837.94689888 0 -891.65874658 0 8571
0.09050000 0.09049190 20805.00905748 0 596.79830773 0 6326.39423163 0 -354.48712246 0 -419.39751948 0 8932
0.09150000 0.09150830 20337.64622689 0 590.61552155 0 5127.33896004 0 428.83889085 0 6.74426377 0 9285
0.09250000 0.09250820 19439.23779110 0 145.42612863 0 4958.85139328 0 1007.11430639 0 -635.01443684 0 9204
0.09350000 0.09350330 19898.73927108 0 103.37731429 0 5513.68558994 0 145.92106155 0 -1162.59410596 0 9349
0.09450000 0.09448040 19605.21194014 0 232.49999824 0 5322.00150268 0 -329.14921435 0 -1178.82613414 0 9564
0.09550000 0.09549270 18954.15924080 0 622.28790669 0 5774.06238038 0 173.54097581 0 -1062.78263388 0 10155
0.09650000 0.09649430 18924.37468704 0 529.04785939 0 5836.73173885 0 72.55904828 0 -256.32653402 0 9913
0.09750000 0.09749140 18390.02429129 0 255.38317194 0 6066.17245374 0 269.84362816 0 490.10760024 0 10476
0.09850000 0.09850240 18383.27017315 0 227.58942218 0 5411.17800677 0 1122.56765174 0 689.00641435 0 10575
0.09950000 0.09950330 18045.56426618 0 270.46810728 0 5531.70026242 0 720.68322842 0 454.87324820 0 10882
0.10050000 0.10051200 17852.57364459 0 284.31294223 0 5196.24203739 0 -66.56316294 0 382.70494226 0 10875
0.10150000 0.10150300 17634.11667592 0 142.25390757 0 5698.85915021 0 -81.66681050 0 72.78780251 0 11118
0.10250000 0.10250800 17367.38437104 0 363.65057848 0 5372.22556806 0 -862.26283141 0 -51.90805526 0 11575
0.10350000 0.10349800 17033.77522425 0 280.13646131 0 5622.19437316 0 -211.70395776 0 39.31195710 0 11364
0.10450000 0.10450100 16970.66297279 0 434.39719791 0 5504.45127104 0 -70.27128452 0 -27.21444573 0 12093
0.10550000 0.10551000 16394.90208222 0 823.86511618 0 5925.23283113 0 -204.71399911 0 562.59036020 0 12067
0.10650000 0.10649700 16208.44413227 0 485.69195710 0 5676.43769245 0 603.53803184 0 408.10928433 0 12054
0.10750000 0.10749900 15563.14904184 0 -46.05245628 0 5966.25579458 0 324.68153128 0 729.97290895 0 12807
0.10850000 0.10850100 15630.57949999 0 -48.73616637 0 6204.28863353 0 638.62622919 0 191.23344364 0 12736
0.10950000 0.10950300 15879.26391541 0 178.99631025 0 6493.71920429 0 -74.32464119 0 360.66990864 0 12933
0.11050000 0.11050200 15625.37550732 0 56.00714063 0 5875.39629712 0 596.60786374 0 1124.20635581 0 13428
0.11150000 0.11150900 15608.10268060 0 -54.01235059 0 5419.13900831 0 452.96437940 0 1256.67564994 0 13453
0.11250000 0.11250000 15748.83192905 0 -294.93351619 0 5045.45911801 0 1058.99922049 0 824.46412895 0 13668
0.11350000 0.11349100 15778.17358982 0 61.17957717 0 4436.74698878 0 731.21411656 0 -176.97782544 0 13791
0.11450000 0.11448600 15478.00286399 0 586.22423752 0 4250.14509861 0 37.08653053 0 159.76368204 0 14205
0.11550000 0.11549300 15090.02860234 0 604.34852602 0 4328.22713323 0 -375.69394619 0 421.79578504 0 14776
0.11650000 0.11649800 14612.47923291 0 140.84329339 0 4881.09045608 0 -408.96296057 0 528.51306610 0 14553
0.11750000 0.11747300 14850.09132352 0 122.65478541 0 4900.82133890 0 -358.42554840 0 265.19989513 0 14568
0.11850000 0.11849100 14904.34571513 0 -43.40074521 0 5171.24072795 0 343.14574015 0 559.59197464 0 16015
0.11950000 0.11950300 14609.48970521 0 138.29333698 0 4989.78746882 0 232.50885610 0 1168.15241302 0 15270
0.12050000 0.12050700 14804.91623826 0 202.17622226 0 4706.88956971 0 802.33387333 0 369.02619218 0 15999
0.12150000 0.12150000 14378.85317924 0 209.97003170 0 4637.74290121 0 172.79470112 0 643.91215706 0 15670
0.12250000 0.12250700 14073.69990724 0 498.90013338 0 4091.73334743 0 417.71563334 0 114.14459656 0 16887
0.12350000 0.12352200 13634.01788869 0 223.21474665 0 3901.11220335 0 30.50746585 0 -389.90527509 0 16407
0.12450000 0.12449800 13404.15642545 0 72.54952608 0 3414.37280433 0 352.66793950 0 -410.00265187 0 16306
0.12550000 0.12549900 13371.71451373 0 140.46794158 0 3506.90422284 0 49.80032751 0 -577.67861723 0 17523
0.12650000 0.12650100 13137.64556707 0 425.09201613 0 3508.95260293 0 150.40646034 0 -622.42963245 0 17154
0.12750000 0.12750600 12967.68538110 0 152.40390773 0 3171.66744430 0 -48.74280976 0 -780.95099964 0 18007
0.12850000 0.12850300 12729.85184400 0 183.44074143 0 3992.66925728 0 -125.84693666 0 -629.06859841 0 17496
0.12950000 0.12949900 12697.63137878 0 157.10521685 0 4264.33981903 0 -369.56319994 0 -882.73556000 0 18405
0.13050000 0.13049000 12534.75748069 0 199.00843013 0 4575.53858038 0 -437.88940916 0 -477.14080064 0 18100
0.13150000 0.13148800 12547.26920774 0 260.93815730 0 4601.81320718 0 0.60872874 0 -627.48636319 0 19059
0.13250000 0.13249300 12494.67566485 0 116.14758012 0 4306.81325703 0 138.91670887 0 -251.32295043 0 18957
0.13350000 0.13349100 12312.53592158 0 247.36902324 0 4556.05128870 0 -108.60887704 0 -424.63140742 0 19468
0.13450000 0.13450700 12239.56930103 0 85.42708274 0 4395.13719211 0 155.13434303 0 -337.00945774 0 19953
0.13550000 0.13551000 12049.56820714 0 77.21673244 0 4455.58101330 0 461.81227416 0 -470.44315136 0 19956
0.13650000 0.13649900 12009.15422155 0 104.87706068 0 4106.12736970 0 220.30604692 0 -308.11733336 0 19723
0.13750000 0.13749600 12010.70434703 0 14.14201615 0 4148.51222910 0 332.98134597 0 -32.00200825 0 20946
0.13850000 0.13851100 12081.89939561 0 10.83875413 0 4241.53082990 0 196.55258848 0 -346.81400136 0 20955
0.13950000 0.13949800 11913.04644213 0 364.04253878 0 4238.93990590 0 -208.30807574 0 47.84052601 0 20506
0.14050000 0.14048300 11751.50122302 0 208.72439516 0 4036.31636171 0 -291.67050207 0 -70.13210540 0 21447
0.14150000 0.14148400 11548.87767884 0 30.65594573 0 4587.06487052 0 244.85117657 0 142.83409739 0 21771
0.14250000 0.14249400 11558.73204793 0 156.07438341 0 4357.63522795 0 402.03057800 0 135.78877711 0 22470
0.14350000 0.14350900 11390.54343393 0 255.67769578 0 3921.56278729 0 476.67354854 0 171.83915949 0 22519
0.14450000 0.14449900 11262.10446604 0 -2.40229588 0 3525.42822226 0 716.16350543 0 401.00860242 0 22218
0.14550000 0.14550500 11017.17356872 0 11.06291334 0 3314.69973631 0 798.24597101 0 614.86502013 0 23559
0.14650000 0.14650700 11138.98021405 0 96.98171802 0 3080.09931805 0 587.21078166 0 845.62666337 0 23044
0.14750000 0.14750500 10876.51075423 0 107.31341504 0 2584.64599939 0 609.16498731 0 888.57288965 0 23649
0.14850000 0.14849900 10890.86048719 0 94.33388227 0 2253.46169174 0 248.31792148 0 1202.88629597 0 23640
0.14950000 0.14949500 10666.51304172 0 44.83140030 0 2179.06674128 0 270.88553392 0 979.75791346 0 24457
0.15050000 0.15050000 10633.94933443 0 187.92835468 0 2094.16415457 0 -70.44512002 0 920.73688601 0 24591
0.15150000 0.15149900 10353.73093792 0 630.55782610 0 2505.32386439 0 -132.93654624 0 727.21368560 0 25020
0.15250000 0.15250500 9836.23262054 0 646.88839797 0 2657.54618600 0 -939.61852153 0 456.28939854 0 25297
0.15350000 0.15350100 9400.58092823 0 319.01028651 0 2921.26681853 0 -328.67531885 0 692.12880995 0 25452
0.15450000 0.15450400 9226.66792230 0 -39.10412956 0 3193.80102161 0 -393.12510715 0 235.33229893 0 26061
0.15550000 0.15549900 9522.11076544 0 21.38431309 0 3499.23110174 0 -33.60970982 0 96.77466555 0 26128
0.15650000 0.15649500 9315.50118432 0 -41.59983158 0 3512.50681919 0 125.88458256 0 -286.67356188 0 26331
0.15750000 0.15749700 9329.08692687 0 177.28120714 0 3261.88474692 0 148.29607523 0 -217.65865405 0 27345
0.15850000 0.15849900 9178.74690049 0 97.49370232 0 3278.11677511 0 43.09991014 0 -321.20814299 0 26980
0.15950000 0.15949700 9220.36776948 0 109.36766346 0 3095.35698165 0 341.20476161 0 -315.78602553 0 27777
0.16050000 0.16050000 9044.30673254 0 184.67087672 0 2865.25192727 0 146.10264768 0 -311.23972895 0 28224
0.16150000 0.16150500 8983.92934530 0 90.66539961 0 2789.93797385 0 -52.76483175 0 -191.28769803 0 28075
0.16250000 0.16249700 8929.78567694 0 40.04848815 0 2742.79201478 0 244.71720144 0 -98.47482103 0 28590
0.16350000 0.16349900 8936.32942091 0 15.34070604 0 2645.75416007 0 226.47886800 0 -453.04410014 0 29163
0.16450000 0.16449100 8917.16322665 0 -22.45766426 0 2595.50795004 0 169.11536758 0 -223.41404849 0 28996
0.16550000 0.16550500 8806.80536518 0 185.19349045 0 2518.47778627 0 352.10435816 0 -244.39610402 0 30777
0.16650000 0.16650700 8679.11931537 0 182.56934947 0 2377.75961015 0 37.49941753 0 10.34090919 0 29211
0.16750000 0.16749900 8515.73609035 0 100.93254497 0 2242.43365622 0 344.42570090 0 -57.82588070 0 30922
0.16850000 0.16850800 8494.52151599 0 76.59092464 0 2188.33427716 0 147.68377566 0 -90.66241008 0 30867
0.16950000 0.16949900 8391.63747378 0 44.98995599 0 2226.38985756 0 122.02255566 0 -107.03262088 0 30852
0.17050000 0.17049200 8353.72583360 0 134.85205843 0 2275.15237606 0 -126.92427386 0 59.75002931 0 31257
0.17150000 0.17149500 8214.02631136 0 203.07529503 0 2192.48639896 0 -47.36120507 0 373.12627406 0 32608
0.17250000 0.17250900 8252.74623125 0 90.12551305 0 2273.42509339 0 152.58881556 0 346.56265959 0 32361
0.17350000 0.17350400 8041.78522648 0 20.78585394 0 2330.96796547 0 175.43766505 0 390.96046765 0 32508
0.17450000 0.17449800 8121.71633935 0 -27.22895047 0 2226.64452103 0 -10.43988470 0 409.33388345 0 32791
0.17550000 0.17549800 8226.39409818 0 25.44785630 0 2182.54345128 0 115.77112107 0 569.78072794 0 33633
0.17650000 0.17650100 8065.81217134 0 93.60775921 0 2159.72338983 0 108.18890376 0 338.64373288 0 33984
0.17750000 0.17750300 8115.28331863 0 108.02913011 0 2100.74111552 0 33.90644812 0 108.05548224 0 34069
0.17850000 0.17849800 7958.96423684 0 272.59842257 0 2076.96883413 0 -156.04780983 0 282.46607845 0 34536
