### header ###
fiducial parameters:
Omega_m = 0.31
Omega_nu = 0
Omega_de = 0.69
Omega_k = 0
H_0 = 100
w_de = -1
zeff = 0
beta = 0
fgrowth = 0
b_1 = 2
gamma = 0.55
Lx = 3500 Ly = 3500 Lz = 3500
nx = 700 ny = 700 nz = 700
xoffset = -685.467585 yoffset = -31.7331281 zoffset = 572.489161
bins = 400 dk = 0.001
kx_ny = 0.628318531 ky_ny = 0.628318531 kz_ny = 0.628318531
############################
A(data) = 8.07281443 (not used)
A(ran) = 8.06656567 (used)
Ngal = 479449
weighted Ngal = 0
Nran = 23820508
weighted Nran = 0
SN(data) = 3491.44736
SN(ran) = 70.2627125
SN(data+ran) = 3561.71007
############################
13 columns: k_central k_mean P_0(k) sigma^{lin}_{P_0(k)} P^img_1(k) sigma^{lin}_{P_1(k)} P_2(k) sigma^{lin}_{P_2(k)} P^img_3(k) sigma^{lin}_{P_3(k)} P_4(k) sigma^{lin}_{P_4(k)} N_modes
### header ###
0.00050000 0 0 0 0 0 0 0 0 0 0 0 0
0.00150000 0.00179520 28407.93161746 0 -15701.99599507 0 48637.06906112 0 -58628.40280773 0 -48564.43461031 0 3
0.00250000 0.00253879 34586.51031276 0 4790.44133279 0 43911.29010528 0 10343.46689281 0 7465.71431082 0 6
0.00350000 0.00331552 46082.68372546 0 6792.42838325 0 44954.41382644 0 31822.96876127 0 -19143.49599520 0 7
0.00450000 0.00420575 41847.51948233 0 5674.89863930 0 62912.28528006 0 55577.09153420 0 19988.53582536 0 24
0.00550000 0.00557378 82759.31679423 0 -13506.46470678 0 79259.46564231 0 59552.27759059 0 -39837.44963475 0 45
0.00650000 0.00659388 73384.37937029 0 -7154.08372880 0 91723.91386040 0 41151.07025124 0 57527.37082776 0 40
0.00750000 0.00754703 109686.32496720 0 10583.86920927 0 88426.79697591 0 46637.73936862 0 5712.96529203 0 57
0.00850000 0.00846663 82923.85154104 0 18787.18858253 0 87244.38340852 0 33154.41582071 0 51308.82103986 0 75
0.00950000 0.00948925 84620.57459625 0 19594.58250831 0 83804.65498036 0 45914.49511147 0 22249.28310683 0 112
0.01050000 0.01054430 63796.18897033 0 11889.46239026 0 64615.65173016 0 31733.39365349 0 15587.84032619 0 105
0.01150000 0.01145670 61778.36849538 0 5739.73817344 0 55778.27567616 0 30383.89870459 0 4223.93690577 0 144
0.01250000 0.01249090 61163.52229820 0 -9139.62837690 0 38636.21311518 0 30657.27440436 0 14149.98822524 0 169
0.01350000 0.01339930 77392.45023139 0 -19509.21488396 0 25220.54147191 0 13450.66018969 0 -8493.28141561 0 180
0.01450000 0.01448870 78676.50774061 0 -11505.25271906 0 4349.26455039 0 11377.36736740 0 -36928.97135139 0 267
0.01550000 0.01550050 97243.46778250 0 -10403.50103798 0 -17751.59404225 0 -11002.12627930 0 -42801.51098870 0 238
0.01650000 0.01653350 90347.07026920 0 -4312.00617737 0 -7838.08766679 0 -16518.46922719 0 -33069.93398235 0 315
0.01750000 0.01747870 103855.08510146 0 -2711.73414366 0 -2952.53506382 0 -11582.75899279 0 -41555.09938387 0 297
0.01850000 0.01844180 92709.68293901 0 5244.10769758 0 2959.45526683 0 -15451.09711468 0 -37140.34203218 0 388
0.01950000 0.01947590 92680.00910849 0 10667.54276793 0 4089.54102712 0 -7181.84204712 0 -22478.48023057 0 399
0.02050000 0.02045430 81980.71091299 0 12310.43217987 0 5853.51738328 0 -769.52878936 0 -13526.17344495 0 462
0.02150000 0.02154770 75640.47627533 0 8577.04355287 0 5822.70310330 0 1780.62913269 0 -11731.57103835 0 571
0.02250000 0.02255340 72305.60276321 0 1222.56181718 0 5469.62880949 0 3808.66936344 0 -10343.75477325 0 510
0.02350000 0.02348930 64061.37114974 0 2032.32522046 0 4204.70427756 0 12239.68002428 0 -14861.05292509 0 555
0.02450000 0.02439640 69374.64766046 0 -2787.52420704 0 91.05625267 0 2371.07192596 0 -16576.04531625 0 592
0.02550000 0.02547300 63978.99305309 0 4245.32863732 0 5434.83956491 0 -12039.82456130 0 -21194.64416785 0 837
0.02650000 0.02652900 59862.63485526 0 11833.65787318 0 9642.34514064 0 -15804.52572289 0 -10317.46907414 0 723
0.02750000 0.02749970 52126.29078122 0 4795.54567453 0 11671.66976108 0 -6925.25199177 0 -5918.45656834 0 826
0.02850000 0.02848090 54619.99977688 0 -4551.16839346 0 13667.23486314 0 353.78956600 0 -8601.07049772 0 831
0.02950000 0.02946900 57644.40530109 0 -5801.52174593 0 21192.54042614 0 3584.64301539 0 -17798.65142273 0 996
0.03050000 0.03053250 62256.36075780 0 -719.97127794 0 21910.13779763 0 881.48660176 0 -13599.69368175 0 1041
0.03150000 0.03150510 62840.20444549 0 665.45668669 0 17887.78363752 0 1595.53307869 0 -5556.76800581 0 1036
0.03250000 0.03246190 61199.06446087 0 2276.53641666 0 28501.82493192 0 8533.87255840 0 3375.54216119 0 1059
0.03350000 0.03345080 59089.45441317 0 3796.43444452 0 20295.12849959 0 5038.48355337 0 4626.84773359 0 1302
0.03450000 0.03451200 56082.43243893 0 3210.64202766 0 24208.53098349 0 6420.69722211 0 4526.12279472 0 1339
0.03550000 0.03553350 54174.33870293 0 2565.64589000 0 22837.44500120 0 3651.24304917 0 10471.47404004 0 1365
0.03650000 0.03647120 50198.48830705 0 3098.22471378 0 20365.32703894 0 3946.07691444 0 12685.45182147 0 1308
0.03750000 0.03744890 47904.63477437 0 2294.67288472 0 20906.43155282 0 -76.53146625 0 17766.20951101 0 1579
0.03850000 0.03847530 47309.05442237 0 2844.84563263 0 19366.71406354 0 1693.25741754 0 10448.64290626 0 1662
0.03950000 0.03950240 45349.47437597 0 823.96698156 0 18482.25675703 0 -172.10157359 0 10814.42822897 0 1683
0.04050000 0.04050350 45183.61095019 0 -776.44345621 0 18915.95972018 0 -1067.53376846 0 1448.74726857 0 1822
0.04150000 0.04152450 46176.24487018 0 430.41891161 0 16426.45820795 0 -1967.78463909 0 -4193.17798742 0 1887
0.04250000 0.04250150 44527.79715118 0 360.82492119 0 18760.39355647 0 642.42292937 0 -1834.57349920 0 1920
0.04350000 0.04349210 44563.11786735 0 2808.30696073 0 20106.01319168 0 -968.20504974 0 -4339.21087945 0 2005
0.04450000 0.04448520 40950.66117202 0 2706.24227055 0 16136.25257445 0 5329.74105773 0 -3654.83048241 0 2151
0.04550000 0.04548030 39074.45573150 0 1227.36720615 0 16035.93731160 0 6296.49895462 0 -624.76367852 0 2274
0.04650000 0.04648670 38575.53677517 0 -229.41081961 0 12593.55152548 0 1588.59073103 0 1053.44312790 0 2311
0.04750000 0.04749250 38407.90177742 0 516.13974312 0 15767.43343475 0 2972.74205661 0 3434.29191667 0 2568
0.04850000 0.04851840 38944.57736138 0 -817.48192092 0 14144.89495582 0 -174.45887154 0 7532.59115272 0 2493
0.04950000 0.04949480 39458.55467946 0 434.06502817 0 13891.22799423 0 -239.07253025 0 4440.42300062 0 2644
0.05050000 0.05050630 39375.95513631 0 602.49944777 0 15484.64625888 0 -3114.84427333 0 3362.04499723 0 2829
0.05150000 0.05149060 38132.86522892 0 2726.27210615 0 16738.58704459 0 -2094.81742174 0 -1740.63589544 0 2784
0.05250000 0.05249300 36023.03373473 0 2736.94582727 0 16876.21604208 0 -647.09766491 0 -15.05769741 0 3055
0.05350000 0.05348950 34574.66292520 0 681.04319834 0 17220.01172770 0 12.53265374 0 -401.65411896 0 3009
0.05450000 0.05448610 34674.86746481 0 -1392.34484594 0 15080.94929599 0 3684.43787898 0 -2097.85123874 0 3336
0.05550000 0.05550870 34910.81870670 0 -1353.97924045 0 14113.44955334 0 3317.06921382 0 -1349.26243008 0 3349
0.05650000 0.05647670 36001.44270133 0 877.89695406 0 13955.22603168 0 3004.88501556 0 -1657.47166373 0 3324
0.05750000 0.05747970 35277.97699768 0 75.86048337 0 12123.86350667 0 2376.61916070 0 3029.88632500 0 3639
0.05850000 0.05849280 35210.43581629 0 390.02707067 0 13724.47878246 0 -465.01549773 0 4678.98731116 0 3846
0.05950000 0.05951020 34667.67045368 0 1449.53340363 0 15120.36677234 0 1091.14439390 0 5397.29331145 0 3787
0.06050000 0.06049470 33089.53199728 0 1812.41777724 0 15782.38107325 0 -1180.16588545 0 5281.88646986 0 3930
0.06150000 0.06148310 32356.54409428 0 1579.07960401 0 14907.55668933 0 1117.96156461 0 6884.20688367 0 4083
0.06250000 0.06249100 32507.68132806 0 -907.58407136 0 16616.34857859 0 2126.65035559 0 5726.58425155 0 4303
0.06350000 0.06350600 31799.49543266 0 -1561.48567987 0 13172.63411350 0 3154.72678733 0 5084.88766669 0 4470
0.06450000 0.06451750 33798.38223217 0 -789.65273972 0 12629.75802764 0 1497.26619593 0 1860.70418577 0 4479
0.06550000 0.06550280 32780.83558133 0 1470.32722964 0 10909.62807776 0 1498.06340331 0 1738.24427328 0 4636
0.06650000 0.06648880 31633.85345337 0 1552.55031375 0 9802.87170586 0 -268.40865486 0 -318.39023632 0 4653
0.06750000 0.06749660 29488.25835001 0 1736.26232714 0 7926.41160187 0 -373.97330691 0 2095.88036492 0 5220
0.06850000 0.06852730 29058.54142380 0 959.02498524 0 10567.81433828 0 -847.84112834 0 -450.61261761 0 5029
0.06950000 0.06949320 29080.24318044 0 -106.89853502 0 9625.91381061 0 -691.20537806 0 -572.34618560 0 5040
0.07050000 0.07048030 28845.28844779 0 -67.61813405 0 9873.84530795 0 1279.27426490 0 -1202.05587161 0 5475
0.07150000 0.07148790 29465.22791439 0 -701.61557785 0 10576.84935534 0 22.11043615 0 -201.65582299 0 5509
0.07250000 0.07249820 29504.42394425 0 377.72903949 0 10010.44457924 0 1521.81354005 0 -1060.70657298 0 5916
0.07350000 0.07351270 28962.87653737 0 978.45137913 0 8818.32058299 0 962.58584490 0 -24.34217394 0 5721
0.07450000 0.07449140 27999.25210840 0 812.78946966 0 8567.72065537 0 2093.99806970 0 518.72180927 0 6028
0.07550000 0.07549160 27466.34111488 0 686.19072215 0 7011.57183606 0 1261.80213633 0 -41.38480703 0 6183
0.07650000 0.07648840 26504.70970438 0 816.16985043 0 6416.99906562 0 571.23673865 0 10.32705771 0 6330
0.07750000 0.07749960 25928.61664407 0 853.67735075 0 7452.35001476 0 -948.87387784 0 -318.18761278 0 6583
0.07850000 0.07848650 25191.64270414 0 806.28447883 0 7356.26437999 0 -1338.82122777 0 20.43585775 0 6549
0.07950000 0.07947320 24764.25096614 0 330.73698573 0 7436.80447072 0 -936.61681427 0 -554.34479991 0 6828
0.08050000 0.08048110 24576.79650696 0 470.49629852 0 8312.53678527 0 -245.85100751 0 -869.40337369 0 7147
0.08150000 0.08149960 24717.63647865 0 325.07570605 0 9366.09063642 0 -329.39944889 0 -1286.89202437 0 7386
0.08250000 0.08250610 24283.26917601 0 33.73405202 0 9060.67162862 0 356.19779665 0 -414.82797103 0 7227
0.08350000 0.08350160 24829.24551282 0 108.04983536 0 9600.15958308 0 317.64617609 0 -355.33083362 0 7798
0.08450000 0.08449610 23692.33920044 0 401.40831335 0 9717.28263502 0 1124.50530858 0 -1130.09683262 0 7371
0.08550000 0.08548940 23654.02895657 0 1146.45065637 0 9542.55027705 0 1178.51610905 0 -351.52638281 0 8256
0.08650000 0.08650700 21943.90838833 0 868.72685464 0 8067.57267099 0 1003.55344673 0 -169.37445998 0 8037
0.08750000 0.08749060 21673.19004651 0 678.13449861 0 7872.47830768 0 1354.54392901 0 -627.58490688 0 8155
0.08850000 0.08849210 21355.52504747 0 -184.27670196 0 7795.83567529 0 800.18362785 0 -109.88363380 0 8718
0.08950000 0.08949900 21016.60118477 0 189.20610097 0 7021.73623024 0 142.79977319 0 -371.46874704 0 8571
0.09050000 0.09049190 21011.17574561 0 332.67685704 0 7297.66963705 0 -210.74620167 0 -6.18349481 0 8932
0.09150000 0.09150830 20759.83397222 0 167.07805982 0 7152.45609705 0 912.93532595 0 1451.74786860 0 9285
0.09250000 0.09250820 20690.85338860 0 395.16684385 0 6801.06479661 0 750.63054536 0 1822.07284448 0 9204
0.09350000 0.09350330 20478.92909158 0 543.85820107 0 6629.28874937 0 1526.48606112 0 1555.51769680 0 9349
0.09450000 0.09448040 19994.73632726 0 505.17592708 0 6532.17338838 0 310.99170888 0 2092.48116120 0 9564
0.09550000 0.09549270 18956.92732200 0 951.57773956 0 6383.47206607 0 353.32452836 0 2065.33182075 0 10155
0.09650000 0.09649430 18708.46435307 0 493.49462440 0 5420.56733822 0 -16.02530788 0 1823.31294486 0 9913
0.09750000 0.09749140 18227.03966996 0 -183.64890114 0 5689.17086599 0 572.35947239 0 1420.19174286 0 10476
0.09850000 0.09850240 18143.99723382 0 249.45062030 0 5436.63328153 0 -322.71730086 0 711.09570236 0 10575
0.09950000 0.09950330 17655.70770932 0 757.04474313 0 5481.84158376 0 -405.41649493 0 7.65701087 0 10882
0.10050000 0.10051200 17103.86304036 0 650.96522797 0 5392.18896971 0 152.10163327 0 873.03177453 0 10875
0.10150000 0.10150300 16598.07924264 0 444.38332767 0 5756.49060089 0 368.80363845 0 103.00273754 0 11118
0.10250000 0.10250800 16513.92957402 0 -224.51242312 0 5968.68063371 0 203.93893637 0 96.37340450 0 11575
0.10350000 0.10349800 16701.05186345 0 -329.13592756 0 6165.29190552 0 -31.21742332 0 833.63533560 0 11364
0.10450000 0.10450100 17008.86249341 0 284.51556577 0 6734.24331632 0 -531.52695292 0 120.64958739 0 12093
0.10550000 0.10551000 16802.03146580 0 315.76941704 0 6806.68953761 0 -683.49350382 0 898.14491445 0 12067
0.10650000 0.10649700 16489.34901292 0 460.89770013 0 7246.50442406 0 -437.87390791 0 436.98922915 0 12054
0.10750000 0.10749900 16655.87677819 0 286.33364151 0 7500.95752072 0 -20.18440525 0 705.54957486 0 12807
0.10850000 0.10850100 16266.02022133 0 -0.08644574 0 7482.62175082 0 463.76764673 0 735.83681217 0 12736
0.10950000 0.10950300 16326.58583809 0 347.54366757 0 7291.18125470 0 472.51256887 0 782.48451663 0 12933
0.11050000 0.11050200 16130.16279580 0 139.80803102 0 7098.33457334 0 789.05261971 0 729.27978141 0 13428
0.11150000 0.11150900 15803.63993690 0 351.64374945 0 6436.40885103 0 796.55522701 0 1100.10965531 0 13453
0.11250000 0.11250000 15397.39633931 0 432.20487760 0 6185.50997064 0 687.34224393 0 79.40119140 0 13668
0.11350000 0.11349100 15027.69141361 0 126.81133615 0 5641.17233790 0 655.73850720 0 636.17813818 0 13791
0.11450000 0.11448600 14935.23750138 0 69.00461057 0 5498.12897357 0 737.90844414 0 495.03699925 0 14205
0.11550000 0.11549300 14904.12426864 0 -239.05481453 0 4603.67335775 0 625.26304037 0 580.40462360 0 14776
0.11650000 0.11649800 15065.11587150 0 -60.63625819 0 4790.00951212 0 447.25438149 0 371.43442283 0 14553
0.11750000 0.11747300 14841.12274042 0 344.17325190 0 5164.44232051 0 -157.86588557 0 636.95873707 0 14568
0.11850000 0.11849100 14588.23084156 0 556.14626715 0 4731.69157730 0 -143.64348434 0 1282.34129887 0 16015
0.11950000 0.11950300 14224.17280152 0 281.80063173 0 4733.59601717 0 629.85362624 0 1915.66720617 0 15270
0.12050000 0.12050700 14254.62169477 0 -83.62162945 0 4512.51490751 0 430.08231293 0 1051.31834876 0 15999
0.12150000 0.12150000 14118.43209950 0 123.89599302 0 3775.02056832 0 500.00293693 0 752.83172353 0 15670
0.12250000 0.12250700 13895.98909390 0 359.00352376 0 3963.72620020 0 -37.00514895 0 272.60285150 0 16887
0.12350000 0.12352200 13792.79502659 0 273.62039815 0 3674.19597852 0 -365.17302315 0 558.05070702 0 16407
0.12450000 0.12449800 13497.16395393 0 397.57507450 0 4061.31767115 0 -448.18888571 0 -216.17717699 0 16306
0.12550000 0.12549900 13328.20027720 0 247.69122789 0 4428.45381749 0 -454.20226532 0 -112.44167300 0 17523
0.12650000 0.12650100 13008.87442943 0 81.12935986 0 4628.56394394 0 -79.50206028 0 -146.68505196 0 17154
0.12750000 0.12750600 13200.75781853 0 138.16268355 0 5023.92344624 0 -21.78302751 0 407.85904979 0 18007
0.12850000 0.12850300 13277.71047602 0 104.51621362 0 4672.12246978 0 241.85611271 0 363.06263804 0 17496
0.12950000 0.12949900 12906.34470161 0 130.40541278 0 4894.72048793 0 -39.71808997 0 728.43607026 0 18405
0.13050000 0.13049000 12922.73174234 0 280.57603260 0 4968.14107380 0 101.58758370 0 491.01220918 0 18100
0.13150000 0.13148800 12400.89307364 0 428.53550915 0 5142.20909228 0 331.51758463 0 477.86160899 0 19059
0.13250000 0.13249300 12285.74089552 0 373.84486794 0 4954.23423383 0 261.79183355 0 644.66950408 0 18957
0.13350000 0.13349100 11821.14614613 0 139.04182614 0 4789.83235492 0 344.73129707 0 932.28089187 0 19468
0.13450000 0.13450700 11938.73423571 0 -82.01414933 0 5011.26777897 0 210.21030115 0 346.25817066 0 19953
0.13550000 0.13551000 11904.18858227 0 38.76487353 0 4849.39039012 0 253.18642270 0 878.13168734 0 19956
0.13650000 0.13649900 11867.53918712 0 259.97154335 0 4732.97596698 0 68.78094960 0 468.46452691 0 19723
0.13750000 0.13749600 11640.11363535 0 57.35475328 0 4674.18192219 0 44.48550087 0 1073.43199589 0 20946
0.13850000 0.13851100 11570.91160523 0 209.65668491 0 4001.70427433 0 855.47106737 0 616.05308058 0 20955
0.13950000 0.13949800 11431.95392876 0 34.55351478 0 4083.30730824 0 219.64613636 0 273.89942074 0 20506
0.14050000 0.14048300 11401.17286576 0 34.35919548 0 3484.08416138 0 336.13474408 0 -38.16331412 0 21447
0.14150000 0.14148400 11188.91639899 0 67.86216809 0 3552.01287415 0 135.26062722 0 -350.30178368 0 21771
0.14250000 0.14249400 11131.11886343 0 304.21876779 0 2911.61175129 0 -203.16830256 0 -667.27365520 0 22470
0.14350000 0.14350900 10916.51506380 0 257.67625041 0 3315.48587137 0 -571.67077378 0 -609.66213470 0 22519
0.14450000 0.14449900 10712.98358898 0 350.66384870 0 3465.29442617 0 -181.50308459 0 -530.88475808 0 22218
0.14550000 0.14550500 10633.89397280 0 62.32246254 0 3798.70427111 0 -105.63186107 0 93.37623689 0 23559
0.14650000 0.14650700 10649.56131242 0 -81.63713667 0 3778.95124363 0 613.12666514 0 -27.44652165 0 23044
0.14750000 0.14750500 10793.46831809 0 -143.28806271 0 3759.69647077 0 642.89571764 0 326.15415049 0 23649
0.14850000 0.14849900 10817.97137291 0 171.40512436 0 3656.51347578 0 324.16777541 0 353.20826895 0 23640
0.14950000 0.14949500 10604.91769875 0 251.96846697 0 3375.85218628 0 89.10099083 0 652.78662540 0 24457
0.15050000 0.15050000 10434.68070467 0 359.44863122 0 3755.72150616 0 97.06487118 0 1054.42081418 0 24591
0.15150000 0.15149900 10165.03637836 0 226.35375073 0 3507.86751509 0 134.20322020 0 697.98385531 0 25020
0.15250000 0.15250500 9976.46361437 0 -15.44522878 0 3374.57886893 0 108.23120004 0 884.77729670 0 25297
0.15350000 0.15350100 9930.84563612 0 103.48892332 0 3181.73218756 0 383.63501755 0 490.03009396 0 25452
0.15450000 0.15450400 9946.11437204 0 121.64498939 0 3168.33467453 0 113.05729426 0 472.39852392 0 26061
0.15550000 0.15549900 9760.08824276 0 169.94911364 0 3088.08246425 0 155.30485684 0 586.85314557 0 26128
0.15650000 0.15649500 9484.92989870 0 273.44988435 0 2934.52039134 0 -118.60231453 0 584.71729412 0 26331
0.15750000 0.15749700 9397.05992894 0 221.53618220 0 2872.43786608 0 139.93868445 0 635.11519499 0 27345
0.15850000 0.15849900 9275.45258545 0 95.68437372 0 3010.69798609 0 211.87004264 0 311.70144490 0 26980
0.15950000 0.15949700 9146.88074966 0 22.55321842 0 2762.29037878 0 267.66016570 0 155.50637315 0 27777
0.16050000 0.16050000 9164.48574612 0 6.88077446 0 2760.33057729 0 -242.08198814 0 -217.97200084 0 28224
0.16150000 0.16150500 8966.64544626 0 188.31810052 0 2933.61246070 0 -61.28974680 0 111.66993196 0 28075
0.16250000 0.16249700 9070.35991284 0 155.22402887 0 2972.73098428 0 -37.55322902 0 68.47059234 0 28590
0.16350000 0.16349900 8852.77765783 0 94.79327302 0 3056.80314663 0 41.65607899 0 159.97294898 0 29163
0.16450000 0.16449100 8792.18989642 0 242.67989368 0 3191.65299060 0 -9.27585119 0 -21.97491090 0 28996
0.16550000 0.16550500 8728.82298148 0 52.58324563 0 3132.27211260 0 -16.93811034 0 493.28203576 0 30777
0.16650000 0.16650700 8731.00422947 0 -26.34006423 0 3152.66733491 0 165.19465736 0 333.96124672 0 29211
0.16750000 0.16749900 8672.28769096 0 5.22310350 0 3099.32087394 0 215.19395455 0 214.51189934 0 30922
0.16850000 0.16850800 8667.95841195 0 148.35918748 0 3046.87127127 0 243.91224343 0 207.00929204 0 30867
0.16950000 0.16949900 8509.71274564 0 95.76021915 0 2734.62063906 0 61.66830959 0 57.95066581 0 30852
0.17050000 0.17049200 8439.72458047 0 61.98243144 0 2502.75508503 0 298.24081962 0 -170.40640066 0 31257
0.17150000 0.17149500 8325.89000901 0 97.16452211 0 2406.74695653 0 173.94068674 0 -0.75194926 0 32608
0.17250000 0.17250900 8260.44149700 0 140.94515878 0 2317.41543989 0 95.80185109 0 -304.72588026 0 32361
0.17350000 0.17350400 8126.90925969 0 235.56924668 0 2297.92814821 0 -72.98965099 0 -202.84831238 0 32508
0.17450000 0.17449800 7958.17810178 0 168.07235458 0 2134.45634459 0 33.80181465 0 87.06833344 0 32791
0.17550000 0.17549800 7900.49128947 0 33.29558796 0 2293.55457991 0 244.25437827 0 57.63277936 0 33633
0.17650000 0.17650100 7864.39551056 0 13.81837210 0 2055.21171586 0 151.87022168 0 -197.06302266 0 33984
0.17750000 0.17750300 7839.16168230 0 126.06173976 0 2131.67719106 0 101.24921346 0 -169.79188663 0 34069
0.17850000 0.17849800 7773.21491568 0 1.51151628 0 2089.31447630 0 -31.03472996 0 -30.92677479 0 34536
