### header ###
fiducial parameters:
Omega_m = 0.31
Omega_nu = 0
Omega_de = 0.69
Omega_k = 0
H_0 = 100
w_de = -1
zeff = 0
beta = 0
fgrowth = 0
b_1 = 2
gamma = 0.55
Lx = 3500 Ly = 3500 Lz = 3500
nx = 700 ny = 700 nz = 700
xoffset = -685.467585 yoffset = -31.7331281 zoffset = 572.489161
bins = 400 dk = 0.001
kx_ny = 0.628318531 ky_ny = 0.628318531 kz_ny = 0.628318531
############################
A(data) = 8.03870162 (not used)
A(ran) = 8.0380883 (used)
Ngal = 477436
weighted Ngal = 0
Nran = 23820508
weighted Nran = 0
SN(data) = 3486.87636
SN(ran) = 70.0146642
SN(data+ran) = 3556.89103
############################
13 columns: k_central k_mean P_0(k) sigma^{lin}_{P_0(k)} P^img_1(k) sigma^{lin}_{P_1(k)} P_2(k) sigma^{lin}_{P_2(k)} P^img_3(k) sigma^{lin}_{P_3(k)} P_4(k) sigma^{lin}_{P_4(k)} N_modes
### header ###
0.00050000 0 0 0 0 0 0 0 0 0 0 0 0
0.00150000 0.00179520 8959.50379675 0 -24513.68425549 0 -8776.14609776 0 -42575.96773215 0 3617.67176032 0 3
0.00250000 0.00253879 16816.31476482 0 -24178.52498323 0 -12437.65319203 0 -19045.06302756 0 -6748.30516884 0 6
0.00350000 0.00331552 29616.69731791 0 -25117.56885110 0 -10470.73219427 0 -3510.38093283 0 -19424.40087585 0 7
0.00450000 0.00420575 45428.53077518 0 -26548.66683391 0 -13652.84084088 0 -9988.52137610 0 22854.93927441 0 24
0.00550000 0.00557378 77169.45360954 0 -16326.36439159 0 -9937.47795868 0 -25614.93768195 0 -22267.33099628 0 45
0.00650000 0.00659388 71964.35371230 0 264.34843335 0 19393.95198260 0 -60909.85533661 0 22142.87806532 0 40
0.00750000 0.00754703 84654.89880319 0 12932.69683468 0 7831.63250143 0 -42249.55559649 0 -3621.91246073 0 57
0.00850000 0.00846663 78179.02818651 0 16847.42799756 0 32393.96855217 0 -50277.32325976 0 -11925.11527618 0 75
0.00950000 0.00948925 76232.18131364 0 -1335.35559010 0 15437.69960165 0 -14185.08749491 0 -22260.79832464 0 112
0.01050000 0.01054430 81805.98962735 0 -1023.93870395 0 63403.45360901 0 -7265.37166555 0 5470.95748847 0 105
0.01150000 0.01145670 87747.62057153 0 846.82247445 0 46551.26451179 0 16477.39090212 0 -38076.50709559 0 144
0.01250000 0.01249090 88948.52492136 0 -9599.91599194 0 39886.83220344 0 21763.76166353 0 -8538.56722412 0 169
0.01350000 0.01339930 83071.88852386 0 5788.61141519 0 4802.38837127 0 22344.83727001 0 -45390.44197780 0 180
0.01450000 0.01448870 91320.77051376 0 -43.90497888 0 16599.74009136 0 -4449.41372837 0 -40468.01853317 0 267
0.01550000 0.01550050 87901.19371677 0 3733.16718050 0 22517.67626043 0 -18120.30245871 0 -47406.60160403 0 238
0.01650000 0.01653350 81051.07852121 0 6888.12648665 0 21153.34439628 0 -25747.69485653 0 -44684.58127061 0 315
0.01750000 0.01747870 71969.22553522 0 4399.89829178 0 24469.17350972 0 -7884.54714173 0 -35718.10190922 0 297
0.01850000 0.01844180 77789.28235289 0 -4119.84598015 0 29243.78141802 0 -2874.96235614 0 -63308.45306207 0 388
0.01950000 0.01947590 77044.66850883 0 -219.35050528 0 26845.18369255 0 8346.69490734 0 -50312.31180618 0 399
0.02050000 0.02045430 72760.45386676 0 13076.08344108 0 20973.41911798 0 5268.86541588 0 -44041.83281489 0 462
0.02150000 0.02154770 61273.47048365 0 7419.18840193 0 12425.69508123 0 949.15511489 0 -25448.07774694 0 571
0.02250000 0.02255340 59745.37893543 0 -2493.59827241 0 24683.09082522 0 9642.52229784 0 -13442.02377633 0 510
0.02350000 0.02348930 55053.70274003 0 -947.73010669 0 6859.84776907 0 14730.95310847 0 -22022.52189454 0 555
0.02450000 0.02439640 60159.15171390 0 -1787.48290175 0 7556.41879573 0 2954.77167343 0 -8781.84834504 0 592
0.02550000 0.02547300 62289.46700901 0 -2891.50440942 0 3047.36952589 0 -2052.48792396 0 -12345.86361929 0 837
0.02650000 0.02652900 65762.41241163 0 -1931.23489487 0 2493.93044215 0 -3121.72018704 0 -9367.51896632 0 723
0.02750000 0.02749970 66196.22609802 0 3164.24898667 0 11380.79978809 0 -11815.49926047 0 -6122.67452729 0 826
0.02850000 0.02848090 63695.65226098 0 4841.59547345 0 9335.38707970 0 -8985.50161543 0 -10805.16069310 0 831
0.02950000 0.02946900 61536.10602835 0 -88.66795221 0 10108.94398083 0 -705.00260202 0 -6877.35311461 0 996
0.03050000 0.03053250 63065.30480905 0 153.60968391 0 10583.72526905 0 5618.93910967 0 -20283.39183528 0 1041
0.03150000 0.03150510 61918.32268109 0 22.52830569 0 9973.61802689 0 -2738.98313504 0 -11365.40925660 0 1036
0.03250000 0.03246190 61387.07253629 0 3418.69101101 0 6488.98024927 0 7536.42217711 0 -17950.45299599 0 1059
0.03350000 0.03345080 57801.07869728 0 690.42477916 0 460.07281193 0 2716.36237543 0 -11144.73782296 0 1302
0.03450000 0.03451200 55798.31658408 0 2588.32201123 0 1729.85145107 0 166.08265781 0 -19140.06357450 0 1339
0.03550000 0.03553350 54809.77942427 0 4320.80867560 0 2527.23599521 0 -5024.12274808 0 -11775.08527489 0 1365
0.03650000 0.03647120 48497.22559866 0 3256.44823544 0 5228.49571959 0 -7081.40498869 0 -9788.80985334 0 1308
0.03750000 0.03744890 49202.97558260 0 956.30008610 0 10140.02399659 0 -1991.54584816 0 -8445.73685284 0 1579
0.03850000 0.03847530 48502.87248432 0 1056.62752851 0 10824.00578994 0 -2023.13519086 0 -6980.61361586 0 1662
0.03950000 0.03950240 49166.76908045 0 912.08386417 0 16247.52943888 0 -1378.65945247 0 -5520.43970808 0 1683
0.04050000 0.04050350 49188.36011384 0 -1252.23564769 0 17658.25434403 0 -2499.06800087 0 -503.04893349 0 1822
0.04150000 0.04152450 50995.69569399 0 -370.54642238 0 19774.39706337 0 1715.30241626 0 -2358.69306682 0 1887
0.04250000 0.04250150 51326.75820607 0 -1572.42513680 0 18916.51333642 0 -117.77631910 0 -754.68301624 0 1920
0.04350000 0.04349210 50394.46845634 0 2378.54574522 0 21109.49799000 0 4403.69609920 0 114.89751464 0 2005
0.04450000 0.04448520 49270.18459425 0 3752.65447219 0 22297.00482680 0 -556.71206295 0 1369.28119335 0 2151
0.04550000 0.04548030 45680.75833454 0 3880.61733011 0 19111.27552998 0 2683.86510209 0 -681.14174203 0 2274
0.04650000 0.04648670 40500.90333789 0 3182.79513074 0 18596.74459565 0 1922.60955383 0 2399.41707750 0 2311
0.04750000 0.04749250 40307.35910006 0 1437.64172678 0 14691.64635537 0 4249.80185654 0 -318.62939854 0 2568
0.04850000 0.04851840 39087.85324453 0 -1301.70679498 0 15970.05697893 0 2562.76708555 0 -5334.20320463 0 2493
0.04950000 0.04949480 39633.71885809 0 501.36040395 0 12447.50756112 0 2028.29489423 0 -4895.89415436 0 2644
0.05050000 0.05050630 38543.09486345 0 1394.48180463 0 11931.86939432 0 -915.40999054 0 -5096.46931845 0 2829
0.05150000 0.05149060 36622.48940041 0 1002.27016428 0 9606.09434919 0 -456.50863058 0 -2226.71095498 0 2784
0.05250000 0.05249300 37349.05535501 0 -55.23517814 0 11572.46173070 0 1206.78375431 0 -5616.56963216 0 3055
0.05350000 0.05348950 37535.62402820 0 -755.42043308 0 10991.99510209 0 -298.52316390 0 -7968.75217198 0 3009
0.05450000 0.05448610 37489.45243371 0 551.71512276 0 11691.15705276 0 -81.02217975 0 -9724.04782548 0 3336
0.05550000 0.05550870 36837.84611813 0 1054.69540783 0 10179.23109877 0 -3776.50425984 0 -7293.63931081 0 3349
0.05650000 0.05647670 36612.41358483 0 955.83283399 0 13646.08672274 0 -1622.78207007 0 -8496.09378612 0 3324
0.05750000 0.05747970 35473.07136099 0 117.16069784 0 13595.04330533 0 -1591.10414876 0 -6670.95390766 0 3639
0.05850000 0.05849280 35595.75271998 0 1095.64529394 0 16419.92553631 0 1646.76472563 0 -6736.96710823 0 3846
0.05950000 0.05951020 35406.74813532 0 34.70686648 0 15266.41073670 0 1801.88799634 0 -6379.20922101 0 3787
0.06050000 0.06049470 35037.37537937 0 386.53485942 0 14402.88012410 0 1708.37114092 0 -5456.18700716 0 3930
0.06150000 0.06148310 34210.93705491 0 692.19192220 0 13365.07111884 0 241.04340407 0 -6762.00163465 0 4083
0.06250000 0.06249100 34832.86953997 0 490.56710172 0 12684.89820523 0 1624.86366714 0 -3077.79627449 0 4303
0.06350000 0.06350600 32703.21858435 0 399.45404802 0 11812.84190252 0 1042.14382042 0 -3532.70273966 0 4470
0.06450000 0.06451750 33913.64513353 0 -188.53733255 0 9716.49649995 0 4901.02064075 0 -3279.78869616 0 4479
0.06550000 0.06550280 33449.71472363 0 -691.79664020 0 8651.82603469 0 3449.22848286 0 -2778.19023722 0 4636
0.06650000 0.06648880 32498.38057521 0 304.07150587 0 7228.30152206 0 2700.66181884 0 -4511.20837319 0 4653
0.06750000 0.06749660 32495.28032426 0 1365.17336084 0 8211.52396595 0 -73.99900412 0 -2679.50260611 0 5220
0.06850000 0.06852730 32069.21726524 0 1354.65465226 0 9202.09843353 0 -1289.35008048 0 1307.39796994 0 5029
0.06950000 0.06949320 30753.60363029 0 869.30925893 0 9310.19754073 0 -2089.92345417 0 3646.98020412 0 5040
0.07050000 0.07048030 31112.56840091 0 502.58057415 0 10901.29061717 0 -210.75505953 0 3825.42179089 0 5475
0.07150000 0.07148790 30858.67999282 0 267.25048968 0 11604.90364242 0 -44.54994180 0 2759.24548946 0 5509
0.07250000 0.07249820 30316.13607670 0 632.22642545 0 12363.02572276 0 1183.19970245 0 1208.68819418 0 5916
0.07350000 0.07351270 29595.65990075 0 809.02598645 0 12325.04764863 0 649.74284331 0 1174.79580791 0 5721
0.07450000 0.07449140 28573.57359674 0 860.75367354 0 10687.52831422 0 1271.19146778 0 667.15961025 0 6028
0.07550000 0.07549160 28545.11772196 0 69.44074944 0 9956.22340460 0 -106.92865175 0 -1242.81309927 0 6183
0.07650000 0.07648840 28706.55221782 0 -146.51675263 0 9787.61404226 0 338.30159804 0 -2256.86089546 0 6330
0.07750000 0.07749960 27792.53180404 0 596.35873643 0 9060.43910980 0 -947.61052558 0 -1884.57611808 0 6583
0.07850000 0.07848650 27155.31951072 0 1194.99172838 0 8970.93043597 0 1318.37064383 0 -2057.37081920 0 6549
0.07950000 0.07947320 26219.26517055 0 958.86775822 0 9004.77853294 0 521.67701276 0 -1934.60088161 0 6828
0.08050000 0.08048110 25647.71176342 0 960.13443218 0 8660.45137573 0 1430.34506472 0 -1361.23161320 0 7147
0.08150000 0.08149960 24587.97955502 0 576.57138475 0 8323.48731452 0 806.69636931 0 -892.61982437 0 7386
0.08250000 0.08250610 23944.89892956 0 492.44053908 0 8104.96391190 0 1177.56388911 0 -252.90518565 0 7227
0.08350000 0.08350160 23950.76726171 0 524.81490961 0 8349.19725275 0 572.69385659 0 -357.97822648 0 7798
0.08450000 0.08449610 23018.58823523 0 450.76541569 0 6902.54265357 0 1107.89682135 0 -1465.64363624 0 7371
0.08550000 0.08548940 22715.64942819 0 267.66348740 0 6467.33385425 0 54.36433980 0 -56.42489945 0 8256
0.08650000 0.08650700 22346.60884198 0 608.50618399 0 5602.64064753 0 318.14553794 0 -1673.73690889 0 8037
0.08750000 0.08749060 22077.44062564 0 280.06006227 0 5850.40606000 0 137.00119668 0 -1255.65699606 0 8155
0.08850000 0.08849210 21251.22374768 0 408.60643171 0 5103.94313770 0 426.55799194 0 -1334.89055246 0 8718
0.08950000 0.08949900 21196.52646307 0 195.02350043 0 5136.14145828 0 1047.56704511 0 -789.02604613 0 8571
0.09050000 0.09049190 20781.53572887 0 57.47522018 0 5155.67303926 0 94.53329484 0 -1796.29647230 0 8932
0.09150000 0.09150830 21288.75892881 0 378.25829662 0 5510.89536409 0 -234.56277235 0 -1490.46778849 0 9285
0.09250000 0.09250820 20526.20791855 0 784.48085680 0 6657.13564629 0 -1525.34561167 0 -6.23370780 0 9204
0.09350000 0.09350330 20401.42281784 0 358.20188744 0 6695.66733666 0 -472.89677854 0 303.88659804 0 9349
0.09450000 0.09448040 20318.60182820 0 116.56168506 0 7569.06339068 0 246.01709238 0 963.42955605 0 9564
0.09550000 0.09549270 19936.93879170 0 -34.61607342 0 7117.73328642 0 1341.97684034 0 -53.11682096 0 10155
0.09650000 0.09649430 20268.33347352 0 201.80862107 0 6862.52727167 0 453.97306819 0 -990.28105097 0 9913
0.09750000 0.09749140 19246.24716952 0 923.71312693 0 6530.15822527 0 -399.09973362 0 -533.57976194 0 10476
0.09850000 0.09850240 18786.96713604 0 762.05164841 0 6317.06026181 0 -608.52389971 0 -503.66787644 0 10575
0.09950000 0.09950330 18340.19882961 0 563.62451534 0 6661.55350389 0 -610.21796541 0 -1041.19935111 0 10882
0.10050000 0.10051200 18006.58968282 0 157.64665354 0 6856.49285465 0 -291.72697093 0 -689.16917752 0 10875
0.10150000 0.10150300 18221.94640054 0 -139.91986150 0 7303.36081200 0 -70.72425333 0 -1931.52277531 0 11118
0.10250000 0.10250800 17889.00159325 0 399.14180846 0 7433.83708767 0 108.40426048 0 -1582.21307193 0 11575
0.10350000 0.10349800 17725.02046268 0 505.83251594 0 7769.29531270 0 446.42617160 0 -981.60145554 0 11364
0.10450000 0.10450100 17286.66712311 0 322.96089201 0 6607.96345177 0 1115.01632621 0 -459.45386898 0 12093
0.10550000 0.10551000 16951.28640435 0 128.29059874 0 6079.09385681 0 1555.37375657 0 -630.63090344 0 12067
0.10650000 0.10649700 16717.32818094 0 194.47652758 0 5271.38990593 0 151.62995223 0 -1295.49522076 0 12054
0.10750000 0.10749900 16564.19792869 0 311.82213324 0 5011.58887639 0 310.24432695 0 -1261.12672452 0 12807
0.10850000 0.10850100 16011.79964349 0 308.90346842 0 4607.72582863 0 37.18883881 0 -971.34294660 0 12736
0.10950000 0.10950300 16005.04552535 0 67.71856004 0 5087.07998700 0 -322.85791939 0 -1011.59527624 0 12933
0.11050000 0.11050200 16150.20370373 0 105.05687524 0 5431.75038628 0 14.20988950 0 -1119.21273732 0 13428
0.11150000 0.11150900 15925.43550991 0 137.20049853 0 5260.92655898 0 404.37680363 0 -863.36784943 0 13453
0.11250000 0.11250000 16096.06003536 0 45.31238209 0 5673.35958615 0 -392.72207453 0 -520.86208965 0 13668
0.11350000 0.11349100 16009.80662503 0 332.44323098 0 5907.17386935 0 -135.96261261 0 -775.38272749 0 13791
0.11450000 0.11448600 15529.15700465 0 633.49199217 0 6284.58513311 0 55.82799041 0 -657.17237326 0 14205
0.11550000 0.11549300 15007.65050569 0 709.47914294 0 6253.93693802 0 -76.54862836 0 -378.51628179 0 14776
0.11650000 0.11649800 14553.13157188 0 258.97835581 0 5674.61075886 0 995.02554215 0 313.68671274 0 14553
0.11750000 0.11747300 14531.09764550 0 -15.79057459 0 5701.73795466 0 898.57341342 0 -245.62623931 0 14568
0.11850000 0.11849100 14636.17400802 0 -210.74952337 0 5300.42154161 0 1062.16479816 0 -418.66010265 0 16015
0.11950000 0.11950300 14083.88644607 0 302.68967973 0 4551.22375508 0 719.49516797 0 329.58767841 0 15270
0.12050000 0.12050700 14190.51293407 0 282.71520576 0 4161.24540264 0 270.91985813 0 682.09617643 0 15999
0.12150000 0.12150000 14053.10538307 0 -93.70386698 0 4049.92424892 0 527.04266137 0 657.49679238 0 15670
0.12250000 0.12250700 14040.70437928 0 278.27409627 0 4159.15273325 0 -290.98512516 0 -130.20278924 0 16887
0.12350000 0.12352200 13578.54554135 0 519.65963518 0 3661.89462565 0 -167.39805000 0 413.36863862 0 16407
0.12450000 0.12449800 13099.99966269 0 481.96501257 0 4129.15780532 0 201.14760328 0 554.40348323 0 16306
0.12550000 0.12549900 13002.00958804 0 154.26959447 0 3793.20132567 0 -29.61780455 0 291.95616805 0 17523
0.12650000 0.12650100 13034.34077651 0 -115.49874188 0 3965.89637587 0 242.36211796 0 -357.87414663 0 17154
0.12750000 0.12750600 12744.13514301 0 44.69975036 0 4273.20875121 0 -150.18169214 0 -481.34606961 0 18007
0.12850000 0.12850300 12978.97915242 0 29.16815744 0 3890.93673685 0 -51.60810598 0 203.83928545 0 17496
0.12950000 0.12949900 12775.13765251 0 -108.80009609 0 4348.98774227 0 623.53797216 0 -299.12106944 0 18405
0.13050000 0.13049000 13079.07296878 0 40.18689221 0 3979.55962469 0 607.95146051 0 119.76380140 0 18100
0.13150000 0.13148800 12872.35266441 0 250.87341404 0 3492.83129799 0 914.04809459 0 -212.69050191 0 19059
0.13250000 0.13249300 12667.40393202 0 116.34134580 0 3100.68276989 0 428.34174347 0 251.21997781 0 18957
0.13350000 0.13349100 12445.62526590 0 109.90577845 0 2823.96322802 0 224.75379980 0 421.48575994 0 19468
0.13450000 0.13450700 12485.26418875 0 68.24394185 0 3018.78078321 0 20.27032649 0 -19.52936652 0 19953
0.13550000 0.13551000 12264.14986213 0 198.20015042 0 3033.46268591 0 -387.82257080 0 43.22724188 0 19956
0.13650000 0.13649900 12289.17331622 0 146.23219388 0 3004.47533954 0 -165.90550062 0 337.89635096 0 19723
0.13750000 0.13749600 12106.70140320 0 -66.97294968 0 3189.63782748 0 -218.09268919 0 136.88715173 0 20946
0.13850000 0.13851100 12410.85816597 0 115.34815826 0 3133.72258715 0 -44.86904620 0 187.99921756 0 20955
0.13950000 0.13949800 12216.98175840 0 162.36678561 0 3514.90951368 0 -131.94889486 0 387.96651102 0 20506
0.14050000 0.14048300 12136.04306397 0 327.09751256 0 3450.30249836 0 41.29921796 0 443.65366146 0 21447
0.14150000 0.14148400 11798.44788025 0 337.12571715 0 3307.89025655 0 255.85042405 0 842.31271656 0 21771
0.14250000 0.14249400 11584.30911826 0 242.07645198 0 3336.86653060 0 547.79441254 0 416.99593223 0 22470
0.14350000 0.14350900 11317.24464363 0 296.30759170 0 3128.59610076 0 271.91636736 0 744.81978930 0 22519
0.14450000 0.14449900 11052.57179117 0 232.27523005 0 3318.54183302 0 174.96487678 0 749.68829052 0 22218
0.14550000 0.14550500 10921.85192436 0 269.14717892 0 2905.88735935 0 152.12045622 0 711.55520384 0 23559
0.14650000 0.14650700 10634.46973369 0 224.53124607 0 2999.28241920 0 152.28764832 0 1273.32842647 0 23044
0.14750000 0.14750500 10473.55563710 0 182.38222718 0 2731.17714604 0 247.39448959 0 835.09134631 0 23649
0.14850000 0.14849900 10401.47480253 0 116.69233850 0 2828.23714540 0 206.80334680 0 717.10133134 0 23640
0.14950000 0.14949500 10165.70071785 0 76.74438706 0 2913.59369743 0 -108.65471646 0 484.31677436 0 24457
0.15050000 0.15050000 10207.21086359 0 167.31943650 0 3005.71543992 0 7.97314788 0 612.33942284 0 24591
0.15150000 0.15149900 10054.92210804 0 230.60663070 0 3007.49808422 0 -74.21568952 0 303.68176003 0 25020
0.15250000 0.15250500 9812.81465355 0 228.22165193 0 3070.16744269 0 -100.67954234 0 630.87117289 0 25297
0.15350000 0.15350100 9630.97386305 0 211.51462101 0 2760.82883191 0 125.02315569 0 230.04194213 0 25452
0.15450000 0.15450400 9690.98586357 0 65.65600737 0 2827.39564872 0 62.86135259 0 400.69857733 0 26061
0.15550000 0.15549900 9483.78944924 0 94.98349556 0 2670.86619275 0 204.53794914 0 389.13685575 0 26128
0.15650000 0.15649500 9641.92439230 0 -15.79943245 0 2555.73615929 0 188.12544206 0 172.41159868 0 26331
0.15750000 0.15749700 9436.98673223 0 -15.75536460 0 2437.69410440 0 224.94645825 0 78.64052268 0 27345
0.15850000 0.15849900 9529.27455959 0 18.41161532 0 2472.66050618 0 147.35160592 0 131.58682984 0 26980
0.15950000 0.15949700 9615.24008949 0 -112.22133373 0 2387.14894160 0 291.94288126 0 32.72558468 0 27777
0.16050000 0.16050000 9679.92461108 0 42.07605227 0 2244.08343262 0 -256.15269852 0 4.62962689 0 28224
0.16150000 0.16150500 9534.86608363 0 260.57277058 0 2474.52065674 0 -73.48380885 0 -105.89560384 0 28075
0.16250000 0.16249700 9431.28448495 0 220.80540877 0 2441.23724834 0 -226.56966107 0 416.64272507 0 28590
0.16350000 0.16349900 9334.40164279 0 6.91773388 0 2291.15188542 0 305.16766602 0 335.54680363 0 29163
0.16450000 0.16449100 9255.43382218 0 14.15574583 0 2227.90676606 0 456.19528378 0 337.09914357 0 28996
0.16550000 0.16550500 9205.39798632 0 201.47977303 0 2208.92880132 0 445.44073469 0 138.19590053 0 30777
0.16650000 0.16650700 8915.69060744 0 286.61377133 0 2091.37392872 0 106.38588639 0 348.29215673 0 29211
0.16750000 0.16749900 8623.48088316 0 243.94767487 0 1872.92803237 0 -12.28452294 0 467.60863621 0 30922
0.16850000 0.16850800 8597.08446079 0 188.16087350 0 2170.10923051 0 -39.55023353 0 726.20278235 0 30867
0.16950000 0.16949900 8450.29865067 0 -41.81319528 0 2052.70937045 0 37.23910717 0 455.62838075 0 30852
0.17050000 0.17049200 8497.88750274 0 -90.73393730 0 2091.90540031 0 83.45521241 0 534.86858055 0 31257
0.17150000 0.17149500 8613.03968085 0 101.02112356 0 1935.47559527 0 84.76075023 0 323.40932116 0 32608
0.17250000 0.17250900 8423.82472203 0 178.74718294 0 2069.92683555 0 -20.43497196 0 398.21284041 0 32361
0.17350000 0.17350400 8258.02773019 0 313.68228381 0 2016.18177088 0 36.02469458 0 576.99545479 0 32508
0.17450000 0.17449800 8099.00700115 0 205.58206937 0 1815.56231749 0 227.70346713 0 463.46537226 0 32791
0.17550000 0.17549800 7985.63746733 0 -17.18657331 0 1756.56897085 0 198.05621019 0 528.35030293 0 33633
0.17650000 0.17650100 7991.49472716 0 -37.23877500 0 1769.76718204 0 3.47364296 0 462.49322214 0 33984
0.17750000 0.17750300 8023.28337171 0 131.52039589 0 1832.03793682 0 -57.80916149 0 339.69560374 0 34069
