### header ###
fiducial parameters:
Omega_m = 0.31
Omega_nu = 0
Omega_de = 0.69
Omega_k = 0
H_0 = 100
w_de = -1
zeff = 0
beta = 0
fgrowth = 0
b_1 = 2
gamma = 0.55
Lx = 3500 Ly = 3500 Lz = 3500
nx = 700 ny = 700 nz = 700
xoffset = -685.467585 yoffset = -31.7331281 zoffset = 572.489161
bins = 400 dk = 0.001
kx_ny = 0.628318531 ky_ny = 0.628318531 kz_ny = 0.628318531
############################
A(data) = 8.01539166 (not used)
A(ran) = 8.01229306 (used)
Ngal = 476044
weighted Ngal = 0
Nran = 23820508
weighted Nran = 0
SN(data) = 3490.31477
SN(ran) = 69.7899784
SN(data+ran) = 3560.10474
############################
13 columns: k_central k_mean P_0(k) sigma^{lin}_{P_0(k)} P^img_1(k) sigma^{lin}_{P_1(k)} P_2(k) sigma^{lin}_{P_2(k)} P^img_3(k) sigma^{lin}_{P_3(k)} P_4(k) sigma^{lin}_{P_4(k)} N_modes
### header ###
0.00050000 0 0 0 0 0 0 0 0 0 0 0 0
0.00150000 0.00179520 21076.39173879 0 -17163.65359438 0 14578.26574922 0 11019.31052741 0 -39128.37795337 0 3
0.00250000 0.00253879 44194.85234388 0 -22462.97897583 0 11361.42321966 0 -23187.10901897 0 10409.54652733 0 6
0.00350000 0.00331552 48452.82557614 0 -4530.54065232 0 11428.07861507 0 -42518.61308959 0 24133.34989797 0 7
0.00450000 0.00420575 57471.56631067 0 3511.28886346 0 16615.13062286 0 -33219.85326039 0 25341.67270543 0 24
0.00550000 0.00557378 58718.08863876 0 -2478.73921250 0 44529.56872315 0 -12225.28600201 0 24353.35699212 0 45
0.00650000 0.00659388 70032.78664768 0 -3739.38982705 0 44844.46564099 0 20178.20474950 0 9565.04924108 0 40
0.00750000 0.00754703 63307.56727608 0 5264.50291990 0 53425.18520570 0 25863.51137413 0 -2627.24123297 0 57
0.00850000 0.00846663 64977.27385874 0 7012.20295857 0 41915.39283347 0 28022.50399052 0 -6956.06627174 0 75
0.00950000 0.00948925 54571.06010118 0 3073.47806781 0 29541.51623239 0 24941.96177948 0 -31315.52411483 0 112
0.01050000 0.01054430 54825.61284876 0 2168.72518990 0 19163.42617987 0 -7688.67771569 0 -18025.08046527 0 105
0.01150000 0.01145670 51724.91900655 0 3471.90460408 0 13458.74298681 0 -3971.08929621 0 -29762.63055902 0 144
0.01250000 0.01249090 55035.43340407 0 -9010.85723926 0 -3048.03386538 0 -3702.48576843 0 -25307.12705199 0 169
0.01350000 0.01339930 57706.85321307 0 -15001.11783405 0 230.59445114 0 -1253.44253109 0 -40283.88577144 0 180
0.01450000 0.01448870 79511.02886219 0 -11670.11963561 0 -14422.47813902 0 -9759.04744423 0 -45130.46379106 0 267
0.01550000 0.01550050 87347.57747583 0 -7479.70972939 0 -7658.63849846 0 -16735.81896338 0 -38269.38699394 0 238
0.01650000 0.01653350 89625.81903052 0 2990.16989587 0 -14019.22406913 0 -21051.47900795 0 -39493.21105614 0 315
0.01750000 0.01747870 82110.14639012 0 7931.53808826 0 904.11732646 0 -24180.51800170 0 -24890.69691557 0 297
0.01850000 0.01844180 80443.76150491 0 11950.80306976 0 12115.11637007 0 904.58679303 0 -39079.77044741 0 388
0.01950000 0.01947590 75670.48227559 0 379.44303537 0 11021.43641378 0 -6211.45242769 0 -27637.51925657 0 399
0.02050000 0.02045430 70355.87708589 0 108.26818160 0 11253.91094567 0 2124.38052900 0 -38995.51005554 0 462
0.02150000 0.02154770 69564.87020085 0 6173.77330633 0 12071.60213353 0 -5339.49577589 0 -32402.93713527 0 571
0.02250000 0.02255340 65661.43280928 0 5600.99087114 0 12312.20375184 0 -5890.00069355 0 -29367.57000949 0 510
0.02350000 0.02348930 62427.09600651 0 583.37643558 0 7905.17488287 0 -8002.11308666 0 -15272.05762236 0 555
0.02450000 0.02439640 62214.95026298 0 -172.01078052 0 9022.44996335 0 631.31295865 0 -24007.34684153 0 592
0.02550000 0.02547300 64295.99371265 0 -735.67072730 0 16306.98782316 0 -4504.34353180 0 -31214.10161949 0 837
0.02650000 0.02652900 63516.16987567 0 3718.15310805 0 18809.66540192 0 -4213.83894553 0 -17706.75112673 0 723
0.02750000 0.02749970 61196.40710291 0 5692.78044388 0 23990.07401482 0 1177.54174446 0 -13045.96671757 0 826
0.02850000 0.02848090 60550.66911949 0 2555.09396445 0 26783.95373631 0 3166.98385090 0 882.74552510 0 831
0.02950000 0.02946900 56502.51644254 0 -357.83871519 0 26522.86831708 0 6844.28008037 0 -8154.81151823 0 996
0.03050000 0.03053250 57666.32850423 0 1239.10387045 0 25703.29483401 0 5356.43643287 0 -3927.06573273 0 1041
0.03150000 0.03150510 56223.16168737 0 1987.40479867 0 24268.21081426 0 3347.87242147 0 -1277.76842872 0 1036
0.03250000 0.03246190 51718.93995115 0 4240.12464465 0 19589.71068539 0 937.60889457 0 339.57712986 0 1059
0.03350000 0.03345080 51734.77337564 0 -973.89843917 0 20643.24239188 0 7199.12594616 0 -2952.44648522 0 1302
0.03450000 0.03451200 52486.69495407 0 -3338.53845164 0 14597.97448740 0 9338.96344061 0 -3835.45331718 0 1339
0.03550000 0.03553350 51883.91759094 0 -81.94583309 0 12571.62832234 0 4854.89333556 0 -1082.79586099 0 1365
0.03650000 0.03647120 53080.83590384 0 2373.49676510 0 13462.61830050 0 4253.15677096 0 3503.17284937 0 1308
0.03750000 0.03744890 51948.24779814 0 3092.52246650 0 15089.91787909 0 -59.83572911 0 9664.88839397 0 1579
0.03850000 0.03847530 48704.49951927 0 3142.19291563 0 17996.51386723 0 1718.41373953 0 14770.92420107 0 1662
0.03950000 0.03950240 46976.88467782 0 825.66658342 0 22600.16508033 0 -944.25450393 0 14447.94448611 0 1683
0.04050000 0.04050350 47469.16023925 0 467.51452145 0 25699.75169006 0 57.56158431 0 19114.48650417 0 1822
0.04150000 0.04152450 47871.30707667 0 2532.40677090 0 23234.72001569 0 -141.58292469 0 14787.86485804 0 1887
0.04250000 0.04250150 47120.93562371 0 6.35943405 0 20851.06992873 0 2202.15253853 0 13958.32628263 0 1920
0.04350000 0.04349210 45973.39987950 0 -972.30845332 0 19475.11212352 0 3603.10058086 0 7322.46057232 0 2005
0.04450000 0.04448520 46199.60747555 0 274.88042872 0 14116.77125078 0 3697.17105252 0 1951.17615187 0 2151
0.04550000 0.04548030 43608.90491448 0 768.37948204 0 9550.00195166 0 5406.83765544 0 -1488.79586744 0 2274
0.04650000 0.04648670 43491.31682491 0 1450.79564866 0 5991.50069517 0 42.13827873 0 -7315.08640399 0 2311
0.04750000 0.04749250 41238.98451030 0 2356.15750443 0 7013.03338293 0 -2283.65592152 0 -5475.76287744 0 2568
0.04850000 0.04851840 38818.68502819 0 3029.19984086 0 5213.02768182 0 -1810.63513294 0 -8237.65465253 0 2493
0.04950000 0.04949480 36888.00374956 0 2050.33989294 0 8430.04736857 0 -3580.23623011 0 -4165.28680120 0 2644
0.05050000 0.05050630 35841.22616121 0 397.89949361 0 9411.79719327 0 396.84762276 0 -4451.71677194 0 2829
0.05150000 0.05149060 34847.04211574 0 742.46581304 0 12088.21062076 0 2603.18107114 0 -2785.78585205 0 2784
0.05250000 0.05249300 35679.34877236 0 569.45963052 0 11619.85128093 0 902.66795914 0 -5093.51300772 0 3055
0.05350000 0.05348950 34232.86025805 0 -171.47598723 0 13004.88839249 0 1028.58575868 0 33.03915292 0 3009
0.05450000 0.05448610 34840.28799760 0 1624.07753207 0 14457.90957844 0 -1883.40245165 0 1004.98288386 0 3336
0.05550000 0.05550870 33995.02672095 0 773.69309073 0 15425.29859785 0 -1016.52246079 0 4461.60435800 0 3349
0.05650000 0.05647670 34082.71953351 0 126.49909659 0 16818.08633679 0 2295.90191277 0 7057.52198405 0 3324
0.05750000 0.05747970 33848.53986359 0 -397.25065538 0 16028.29740747 0 3059.41621529 0 6672.53725011 0 3639
0.05850000 0.05849280 33418.26932114 0 680.45082896 0 17069.87100316 0 2539.17196136 0 4522.65715705 0 3846
0.05950000 0.05951020 33432.66334341 0 1340.76995694 0 15182.81468432 0 2395.57498079 0 4644.22021123 0 3787
0.06050000 0.06049470 31218.41982617 0 1269.79635485 0 12384.72747940 0 1018.20545416 0 5052.35717637 0 3930
0.06150000 0.06148310 30834.21015497 0 707.84818949 0 10445.59801694 0 1331.45813177 0 4236.78080256 0 4083
0.06250000 0.06249100 30942.94038469 0 -1053.71993602 0 10769.19778209 0 125.40625813 0 830.51515446 0 4303
0.06350000 0.06350600 30836.53534318 0 301.29678127 0 10863.23503677 0 -487.45799291 0 -846.51466382 0 4470
0.06450000 0.06451750 30444.68576785 0 1386.93047911 0 11250.81069472 0 -2117.16137322 0 -817.12539206 0 4479
0.06550000 0.06550280 29204.91755790 0 706.83064284 0 10326.70339303 0 -936.00119301 0 -1762.89126833 0 4636
0.06650000 0.06648880 29896.49496608 0 -341.34759460 0 12184.87201642 0 -458.66994838 0 -324.37482789 0 4653
0.06750000 0.06749660 30384.67376733 0 -218.42596616 0 12364.90801798 0 957.20248057 0 -640.39890840 0 5220
0.06850000 0.06852730 30263.09964082 0 746.61018422 0 12175.68198682 0 2155.29445990 0 -948.76758353 0 5029
0.06950000 0.06949320 30104.10105642 0 -22.58267081 0 10468.99383928 0 627.84399928 0 515.84189758 0 5040
0.07050000 0.07048030 30125.35992008 0 17.08382213 0 10649.21807035 0 971.02517088 0 -78.65159501 0 5475
0.07150000 0.07148790 29945.43464177 0 297.99944294 0 10718.90728276 0 1791.00390104 0 -338.53633133 0 5509
0.07250000 0.07249820 28741.20859450 0 6.10499202 0 10758.90052000 0 1654.90288437 0 435.45460493 0 5916
0.07350000 0.07351270 28649.97263799 0 623.13936847 0 7915.60501285 0 1135.69942897 0 -895.26943170 0 5721
0.07450000 0.07449140 28245.05771937 0 528.03806337 0 8216.19648703 0 1690.69971051 0 161.08793209 0 6028
0.07550000 0.07549160 27598.54467321 0 819.15162750 0 7585.39506978 0 406.79942830 0 -1236.42436785 0 6183
0.07650000 0.07648840 26876.85054153 0 660.66679898 0 7059.52607485 0 301.91129529 0 612.67602151 0 6330
0.07750000 0.07749960 26561.51073070 0 196.51715704 0 7331.79454214 0 -613.34921886 0 -1035.55135822 0 6583
0.07850000 0.07848650 26719.84497561 0 315.51918250 0 8033.30382567 0 -998.16343901 0 335.38514769 0 6549
0.07950000 0.07947320 26771.33128601 0 180.59515395 0 8802.63109872 0 -2131.09035784 0 -2328.37704146 0 6828
0.08050000 0.08048110 26323.12357735 0 583.84700938 0 9650.33935916 0 -1390.07501936 0 130.43752253 0 7147
0.08150000 0.08149960 26517.66432442 0 834.82893221 0 11620.84779016 0 -460.11156507 0 -648.32337127 0 7386
0.08250000 0.08250610 25366.25326653 0 615.50167881 0 11174.85454647 0 494.90302412 0 355.04959656 0 7227
0.08350000 0.08350160 25111.58979570 0 820.59656589 0 11314.25511593 0 1349.41744262 0 220.44002205 0 7798
0.08450000 0.08449610 24280.61181806 0 764.78097648 0 10380.99100162 0 1553.53575065 0 121.92954814 0 7371
0.08550000 0.08548940 23121.45013279 0 906.22549711 0 9402.68466994 0 1419.63812662 0 834.78021398 0 8256
0.08650000 0.08650700 22798.69186433 0 534.19649043 0 9187.95907474 0 359.15742907 0 -1227.07932570 0 8037
0.08750000 0.08749060 21859.75871971 0 156.22828873 0 8272.93107940 0 263.63980456 0 8.58916775 0 8155
0.08850000 0.08849210 21961.51338479 0 377.97484510 0 7272.81226783 0 821.36055630 0 -1419.85957312 0 8718
0.08950000 0.08949900 21677.39752995 0 365.82629031 0 7406.67667489 0 -251.06164357 0 -1772.84528834 0 8571
0.09050000 0.09049190 21696.77409838 0 252.44125524 0 7355.65540212 0 -762.89535956 0 -2584.95602449 0 8932
0.09150000 0.09150830 20999.21763480 0 969.54922998 0 7966.86987676 0 -754.85242281 0 -2523.68177894 0 9285
0.09250000 0.09250820 20218.84018159 0 893.96954077 0 7824.61264749 0 46.81810754 0 -1740.83519729 0 9204
0.09350000 0.09350330 19638.65036109 0 271.77353437 0 8126.64352389 0 1206.06405320 0 -1390.03073006 0 9349
0.09450000 0.09448040 19905.60411247 0 130.93024098 0 7712.70466055 0 1442.52462202 0 -1070.28191948 0 9564
0.09550000 0.09549270 19395.05921508 0 -173.05932968 0 6887.63930436 0 2375.51192822 0 -1544.01355131 0 10155
0.09650000 0.09649430 19131.75933089 0 268.26692910 0 6509.80729225 0 1520.19698063 0 174.25292630 0 9913
0.09750000 0.09749140 18559.09869127 0 792.13847664 0 6366.39854120 0 393.53367594 0 -44.96980436 0 10476
0.09850000 0.09850240 18145.65808254 0 776.70254861 0 6416.29043683 0 -114.57641722 0 185.86336610 0 10575
0.09950000 0.09950330 17658.25434403 0 334.22698251 0 6370.28492721 0 -25.12354791 0 1415.25348599 0 10882
0.10050000 0.10051200 17522.61836500 0 27.02953790 0 6736.18097317 0 -300.63133455 0 1303.12405256 0 10875
0.10150000 0.10150300 17580.41590055 0 38.15977098 0 6830.96007362 0 -289.17590729 0 1007.06337370 0 11118
0.10250000 0.10250800 17637.43837337 0 157.98546667 0 6981.66548672 0 217.47374623 0 1051.42796478 0 11575
0.10350000 0.10349800 17228.64814106 0 349.38278072 0 6563.60771854 0 628.18724135 0 1200.59432474 0 11364
0.10450000 0.10450100 17156.23513675 0 268.07980681 0 6042.17872586 0 775.17788948 0 163.89033750 0 12093
0.10550000 0.10551000 16743.34814426 0 111.59906908 0 5657.12755797 0 1274.34708035 0 -126.74711666 0 12067
0.10650000 0.10649700 16469.30810500 0 168.93599592 0 4694.26711941 0 405.85828069 0 -494.49666980 0 12054
0.10750000 0.10749900 16224.72044976 0 124.37210299 0 4756.27213840 0 238.38604611 0 -131.82267036 0 12807
0.10850000 0.10850100 16351.38784568 0 94.58599910 0 4531.69217410 0 452.96991556 0 501.68482307 0 12736
0.10950000 0.10950300 16070.92585802 0 136.68009926 0 4458.61483030 0 417.53847614 0 708.50588559 0 12933
0.11050000 0.11050200 16080.66950386 0 77.38226369 0 4189.20302281 0 506.81906009 0 1386.35471822 0 13428
0.11150000 0.11150900 16073.58321598 0 103.76207757 0 4359.47323387 0 505.91666561 0 1087.69757919 0 13453
0.11250000 0.11250000 15772.52670416 0 440.22345523 0 4582.75773616 0 -353.29574031 0 1477.05920313 0 13668
0.11350000 0.11349100 15392.63523963 0 939.52108507 0 5035.31686848 0 -395.03729765 0 1043.68951696 0 13791
0.11450000 0.11448600 14786.20400932 0 767.10062853 0 5052.76685239 0 -1193.47481988 0 1036.48254074 0 14205
0.11550000 0.11549300 14173.35083060 0 330.39263643 0 5182.50128229 0 -749.29965192 0 1090.45348083 0 14776
0.11650000 0.11649800 14200.36730316 0 193.59184883 0 5799.79446326 0 -637.14585936 0 580.90730715 0 14553
0.11750000 0.11747300 14191.06655031 0 -143.69330980 0 5609.32833172 0 189.68885433 0 -378.89495529 0 14568
0.11850000 0.11849100 14301.90052175 0 -16.44063078 0 5928.49916695 0 215.04115647 0 -1060.75307674 0 16015
0.11950000 0.11950300 13942.04996514 0 283.45151536 0 5352.25109409 0 496.01136383 0 -788.69941255 0 15270
0.12050000 0.12050700 13983.23901347 0 76.16929051 0 5440.71896939 0 659.17535682 0 -1257.42856803 0 15999
0.12150000 0.12150000 13797.33467976 0 -56.43287152 0 4711.13027011 0 513.05720789 0 -822.88189373 0 15670
0.12250000 0.12250700 13768.21446549 0 114.21767390 0 4515.31620569 0 803.73009349 0 -1137.80317069 0 16887
0.12350000 0.12352200 13722.70721049 0 74.30448956 0 4221.85530870 0 769.18665452 0 -589.72087770 0 16407
0.12450000 0.12449800 13555.40438248 0 105.31585691 0 3462.19417522 0 394.60215528 0 -874.24419410 0 16306
0.12550000 0.12549900 13594.93258208 0 122.67693006 0 4051.95048436 0 78.91434128 0 -125.83475710 0 17523
0.12650000 0.12650100 13225.89199587 0 383.64498264 0 3911.55340566 0 -54.68167263 0 54.90145827 0 17154
0.12750000 0.12750600 13044.85948509 0 350.63838236 0 4019.50857264 0 167.91844927 0 893.69273264 0 18007
0.12850000 0.12850300 12832.49229507 0 88.74900163 0 3784.75314183 0 283.66742569 0 764.04245241 0 17496
0.12950000 0.12949900 12887.41102617 0 57.31035326 0 3945.51222588 0 263.64534072 0 362.13920615 0 18405
0.13050000 0.13049000 12685.00892848 0 168.09449923 0 4313.91061724 0 -390.15993856 0 840.06946355 0 18100
0.13150000 0.13148800 12668.73261100 0 241.70774356 0 3972.04151614 0 -423.93274373 0 386.65886946 0 19059
0.13250000 0.13249300 12360.14691830 0 338.93161333 0 4350.01746848 0 -210.55022152 0 2.52501046 0 18957
0.13350000 0.13349100 12351.17833520 0 31.10891453 0 4321.62802764 0 -82.74060457 0 164.91895648 0 19468
0.13450000 0.13450700 12226.39323449 0 147.34717699 0 4450.63168410 0 51.93673258 0 73.84199856 0 19953
0.13550000 0.13551000 12187.86154412 0 127.07596471 0 4445.87058443 0 193.89633776 0 -322.30541038 0 19956
0.13650000 0.13649900 12087.87845101 0 131.08193183 0 4615.68683017 0 200.89626151 0 -39.29855959 0 19723
0.13750000 0.13749600 11853.58805785 0 184.01539509 0 4554.40151230 0 602.45515847 0 534.10680460 0 20946
0.13850000 0.13851100 11794.12967357 0 200.07026608 0 4146.84030805 0 721.58451566 0 458.14622742 0 20955
0.13950000 0.13949800 11650.30017418 0 -3.70921774 0 3695.67628867 0 1020.98239322 0 955.42980137 0 20506
0.14050000 0.14048300 11570.13654249 0 92.21630015 0 3570.62545217 0 657.01293179 0 861.71475134 0 21447
0.14150000 0.14148400 11403.49805397 0 328.16377744 0 3070.86499915 0 434.20011053 0 1117.67368417 0 21771
0.14250000 0.14249400 11103.99166763 0 259.66594718 0 2869.93552067 0 -44.10538796 0 814.75591455 0 22470
0.14350000 0.14350900 10798.98233585 0 252.72470675 0 2871.23098267 0 -220.66589747 0 699.43322263 0 22519
0.14450000 0.14449900 10759.76416134 0 70.66999894 0 2855.51935375 0 -194.73119105 0 655.84701598 0 22218
0.14550000 0.14550500 10772.50840721 0 -66.12004850 0 3044.52393841 0 175.83848321 0 501.16331657 0 23559
0.14650000 0.14650700 10760.81603220 0 43.01232805 0 2879.72345581 0 -29.80293382 0 454.60751240 0 23044
0.14750000 0.14750500 10860.84341461 0 106.94769615 0 3054.36723517 0 -51.82445921 0 -9.58321893 0 23649
0.14850000 0.14849900 10636.14165474 0 195.52175504 0 3473.02290889 0 -305.45443924 0 658.27296235 0 23640
0.14950000 0.14949500 10701.23585235 0 209.65779214 0 3469.75657307 0 -38.28444536 0 537.07308042 0 24457
0.15050000 0.15050000 10518.02209358 0 115.45334535 0 3584.59872609 0 28.37792562 0 473.65301832 0 24591
0.15150000 0.15149900 10372.11099712 0 233.33263707 0 3572.38595181 0 170.67988708 0 355.15810535 0 25020
0.15250000 0.15250500 10253.82535108 0 263.91439821 0 3502.56387151 0 28.05970700 0 696.37947545 0 25297
0.15350000 0.15350100 9979.56386532 0 198.09164163 0 3236.06408545 0 426.19703415 0 690.21108329 0 25452
0.15450000 0.15450400 9797.02551836 0 16.62254908 0 2864.63187708 0 584.33972784 0 797.68238968 0 26061
0.15550000 0.15549900 9763.04455349 0 -44.34377511 0 2560.78513941 0 721.47047072 0 540.59186525 0 26128
0.15650000 0.15649500 9886.37917965 0 -28.02084314 0 2451.27984695 0 543.28797634 0 597.86346537 0 26331
0.15750000 0.15749700 9684.79643400 0 173.41807301 0 2388.62156080 0 -135.86074722 0 724.90621311 0 27345
0.15850000 0.15849900 9555.33881222 0 403.04480296 0 2324.34671523 0 -486.01637622 0 948.09660064 0 26980
0.15950000 0.15949700 9325.21161319 0 285.57408003 0 2862.91566673 0 -258.46902887 0 1207.21557498 0 27777
0.16050000 0.16050000 9165.13901328 0 30.64055519 0 2542.60438205 0 -148.13552652 0 1027.23714951 0 28224
0.16150000 0.16150500 9200.28257226 0 70.73621144 0 3120.17006157 0 95.76121566 0 932.26317615 0 28075
0.16250000 0.16249700 9119.59854131 0 129.33029004 0 3111.77723936 0 -35.94763120 0 472.31326702 0 28590
0.16350000 0.16349900 8993.47368930 0 133.18013738 0 2995.21887599 0 47.33928187 0 455.50437071 0 29163
0.16450000 0.16449100 8911.04023102 0 74.58074407 0 2626.66547208 0 137.15731646 0 704.23086098 0 28996
0.16550000 0.16550500 9011.33334923 0 -82.93957424 0 2809.86815853 0 31.43643390 0 298.62945822 0 30777
0.16650000 0.16650700 8966.16933629 0 -13.52451260 0 2599.09538328 0 106.06799994 0 -152.13042131 0 29211
0.16750000 0.16749900 8937.62488291 0 193.78672174 0 2653.29441327 0 -135.77991925 0 -427.22122420 0 30922
0.16850000 0.16850800 8772.09362687 0 222.79621277 0 2316.17533951 0 -297.85550271 0 -544.21805163 0 30867
0.16950000 0.16949900 8669.77427322 0 110.11017356 0 2450.77052001 0 45.16091268 0 -525.51800224 0 30852
0.17050000 0.17049200 8592.40086739 0 61.28509642 0 2338.90682237 0 179.82341291 0 -543.64561243 0 31257
0.17150000 0.17149500 8493.43642816 0 76.91324001 0 2395.71892101 0 319.98686556 0 -618.25204429 0 32608
0.17250000 0.17250900 8445.26074288 0 99.68214732 0 2110.28545951 0 314.22372049 0 -560.47222446 0 32361
0.17350000 0.17350400 8320.25419567 0 60.31239269 0 2187.42634652 0 168.65475887 0 -154.73795381 0 32508
0.17450000 0.17449800 8382.22599768 0 -15.48464626 0 2028.32811120 0 326.37891868 0 -59.48495786 0 32791
0.17550000 0.17549800 8277.71432372 0 85.58619204 0 2121.34671200 0 26.32688817 0 33.18442182 0 33633
0.17650000 0.17650100 8253.89775303 0 193.26410801 0 1976.96359637 0 31.09263822 0 105.55391190 0 33984
0.17750000 0.17750300 8022.95120197 0 189.51723329 0 2074.30040385 0 166.15684239 0 256.91447446 0 34069
0.17850000 0.17849800 7882.66484651 0 198.65965190 0 2001.03483053 0 31.37520395 0 125.85247282 0 34536
