### header ###
fiducial parameters:
Omega_m = 0.31
Omega_nu = 0
Omega_de = 0.69
Omega_k = 0
H_0 = 100
w_de = -1
zeff = 0
beta = 0
fgrowth = 0
b_1 = 2
gamma = 0.55
Lx = 3500 Ly = 3500 Lz = 3500
nx = 700 ny = 700 nz = 700
xoffset = -685.467585 yoffset = -31.7331281 zoffset = 572.489161
bins = 400 dk = 0.001
kx_ny = 0.628318531 ky_ny = 0.628318531 kz_ny = 0.628318531
############################
A(data) = 8.03841426 (not used)
A(ran) = 8.03166199 (used)
Ngal = 477400
weighted Ngal = 0
Nran = 23820508
weighted Nran = 0
SN(data) = 3492.06261
SN(ran) = 69.9586888
SN(data+ran) = 3562.0213
############################
13 columns: k_central k_mean P_0(k) sigma^{lin}_{P_0(k)} P^img_1(k) sigma^{lin}_{P_1(k)} P_2(k) sigma^{lin}_{P_2(k)} P^img_3(k) sigma^{lin}_{P_3(k)} P_4(k) sigma^{lin}_{P_4(k)} N_modes
### header ###
0.00050000 0 0 0 0 0 0 0 0 0 0 0 0
0.00150000 0.00179520 2126.53963234 0 -7782.37172831 0 -24272.75046744 0 21999.49145892 0 2764.05087843 0 3
0.00250000 0.00253879 21363.05422834 0 -30291.66623885 0 -28735.56170884 0 7184.63227297 0 1845.41330520 0 6
0.00350000 0.00331552 55084.59452627 0 -62864.23139035 0 -64806.20644029 0 3215.21489781 0 -19239.16088163 0 7
0.00450000 0.00420575 83944.05554983 0 -48120.43438509 0 -35638.27044728 0 -69174.12785800 0 -59645.17439582 0 24
0.00550000 0.00557378 113239.98761774 0 11376.70302791 0 -19400.26320774 0 -77266.22572846 0 16623.76703622 0 45
0.00650000 0.00659388 76137.51293644 0 13146.72487342 0 13171.52688101 0 -32732.44952187 0 20987.92386349 0 40
0.00750000 0.00754703 81473.26626655 0 10723.59087616 0 -16752.53817386 0 -15894.65444691 0 17850.80207262 0 57
0.00850000 0.00846663 87560.05538910 0 -10243.37307645 0 11249.81418549 0 12736.82740863 0 -350.35493084 0 75
0.00950000 0.00948925 81891.91086794 0 -7863.13326553 0 7242.47409783 0 35495.99107336 0 -15138.96827804 0 112
0.01050000 0.01054430 99441.10281250 0 -1146.28457150 0 -506.09160835 0 8498.58505920 0 17244.14939581 0 105
0.01150000 0.01145670 99543.41109383 0 -4533.75162652 0 5314.18444136 0 21275.25069253 0 17921.77567471 0 144
0.01250000 0.01249090 102260.55960432 0 -6309.47571931 0 4063.03388150 0 1190.87282354 0 15612.19944079 0 169
0.01350000 0.01339930 103179.67328752 0 -1522.32286699 0 1464.46996981 0 -6920.87842347 0 19250.89754594 0 180
0.01450000 0.01448870 114180.02799484 0 8170.71137667 0 36803.41118795 0 -27166.28111229 0 10880.65180371 0 267
0.01550000 0.01550050 95838.38976301 0 11080.51833901 0 49634.46408079 0 -7559.06508137 0 46821.42923736 0 238
0.01650000 0.01653350 103166.16505124 0 14144.00916984 0 60813.96900368 0 -9477.97647871 0 28591.51076295 0 315
0.01750000 0.01747870 79950.37871099 0 5641.40485672 0 63361.15732821 0 4124.80638166 0 29097.40528391 0 297
0.01850000 0.01844180 84178.78883599 0 6552.77898487 0 82647.92920656 0 21387.74551269 0 -3966.09567771 0 388
0.01950000 0.01947590 78178.14240052 0 2685.62560174 0 59135.62600767 0 21441.66773456 0 13000.12729282 0 399
0.02050000 0.02045430 81220.70653744 0 1145.69773828 0 57775.39090370 0 27213.44921602 0 -1599.59662190 0 462
0.02150000 0.02154770 79064.14983251 0 -34.04141976 0 56607.92497482 0 5397.06079263 0 -267.46529278 0 571
0.02250000 0.02255340 80995.27400413 0 3149.06882935 0 53107.07731366 0 5274.82232663 0 -8542.67505663 0 510
0.02350000 0.02348930 73157.95032775 0 1690.84365073 0 41889.70503989 0 -1230.19064898 0 -5431.76145861 0 555
0.02450000 0.02439640 76101.97077378 0 946.89968233 0 47746.52197596 0 -4920.95082542 0 -19292.41876401 0 592
0.02550000 0.02547300 73434.86917146 0 4633.32504361 0 44525.80413271 0 -1644.02986140 0 -17570.56153146 0 837
0.02650000 0.02652900 73238.66757567 0 1391.20439649 0 43396.86989420 0 4553.54894329 0 -14083.33282983 0 723
0.02750000 0.02749970 71365.45166285 0 -2142.57235868 0 33632.74025288 0 8196.16665143 0 -851.32558896 0 826
0.02850000 0.02848090 75783.86288174 0 -1055.95654563 0 42574.08543693 0 14160.83910356 0 -7711.32061995 0 831
0.02950000 0.02946900 71792.06833812 0 1793.09657043 0 33517.14518177 0 10843.74774509 0 -13986.89288066 0 996
0.03050000 0.03053250 69362.13593342 0 5045.25981616 0 36137.85374310 0 5781.65799520 0 3259.70349893 0 1041
0.03150000 0.03150510 65271.57625242 0 6388.02279157 0 30659.15669958 0 4161.35612589 0 9654.27003447 0 1036
0.03250000 0.03246190 62391.66456709 0 1582.01377009 0 27035.84912593 0 4021.47944646 0 6276.48019135 0 1059
0.03350000 0.03345080 59507.98829132 0 3068.10799027 0 28994.32193985 0 7354.75854381 0 5353.07044612 0 1302
0.03450000 0.03451200 55126.89080708 0 3267.63128350 0 21185.56486150 0 2899.55398956 0 -1591.93457313 0 1339
0.03550000 0.03553350 50913.09615084 0 4923.64140036 0 19663.56309193 0 811.73649157 0 -6000.14818085 0 1365
0.03650000 0.03647120 48192.73666615 0 3013.47713962 0 14142.45904436 0 -2416.32451750 0 -1941.27749348 0 1308
0.03750000 0.03744890 47653.29300099 0 -1441.12950910 0 15543.66175016 0 2588.33308356 0 -8782.34659965 0 1579
0.03850000 0.03847530 48149.88676910 0 -1687.75447211 0 12742.36357104 0 3511.87569668 0 -7283.93995427 0 1662
0.03950000 0.03950240 50796.72601700 0 679.88281870 0 17572.99744292 0 -25.26460932 0 -8512.31474198 0 1683
0.04050000 0.04050350 46649.80820267 0 3894.21414499 0 17068.65304743 0 -886.83010572 0 1344.75599387 0 1822
0.04150000 0.04152450 45848.39333230 0 4067.39637748 0 21484.40690836 0 1541.73265240 0 2507.90371607 0 1887
0.04250000 0.04250150 43617.20915809 0 722.25992748 0 21454.40090810 0 3992.79105285 0 8697.98655686 0 1920
0.04350000 0.04349210 44145.80194494 0 -1711.85892324 0 18386.48114735 0 5960.57569195 0 824.00019854 0 2005
0.04450000 0.04448520 43898.77837823 0 1996.09657366 0 18899.35123295 0 3940.26394391 0 6691.72558902 0 2151
0.04550000 0.04548030 42485.17466864 0 270.82906506 0 13122.36575882 0 2223.00172616 0 -708.42284315 0 2274
0.04650000 0.04648670 40318.54214812 0 103.43057217 0 12141.13633339 0 2140.21395350 0 5986.01989438 0 2311
0.04750000 0.04749250 41352.58656294 0 707.33554085 0 7549.98577501 0 3223.20911633 0 -3187.81089389 0 2568
0.04850000 0.04851840 39811.54039468 0 -213.37920051 0 5776.33220696 0 518.59669200 0 -5875.09734435 0 2493
0.04950000 0.04949480 39248.40195440 0 984.32303298 0 5228.52893656 0 -1981.65826209 0 -3258.91736387 0 2644
0.05050000 0.05050630 38604.98915919 0 1281.58838078 0 6910.07183444 0 -2732.28437852 0 -6428.40356018 0 2829
0.05150000 0.05149060 37776.88998600 0 1348.36557177 0 7844.13315615 0 1027.48074066 0 -5023.53591487 0 2784
0.05250000 0.05249300 36113.05173550 0 1045.22524842 0 7478.31461646 0 -579.90415452 0 -6409.83527146 0 3055
0.05350000 0.05348950 34909.60075097 0 2668.14240085 0 8394.00695129 0 678.65711234 0 -2941.39630505 0 3009
0.05450000 0.05448610 33797.05355319 0 1355.49614895 0 11479.78637197 0 -704.41244710 0 -4348.52270463 0 3336
0.05550000 0.05550870 32065.67412130 0 1070.42032354 0 9851.41277787 0 795.78348597 0 -1139.86262311 0 3349
0.05650000 0.05647670 32595.70631036 0 28.16234745 0 11627.04829206 0 935.01575610 0 -1056.95194763 0 3324
0.05750000 0.05747970 32693.69638501 0 -324.64942154 0 11845.39453748 0 -607.91049291 0 1149.35160547 0 3639
0.05850000 0.05849280 32272.50514891 0 335.01090311 0 10498.05869193 0 1643.15514774 0 55.56668355 0 3846
0.05950000 0.05951020 32722.26298304 0 401.57329099 0 12100.39017806 0 525.99632667 0 779.44627070 0 3787
0.06050000 0.06049470 31014.46760301 0 -230.53687505 0 11189.24856873 0 1498.72774280 0 218.90539783 0 3930
0.06150000 0.06148310 32438.14712820 0 206.00613941 0 9964.49443124 0 2549.31421089 0 1100.02550564 0 4083
0.06250000 0.06249100 31549.37161500 0 468.68154448 0 8591.39328583 0 1341.15748831 0 1732.02162673 0 4303
0.06350000 0.06350600 31229.71359749 0 105.26016312 0 8188.22779453 0 1886.46948563 0 -105.35582801 0 4470
0.06450000 0.06451750 30857.90493008 0 605.99387349 0 8504.65269320 0 -853.17023827 0 1422.81588385 0 4479
0.06550000 0.06550280 30250.36646728 0 1312.23657588 0 8204.64805224 0 -1381.08429160 0 572.38161703 0 4636
0.06650000 0.06648880 29459.58102873 0 593.92061050 0 9686.72301852 0 -573.24747284 0 2975.46584851 0 4653
0.06750000 0.06749660 28943.61069218 0 182.08659611 0 9387.13912590 0 722.48801737 0 2584.29168500 0 5220
0.06850000 0.06852730 30544.66886096 0 -1606.88221163 0 9986.56157461 0 1690.40075774 0 1114.39627602 0 5029
0.06950000 0.06949320 31567.53022771 0 -595.22050144 0 9771.27129083 0 573.95610162 0 4534.69277413 0 5040
0.07050000 0.07048030 31604.40106935 0 1020.55389425 0 10170.30680497 0 183.96003347 0 2351.97216565 0 5475
0.07150000 0.07148790 30499.82594544 0 1441.18487072 0 10650.82355745 0 -1183.83082496 0 4108.10931584 0 5509
0.07250000 0.07249820 29279.87719692 0 1771.31730751 0 10132.42838177 0 223.14831270 0 3196.46945190 0 5916
0.07350000 0.07351270 28351.68420738 0 978.03395249 0 12293.93441589 0 -736.83332140 0 3451.16613970 0 5721
0.07450000 0.07449140 27012.59724381 0 486.45816198 0 11000.25505640 0 1542.72916163 0 1068.46052205 0 6028
0.07550000 0.07549160 26499.39498847 0 442.29176551 0 9727.13700410 0 1570.27710578 0 884.91127183 0 6183
0.07650000 0.07648840 26359.44080276 0 4.74109198 0 8047.59819701 0 1388.32559204 0 750.61836580 0 6330
0.07750000 0.07749960 26042.66158970 0 81.95845554 0 6721.27762396 0 1802.77378232 0 -968.92364362 0 6583
0.07850000 0.07848650 25213.56590728 0 914.77886803 0 4902.29395811 0 815.64059330 0 -831.69989322 0 6549
0.07950000 0.07947320 25320.74601152 0 2.05639645 0 5412.59526435 0 882.79313609 0 -1126.42082078 0 6828
0.08050000 0.08048110 24279.06169258 0 318.22304422 0 5306.72169443 0 -527.42465657 0 -1011.79236363 0 7147
0.08150000 0.08149960 24748.63898814 0 794.01966463 0 6263.86881338 0 -202.31241185 0 -1674.34588675 0 7386
0.08250000 0.08250610 23964.82911423 0 181.52855094 0 6919.39473194 0 -1093.09423030 0 439.52368430 0 7227
0.08350000 0.08350160 23888.87296597 0 586.19877118 0 6760.40721987 0 146.63301204 0 -26.12492896 0 7798
0.08450000 0.08449610 23773.94223436 0 113.58987308 0 7504.86605138 0 -183.43299081 0 739.77191641 0 7371
0.08550000 0.08548940 23304.14349230 0 683.85224715 0 7734.31783859 0 475.75011665 0 708.57896293 0 8256
0.08650000 0.08650700 22898.01061795 0 787.28104774 0 7764.68922557 0 -787.47592066 0 702.04296959 0 8037
0.08750000 0.08749060 22255.81577847 0 611.05835486 0 7747.21709701 0 337.73469501 0 1471.27944958 0 8155
0.08850000 0.08849210 21720.35815024 0 724.22194344 0 8393.17652693 0 713.60912010 0 479.90666738 0 8718
0.08950000 0.08949900 20816.74572179 0 499.47921596 0 7005.95816737 0 816.62603021 0 1100.95115200 0 8571
0.09050000 0.09049190 20739.46089456 0 260.17748859 0 6695.11372042 0 1890.62160743 0 314.29569060 0 8932
0.09150000 0.09150830 20239.87759874 0 65.63286621 0 5779.06707119 0 1031.26636852 0 1005.47892401 0 9285
0.09250000 0.09250820 20318.04821196 0 209.55260505 0 5978.72323232 0 209.04881427 0 96.97684620 0 9204
0.09350000 0.09350330 19267.06314017 0 927.51314880 0 6044.99109636 0 -52.93733857 0 62.87541444 0 9349
0.09450000 0.09448040 19079.83012749 0 1029.83471692 0 5882.89226102 0 -522.89718296 0 924.51697771 0 9564
0.09550000 0.09549270 18595.52663992 0 -98.68430941 0 5753.35713297 0 -426.68200198 0 1408.16719811 0 10155
0.09650000 0.09649430 18916.40261317 0 -123.08328438 0 6867.42123924 0 108.54166803 0 762.47350399 0 9913
0.09750000 0.09749140 18948.06946215 0 206.49885787 0 7036.96067687 0 494.69043548 0 620.98137236 0 10476
0.09850000 0.09850240 18551.23734065 0 343.44358569 0 6528.06555588 0 452.40744146 0 2400.29179116 0 10575
0.09950000 0.09950330 18300.67063000 0 227.35801059 0 6129.51722403 0 424.46089362 0 2168.58124968 0 10882
0.10050000 0.10051200 18441.17843195 0 -275.60123706 0 5837.40715066 0 1170.35580566 0 969.99212297 0 10875
0.10150000 0.10150300 18179.53939649 0 360.16058170 0 5890.74253932 0 406.10740800 0 996.34204157 0 11118
0.10250000 0.10250800 18193.26907926 0 428.56540443 0 5443.30989339 0 -267.69338268 0 749.42034026 0 11575
0.10350000 0.10349800 17609.53611482 0 460.40608891 0 5373.76462121 0 249.75953817 0 863.99897195 0 11364
0.10450000 0.10450100 17475.45026127 0 211.89329452 0 4845.07218344 0 329.46034668 0 194.45106123 0 12093
0.10550000 0.10551000 16892.27091307 0 201.61485539 0 5091.28747043 0 303.05617368 0 -60.73114801 0 12067
0.10650000 0.10649700 16643.14360465 0 624.17020191 0 4811.29052042 0 -167.19985539 0 -480.91757064 0 12054
0.10750000 0.10749900 16151.31093621 0 762.21773328 0 5524.22644317 0 -325.32040443 0 400.87905622 0 12807
0.10850000 0.10850100 15782.82396624 0 389.56203302 0 4973.99833363 0 34.65825898 0 268.98220128 0 12736
0.10950000 0.10950300 15523.39939574 0 -166.74367561 0 5024.70958130 0 195.70998456 0 530.12408936 0 12933
0.11050000 0.11050200 15788.36012865 0 -82.23659234 0 5416.06090202 0 546.83333475 0 -563.28680943 0 13428
0.11150000 0.11150900 15689.92716101 0 227.51855930 0 5353.42476052 0 -318.69251079 0 -562.84170197 0 13453
0.11250000 0.11250000 15528.16049541 0 510.64011938 0 5210.97930172 0 -578.34960011 0 -205.69722155 0 13668
0.11350000 0.11349100 14952.62105134 0 529.84063785 0 5679.09505041 0 -266.63819012 0 -447.08165322 0 13791
0.11450000 0.11448600 14704.37952891 0 214.91271750 0 5864.26861067 0 722.67735412 0 -112.99639647 0 14205
0.11550000 0.11549300 14283.40973930 0 359.19064605 0 5727.35931429 0 710.74913860 0 -44.89174447 0 14776
0.11650000 0.11649800 14167.70394495 0 221.77645165 0 5244.58380755 0 1295.40664216 0 206.57525691 0 14553
0.11750000 0.11747300 13990.10385486 0 -77.82759260 0 4502.63839378 0 819.48601171 0 403.20756613 0 14568
0.11850000 0.11849100 14034.61460063 0 -64.68939341 0 4252.80245657 0 795.86763564 0 623.50586242 0 16015
0.11950000 0.11950300 13989.32879212 0 177.64327216 0 4072.02460925 0 555.09550353 0 1255.51305584 0 15270
0.12050000 0.12050700 13801.43143995 0 44.31808732 0 3798.37210136 0 291.05709528 0 838.28460479 0 15999
0.12150000 0.12150000 13873.62299776 0 181.63484526 0 4056.61193311 0 -20.93499815 0 1724.59209678 0 15670
0.12250000 0.12250700 13616.85578522 0 266.42781595 0 3806.20023501 0 255.04878773 0 1578.19381803 0 16887
0.12350000 0.12352200 13344.80876443 0 334.73963115 0 4196.21180442 0 -69.09108542 0 2257.91276632 0 16407
0.12450000 0.12449800 13327.20376796 0 231.79690561 0 4330.40838122 0 159.55773680 0 2274.02299893 0 16306
0.12550000 0.12549900 13300.96235814 0 -104.59914533 0 4958.27563239 0 -34.69446548 0 2550.05605666 0 17523
0.12650000 0.12650100 13438.14846265 0 -16.77069679 0 4645.80355368 0 -263.00868204 0 2321.14681336 0 17154
0.12750000 0.12750600 13548.98243408 0 37.70447698 0 4833.80055678 0 -229.27463002 0 2008.97368742 0 18007
0.12850000 0.12850300 13253.46208467 0 216.65771589 0 4911.52827700 0 -161.88624671 0 2203.07154149 0 17496
0.12950000 0.12949900 13347.68756888 0 108.57599223 0 4770.88760716 0 89.46670972 0 1606.64969281 0 18405
0.13050000 0.13049000 13015.40710107 0 262.48053215 0 4395.29220466 0 201.93706004 0 873.06166981 0 18100
0.13150000 0.13148800 12752.21794013 0 240.32038126 0 3765.13298226 0 596.78502094 0 503.12976146 0 19059
0.13250000 0.13249300 12555.13055836 0 -34.94381423 0 3364.90165704 0 621.92694890 0 413.63658888 0 18957
0.13350000 0.13349100 12413.84769367 0 158.95429510 0 2830.42946572 0 423.83973620 0 50.09817304 0 19468
0.13450000 0.13450700 12415.84071214 0 126.47805917 0 2749.67900081 0 149.38448476 0 443.84853438 0 19953
0.13550000 0.13551000 12147.66900503 0 -92.63250884 0 2506.58610942 0 39.42644494 0 265.47891771 0 19956
0.13650000 0.13649900 12300.24564103 0 240.98139905 0 2825.20332840 0 -93.40458204 0 347.43183709 0 19723
0.13750000 0.13749600 12114.45203058 0 221.75873593 0 3287.67219143 0 236.36091790 0 354.17488290 0 20946
0.13850000 0.13851100 11877.50427946 0 448.88312047 0 3529.40318687 0 -369.06605255 0 681.26685930 0 20955
0.13950000 0.13949800 11592.61336187 0 418.87601298 0 3349.32289602 0 -109.67038082 0 652.47438584 0 20506
0.14050000 0.14048300 11582.53754629 0 45.67555434 0 3461.61841433 0 202.91142463 0 400.01098596 0 21447
0.14150000 0.14148400 11277.05210454 0 82.58614563 0 3337.92947378 0 144.10962921 0 88.17611954 0 21771
0.14250000 0.14249400 11248.48550651 0 143.05000773 0 3387.35633177 0 101.21854312 0 -326.73434031 0 22470
0.14350000 0.14350900 11287.01719688 0 61.29262561 0 3062.72684041 0 -93.31312464 0 -478.65881638 0 22519
0.14450000 0.14449900 11117.94279690 0 138.26454894 0 2920.95679343 0 -251.74148431 0 -1031.45791974 0 22218
0.14550000 0.14550500 11008.85825279 0 282.14165933 0 2947.07640768 0 -251.93967892 0 -938.83017200 0 23559
0.14650000 0.14650700 10821.54773383 0 273.99242826 0 2961.18254950 0 0.78282997 0 -843.77647790 0 23044
0.14750000 0.14750500 10703.06278594 0 26.78251433 0 2713.66072818 0 142.70676566 0 -920.15005280 0 23649
0.14850000 0.14849900 10525.94987815 0 86.71302254 0 2845.70927397 0 344.08024437 0 -1134.34860535 0 23640
0.14950000 0.14949500 10562.89822607 0 269.77830144 0 2627.42946249 0 467.97180846 0 -1207.75811889 0 24457
0.15050000 0.15050000 10245.86434953 0 176.99775562 0 2470.39067959 0 425.65781193 0 -715.88337561 0 24591
0.15150000 0.15149900 10049.83991094 0 43.65718025 0 2201.28889720 0 439.75620312 0 -135.92053778 0 25020
0.15250000 0.15250500 10065.58475684 0 -2.48306849 0 2210.62286702 0 480.05171484 0 -236.40409997 0 25297
0.15350000 0.15350100 10010.15669879 0 77.66781895 0 2356.30144466 0 204.16591903 0 -15.50878393 0 25452
0.15450000 0.15450400 9841.13766044 0 279.07241089 0 2142.21804429 0 -95.05845520 0 246.51645423 0 26061
0.15550000 0.15549900 9573.41991865 0 409.74466670 0 2478.92744202 0 -174.87519095 0 671.10578682 0 26128
0.15650000 0.15649500 9478.17578056 0 317.45683934 0 2688.96944383 0 -308.81710428 0 719.32243970 0 26331
0.15750000 0.15749700 9208.12177823 0 117.38878773 0 2795.27483442 0 -74.16132440 0 673.23942381 0 27345
0.15850000 0.15849900 9123.18597455 0 145.66196915 0 2713.90431932 0 335.42057913 0 463.29928739 0 26980
0.15950000 0.15949700 8947.29102248 0 64.66414851 0 2614.61878268 0 217.97642977 0 235.11085243 0 27777
0.16050000 0.16050000 9000.52676021 0 42.34012721 0 2387.75791947 0 239.87527380 0 186.85655364 0 28224
0.16150000 0.16150500 8921.29320380 0 64.86643989 0 2263.55965198 0 173.40035729 0 28.63768236 0 28075
0.16250000 0.16249700 8839.59051897 0 77.95514578 0 2135.48607080 0 9.96803758 0 72.48552804 0 28590
0.16350000 0.16349900 8809.97205008 0 145.76937070 0 2094.52954129 0 -106.17174762 0 -168.65365164 0 29163
0.16450000 0.16449100 8613.94761149 0 109.31949885 0 2090.32205786 0 20.80910582 0 124.93789879 0 28996
0.16550000 0.16550500 8652.14713211 0 116.49525111 0 2118.71149870 0 119.14928737 0 -73.48303378 0 30777
0.16650000 0.16650700 8397.77154173 0 181.95040651 0 2114.58152154 0 -57.35298171 0 -144.80829291 0 29211
0.16750000 0.16749900 8471.34714015 0 146.65072776 0 2252.34338693 0 -12.89870480 0 -225.90421434 0 30922
0.16850000 0.16850800 8174.27666526 0 159.53116322 0 2235.03734324 0 -127.86209977 0 76.05790292 0 30867
0.16950000 0.16949900 8285.84141014 0 39.20898448 0 2399.43922215 0 -193.37372403 0 -170.39532833 0 30852
0.17050000 0.17049200 8275.58843735 0 -41.44182950 0 2316.48536461 0 252.59405332 0 366.51720338 0 31257
0.17150000 0.17149500 8320.34277427 0 -34.18934602 0 2147.70991740 0 134.61843238 0 32.21260387 0 32608
0.17250000 0.17250900 8376.16943601 0 8.40571040 0 2135.13175640 0 309.09944857 0 26.04288304 0 32361
0.17350000 0.17350400 8317.92900746 0 58.07788682 0 2127.39220136 0 141.42901937 0 194.96813880 0 32508
0.17450000 0.17449800 8256.34473682 0 176.26808942 0 2100.84076644 0 -207.72234976 0 -127.39927660 0 32791
0.17550000 0.17549800 8100.68999452 0 220.51088493 0 2410.79942741 0 -132.99412233 0 258.15457484 0 33633
0.17650000 0.17650100 7956.11864936 0 116.75545075 0 2294.77253564 0 -33.54272225 0 -18.07800618 0 33984
0.17750000 0.17750300 7903.61368507 0 119.18139712 0 2298.94680210 0 174.88958498 0 196.94122708 0 34069
0.17850000 0.17849800 7855.74802488 0 14.22007604 0 2187.52599745 0 252.16112542 0 122.88287530 0 34536
