### header ###
fiducial parameters:
Omega_m = 0.31
Omega_nu = 0
Omega_de = 0.69
Omega_k = 0
H_0 = 100
w_de = -1
zeff = 0
beta = 0
fgrowth = 0
b_1 = 2
gamma = 0.55
Lx = 3500 Ly = 3500 Lz = 3500
nx = 700 ny = 700 nz = 700
xoffset = -685.467585 yoffset = -31.7331281 zoffset = 572.489161
bins = 400 dk = 0.001
kx_ny = 0.628318531 ky_ny = 0.628318531 kz_ny = 0.628318531
############################
A(data) = 8.0241767 (not used)
A(ran) = 8.02246355 (used)
Ngal = 476784
weighted Ngal = 0
Nran = 23820508
weighted Nran = 0
SN(data) = 3487.78564
SN(ran) = 69.878567
SN(data+ran) = 3557.66421
############################
13 columns: k_central k_mean P_0(k) sigma^{lin}_{P_0(k)} P^img_1(k) sigma^{lin}_{P_1(k)} P_2(k) sigma^{lin}_{P_2(k)} P^img_3(k) sigma^{lin}_{P_3(k)} P_4(k) sigma^{lin}_{P_4(k)} N_modes
### header ###
0.00050000 0 0 0 0 0 0 0 0 0 0 0 0
0.00150000 0.00179520 15458.18340256 0 -18532.52511171 0 23025.45307662 0 -50248.31376873 0 9779.98521046 0 3
0.00250000 0.00253879 25111.58979570 0 -16008.25649955 0 -12760.52218375 0 -10640.98026069 0 -10767.75837986 0 6
0.00350000 0.00331552 43185.49921341 0 -21189.44017519 0 -538.78154014 0 -10905.98528290 0 826.84024985 0 7
0.00450000 0.00420575 52305.88388978 0 -18257.93145620 0 -763.41022267 0 -24073.33789745 0 -3015.63624296 0 24
0.00550000 0.00557378 85443.46977677 0 -14880.09732378 0 18071.25205976 0 -28281.59639128 0 -21897.40462409 0 45
0.00650000 0.00659388 57627.35392087 0 -8594.12815006 0 11689.27475754 0 -24765.46892187 0 -10341.87247804 0 40
0.00750000 0.00754703 91014.84217902 0 10900.21660167 0 28399.95954359 0 -33031.73446172 0 -10275.22815495 0 57
0.00850000 0.00846663 81169.66312002 0 7753.03006754 0 5885.07350901 0 -17889.88737923 0 -11150.93832486 0 75
0.00950000 0.00948925 71581.02982707 0 3500.30511724 0 7414.23907274 0 11266.31194947 0 -11982.13774899 0 112
0.01050000 0.01054430 69508.62279077 0 -2046.05490324 0 -13863.76862868 0 15026.14128814 0 -45182.39299446 0 105
0.01150000 0.01145670 74037.20364159 0 -5379.35614524 0 842.94162461 0 -3412.57908771 0 -59249.78167655 0 144
0.01250000 0.01249090 66068.23002312 0 3067.65402495 0 -16188.95684059 0 -16613.13760439 0 -43136.67026096 0 169
0.01350000 0.01339930 69141.90739277 0 3397.56501525 0 -1993.35063710 0 -33232.14354094 0 -24409.27223245 0 180
0.01450000 0.01448870 72152.25106447 0 -6282.42602978 0 4776.70057769 0 -23084.35784465 0 -16879.42701628 0 267
0.01550000 0.01550050 85848.16324889 0 -1006.74116904 0 18232.68655562 0 -18264.57485109 0 -6756.64262943 0 238
0.01650000 0.01653350 83707.88286145 0 2266.77062617 0 26649.64643626 0 3738.65905361 0 -3618.32502749 0 315
0.01750000 0.01747870 79519.44382905 0 1849.07824471 0 24092.05012640 0 21006.19319944 0 10577.00436788 0 297
0.01850000 0.01844180 87134.65666957 0 -5866.77095608 0 26184.38734738 0 31104.59632704 0 -8199.46620423 0 388
0.01950000 0.01947590 92310.96852229 0 2121.05883156 0 22845.30635182 0 20360.01232302 0 13115.16874769 0 399
0.02050000 0.02045430 83574.79351713 0 3329.12697555 0 1889.78011075 0 13586.29616872 0 29247.32456196 0 462
0.02150000 0.02154770 82219.31951283 0 2164.40698322 0 2957.06364467 0 17126.89347598 0 29209.01431809 0 571
0.02250000 0.02255340 79168.45113230 0 1530.46102573 0 -8428.10971173 0 1408.57687413 0 29489.91919873 0 510
0.02350000 0.02348930 75193.26507591 0 3190.59004742 0 7303.85906662 0 -6804.28684313 0 10314.81171618 0 555
0.02450000 0.02439640 75380.94098159 0 10001.02203082 0 15909.38063892 0 -14814.32771436 0 24988.02265072 0 592
0.02550000 0.02547300 65001.96514308 0 7633.16107905 0 26273.07666917 0 -8143.89420596 0 24238.31553725 0 837
0.02650000 0.02652900 63843.02490431 0 2535.17485210 0 33710.46797311 0 -1478.42109908 0 21031.88099302 0 723
0.02750000 0.02749970 61960.50823865 0 -1404.22545048 0 24593.84788718 0 7289.08858531 0 4781.83813640 0 826
0.02850000 0.02848090 64677.21385615 0 143.92582862 0 34112.28264077 0 8798.89972526 0 16013.79266196 0 831
0.02950000 0.02946900 61842.58797933 0 -528.72011858 0 24454.89021070 0 10928.65033180 0 4166.31652741 0 996
0.03050000 0.03053250 60731.14801403 0 1000.84183438 0 18150.41918221 0 7518.04211791 0 11711.86230017 0 1041
0.03150000 0.03150510 63459.92246559 0 1032.11783029 0 11830.66834548 0 -919.36723943 0 2383.29577256 0 1036
0.03250000 0.03246190 58126.93721669 0 2774.49208073 0 13988.00011314 0 2140.90043763 0 5719.53118064 0 1059
0.03350000 0.03345080 56853.28769280 0 4963.62356528 0 16670.82441670 0 -1859.63017027 0 11474.02876307 0 1302
0.03450000 0.03451200 54124.18107150 0 1735.83050647 0 12750.00347517 0 2990.96710326 0 10842.90624840 0 1339
0.03550000 0.03553350 52992.47875179 0 -576.13956408 0 13153.03609857 0 4403.05390436 0 7141.39484456 0 1365
0.03650000 0.03647120 54076.23790503 0 -1311.68295964 0 15744.40299912 0 -3759.19821615 0 2718.21145368 0 1308
0.03750000 0.03744890 52250.96515868 0 1199.06634391 0 14531.31909199 0 -789.24749263 0 -5962.26975764 0 1579
0.03850000 0.03847530 51422.86598549 0 3145.69177028 0 14627.98048766 0 -4061.82699810 0 -5847.30580905 0 1662
0.03950000 0.03950240 46712.69900764 0 3145.42603448 0 14324.04517139 0 -2321.19110266 0 -10683.74157914 0 1683
0.04050000 0.04050350 45479.90636233 0 1308.17303267 0 12890.95417011 0 1010.56555004 0 -8758.91756034 0 1822
0.04150000 0.04152450 43965.10160390 0 2262.50778112 0 12196.49795748 0 5112.09236877 0 -11276.05559531 0 1887
0.04250000 0.04250150 42372.56912523 0 1872.28583753 0 8905.11653724 0 2735.47320807 0 -9135.25480860 0 1920
0.04350000 0.04349210 40958.85469238 0 -556.54265638 0 8858.64598998 0 2076.91347251 0 -11751.16905328 0 2005
0.04450000 0.04448520 39529.41755830 0 2258.36673164 0 9008.08915806 0 -3639.14099814 0 -5241.53891822 0 2151
0.04550000 0.04548030 38603.54975696 0 2077.32314853 0 11791.36159237 0 2295.06041608 0 -4990.66218248 0 2274
0.04650000 0.04648670 37313.95608533 0 -837.74538257 0 10405.30582692 0 1866.88254302 0 -13.88447388 0 2311
0.04750000 0.04749250 37696.83707756 0 510.91471304 0 10510.59256362 0 2595.39722679 0 1519.04545884 0 2568
0.04850000 0.04851840 37605.93329080 0 1417.00291332 0 11796.89775478 0 1449.54447596 0 1092.72109296 0 2493
0.04950000 0.04949480 37015.44620822 0 1008.11745902 0 14244.10298620 0 -3569.82824478 0 3471.73851921 0 2644
0.05050000 0.05050630 36604.66295745 0 1188.48120138 0 13733.89025855 0 372.83950085 0 5283.14871489 0 2829
0.05150000 0.05149060 35457.12721325 0 1026.22956796 0 15091.13583482 0 -1252.75604696 0 4923.64140036 0 2784
0.05250000 0.05249300 34888.12044082 0 943.73299743 0 14439.86168899 0 1840.53040995 0 3734.65087203 0 3055
0.05350000 0.05348950 33853.74385626 0 1229.14985044 0 15343.91701043 0 2737.93126418 0 2587.25906805 0 3009
0.05450000 0.05448610 32931.08702912 0 1018.56419748 0 13101.54978816 0 2163.57655886 0 2754.16329236 0 3336
0.05550000 0.05550870 32332.51714943 0 -625.96502576 0 11756.81593894 0 2828.93470186 0 3419.68752024 0 3349
0.05650000 0.05647670 33268.46076635 0 -501.23639391 0 9934.06768264 0 2099.22420702 0 3916.07091418 0 3324
0.05750000 0.05747970 34026.80429317 0 -326.41877905 0 11859.78855975 0 1160.01425428 0 4557.96680090 0 3639
0.05850000 0.05849280 34727.57173095 0 -283.01637299 0 10221.11770356 0 98.03536045 0 6222.10400416 0 3846
0.05950000 0.05951020 33382.72715847 0 1390.70614187 0 12106.92284970 0 -25.45516403 0 4804.34817276 0 3787
0.06050000 0.06049470 33696.73829033 0 1225.08630723 0 10801.57325986 0 -790.60717412 0 4127.41945032 0 3930
0.06150000 0.06148310 32056.92698469 0 662.54687973 0 12692.20593961 0 27.02245161 0 3744.25057765 0 4083
0.06250000 0.06249100 31641.38263425 0 375.55775659 0 12215.87452592 0 -113.44371839 0 2912.11000590 0 4303
0.06350000 0.06350600 31427.02242576 0 271.48897562 0 11814.17058150 0 1087.31115505 0 1113.43298376 0 4470
0.06450000 0.06451750 31181.54898453 0 1355.69545080 0 11113.73531347 0 -1467.89131818 0 432.89911236 0 4479
0.06550000 0.06550280 30299.41686623 0 700.69989659 0 12418.83023984 0 356.23544255 0 3713.86811835 0 4636
0.06650000 0.06648880 29737.27493518 0 396.35490430 0 13615.30565974 0 321.04205812 0 2694.11807487 0 4653
0.06750000 0.06749660 29372.33110916 0 296.31644956 0 11765.67379879 0 1315.97902167 0 1739.25185484 0 5220
0.06850000 0.06852730 30238.62980297 0 -420.90224842 0 13506.13253703 0 2082.56035816 0 2715.78661454 0 5029
0.06950000 0.06949320 29566.65040973 0 -11.20729646 0 12745.46382199 0 60.37140818 0 4371.09917493 0 5040
0.07050000 0.07048030 30374.48722850 0 295.49045413 0 13077.30139681 0 1111.67248412 0 2432.78906450 0 5475
0.07150000 0.07148790 28864.66501623 0 587.44219325 0 12023.43752057 0 430.79315618 0 4159.04201000 0 5509
0.07250000 0.07249820 29313.64778762 0 672.60276513 0 11015.06982701 0 2462.26359317 0 2845.54318909 0 5916
0.07350000 0.07351270 28360.65279048 0 102.87961328 0 9404.74412236 0 1908.82450944 0 661.75410127 0 5721
0.07450000 0.07449140 28205.75096627 0 287.15410078 0 9062.69786406 0 833.84681700 0 -730.15006614 0 6028
0.07550000 0.07549160 27035.84912593 0 1345.23210384 0 8395.74530629 0 -1029.60551979 0 -18.54536901 0 6183
0.07650000 0.07648840 25931.05255553 0 1716.02211737 0 7890.44869086 0 -442.52206986 0 848.74130835 0 6330
0.07750000 0.07749960 25440.65928931 0 490.16074740 0 9024.63121134 0 -66.19844056 0 597.37074692 0 6583
0.07850000 0.07848650 24962.22413389 0 -102.66170993 0 8705.68182261 0 555.37231165 0 561.95702322 0 6549
0.07950000 0.07947320 24898.89043593 0 342.40610885 0 9645.48968089 0 -131.52371759 0 -31.40421344 0 6828
0.08050000 0.08048110 24898.44754294 0 181.09340857 0 10141.13122907 0 843.98020867 0 636.59667205 0 7147
0.08150000 0.08149960 24027.83064245 0 28.19368213 0 9309.86537099 0 -400.21139503 0 434.25990108 0 7386
0.08250000 0.08250610 24379.15550894 0 746.22043839 0 10294.31684294 0 -419.69425779 0 929.35336919 0 7227
0.08350000 0.08350160 23643.95314099 0 1066.66901989 0 10163.05443221 0 125.24570942 0 -171.70629159 0 7798
0.08450000 0.08449610 22840.54525214 0 839.63432118 0 9982.13264468 0 585.70051656 0 750.88742330 0 7371
0.08550000 0.08548940 21913.34877183 0 695.16151972 0 9228.18483080 0 1340.31599162 0 533.43582172 0 8256
0.08650000 0.08650700 22090.94886192 0 165.95643331 0 8883.08261085 0 -66.63945126 0 -104.08439295 0 8037
0.08750000 0.08749060 21000.65703703 0 444.33571667 0 8333.10916479 0 1284.02429224 0 590.99087336 0 8155
0.08850000 0.08849210 20853.39511694 0 626.27947979 0 8353.26079596 0 1052.94598051 0 552.99176181 0 8718
0.08950000 0.08949900 20267.44768754 0 2.67536156 0 8451.41695547 0 395.18455957 0 1871.68793199 0 8571
0.09050000 0.09049190 20289.14944418 0 285.38917220 0 8403.68416318 0 916.75306354 0 1671.76603507 0 8932
0.09150000 0.09150830 20145.98428428 0 547.24633246 0 8451.80448684 0 105.88862828 0 1417.23543214 0 9285
0.09250000 0.09250820 19709.62396318 0 305.64156153 0 7915.56072355 0 184.14494129 0 1850.96053993 0 9204
0.09350000 0.09350330 19528.14855940 0 281.19497556 0 8102.64979601 0 113.41271588 0 1526.37533787 0 9349
0.09450000 0.09448040 19258.64817331 0 161.79102472 0 7721.44072483 0 412.36105706 0 1159.08417899 0 9564
0.09550000 0.09549270 19063.99670300 0 555.53618206 0 7959.66179330 0 309.14927403 0 245.29074787 0 10155
0.09650000 0.09649430 18656.97804267 0 765.45528106 0 7085.09207285 0 -80.14569452 0 674.73086596 0 9913
0.09750000 0.09749140 17546.31314011 0 695.77381928 0 7492.35432433 0 232.84988370 0 249.14170244 0 10476
0.09850000 0.09850240 17340.36789848 0 293.13426341 0 6927.56610766 0 11.31004763 0 938.46921421 0 10575
0.09950000 0.09950330 17220.56534394 0 21.37202281 0 6784.71097285 0 568.09219840 0 757.22079309 0 10882
0.10050000 0.10051200 17139.51592627 0 -356.63183178 0 6473.57864544 0 1543.52636902 0 524.12731824 0 10875
0.10150000 0.10150300 17608.42888234 0 -336.43812578 0 6105.97746147 0 160.87645069 0 -921.29160949 0 11118
0.10250000 0.10250800 17583.95904449 0 149.76647996 0 5888.30662786 0 309.79479057 0 -1080.98332142 0 11575
0.10350000 0.10349800 17245.58879803 0 763.80661189 0 5347.61178999 0 -298.85533365 0 -983.68194538 0 11364
0.10450000 0.10450100 16823.40105270 0 415.05827538 0 5359.41488824 0 -209.43856011 0 -645.48664165 0 12093
0.10550000 0.10551000 16399.88462839 0 160.56974729 0 4723.43162298 0 110.19100153 0 -382.74923156 0 12067
0.10650000 0.10649700 16704.92717714 0 79.72804643 0 5739.69388414 0 783.84419812 0 -1503.80993989 0 12054
0.10750000 0.10749900 16120.75131971 0 386.80280968 0 5517.80449477 0 -13.03190487 0 -913.42029377 0 12807
0.10850000 0.10850100 15921.22802648 0 537.41632249 0 6052.21025215 0 -323.08490205 0 -824.72322135 0 12736
0.10950000 0.10950300 15569.23882049 0 474.17563206 0 6541.50735821 0 -401.60097180 0 55.26928090 0 12933
0.11050000 0.11050200 15428.28812555 0 145.23347018 0 6459.30641875 0 -64.48510902 0 -163.61352938 0 13428
0.11150000 0.11150900 15483.42830315 0 -1.36769785 0 6689.64399196 0 486.16695983 0 763.84204333 0 13453
0.11250000 0.11250000 15455.85821435 0 -28.61664494 0 6374.85779736 0 733.73307045 0 20.61401145 0 13668
0.11350000 0.11349100 15577.87523385 0 67.56454400 0 6363.42008582 0 780.41288466 0 1373.15650703 0 13791
0.11450000 0.11448600 15290.43768156 0 208.25492858 0 5848.87807918 0 1163.47989194 0 617.56998908 0 14205
0.11550000 0.11549300 15138.63610829 0 228.55271444 0 4838.84953689 0 1348.93026033 0 1159.25026386 0 14776
0.11650000 0.11649800 14964.35771565 0 182.37226209 0 4751.67712360 0 159.25324787 0 816.34036423 0 14553
0.11750000 0.11747300 14476.62180739 0 403.13448879 0 4400.27475083 0 40.50212129 0 1124.49423626 0 14568
0.11850000 0.11849100 14259.93641069 0 435.42249519 0 4714.00907456 0 -657.27534588 0 1141.19130208 0 16015
0.11950000 0.11950300 14006.04800259 0 223.53473683 0 4560.83453302 0 42.90293348 0 988.60691546 0 15270
0.12050000 0.12050700 13755.37056870 0 -106.38522205 0 4385.65928207 0 280.48856124 0 471.90691270 0 15999
0.12150000 0.12150000 13848.82099017 0 44.06519542 0 4542.32160593 0 639.38689791 0 -203.22809312 0 15670
0.12250000 0.12250700 13777.84738808 0 54.63395091 0 4042.76045476 0 89.35056104 0 -409.36156427 0 16887
0.12350000 0.12352200 13676.31416950 0 488.51650716 0 4386.70008060 0 -428.32513498 0 -358.75993261 0 16407
0.12450000 0.12449800 13377.25067614 0 379.47403788 0 4429.36174813 0 -504.05872951 0 -8.92237829 0 16306
0.12550000 0.12549900 13167.87301382 0 179.57428561 0 4841.42938858 0 -48.39436370 0 392.40319157 0 17523
0.12650000 0.12650100 13087.04504265 0 5.76983275 0 5150.23652777 0 -19.69224041 0 332.88612398 0 17154
0.12750000 0.12750600 13269.73840215 0 125.80264736 0 5032.67058284 0 123.03678062 0 -321.15610306 0 18007
0.12850000 0.12850300 12948.97315216 0 80.79663650 0 4898.19719792 0 260.15202224 0 119.30429992 0 17496
0.12950000 0.12949900 13072.87246688 0 121.48444068 0 4736.97307624 0 287.18842498 0 205.94856332 0 18405
0.13050000 0.13049000 12910.99507803 0 -63.96072372 0 4429.86000274 0 659.77879853 0 455.54866001 0 18100
0.13150000 0.13148800 12914.31677548 0 79.88150885 0 4302.81614777 0 553.46344285 0 72.39163473 0 19059
0.13250000 0.13249300 12746.57105447 0 149.14421531 0 3771.64350925 0 407.75718440 0 606.79772427 0 18957
0.13350000 0.13349100 12562.43829274 0 250.77044142 0 3781.57538461 0 464.70990157 0 67.51792951 0 19468
0.13450000 0.13450700 12265.81071085 0 182.81626231 0 3518.96198456 0 22.17410202 0 576.14288578 0 19953
0.13550000 0.13551000 12234.69747811 0 355.22786099 0 3522.10652481 0 184.90339554 0 502.08785569 0 19956
0.13650000 0.13649900 11799.88728248 0 283.76375492 0 3578.92969578 0 201.67353871 0 858.89795190 0 19723
0.13750000 0.13749600 11776.96757010 0 124.46289605 0 3783.94486212 0 38.67718072 0 389.09035199 0 20946
0.13850000 0.13851100 11465.72451945 0 193.63281643 0 3665.74779468 0 -132.21463066 0 331.66152485 0 20955
0.13950000 0.13949800 11403.27660748 0 376.23206118 0 3864.23028938 0 -147.32171064 0 639.26731680 0 20506
0.14050000 0.14048300 11239.95981640 0 11.13787298 0 3775.15343622 0 418.71214257 0 950.06415276 0 21447
0.14150000 0.14148400 11226.00868713 0 5.07027220 0 3626.95036852 0 455.47779713 0 882.81085181 0 21771
0.14250000 0.14249400 11244.38874633 0 141.49988225 0 3485.97752893 0 255.89803505 0 438.68108038 0 22470
0.14350000 0.14350900 10924.87466904 0 317.22542775 0 3278.33822160 0 47.80498385 0 196.06540619 0 22519
0.14450000 0.14449900 10621.06114834 0 441.80015429 0 3644.14568896 0 -233.88403884 0 393.07971062 0 22218
0.14550000 0.14550500 10409.08148968 0 274.45192974 0 3122.92707045 0 -216.72636430 0 -58.87586927 0 23559
0.14650000 0.14650700 10199.58203179 0 15.40913300 0 3742.03611268 0 90.08454545 0 -37.41781449 0 23044
0.14750000 0.14750500 10285.51434471 0 21.56778151 0 3327.25575265 0 -103.45736719 0 -77.05939470 0 23649
0.14850000 0.14849900 10272.13897633 0 91.51420403 0 3567.18195915 0 97.24435357 0 -325.63375122 0 23640
0.14950000 0.14949500 10212.50343485 0 84.33280487 0 3157.97097850 0 98.67644806 0 154.33049225 0 24457
0.15050000 0.15050000 10147.54210514 0 150.74527348 0 3598.22875794 0 235.65561081 0 588.27815378 0 24591
0.15150000 0.15149900 10149.39118339 0 30.56017012 0 3292.95369036 0 580.09016957 0 711.38579727 0 25020
0.15250000 0.15250500 10056.00719587 0 41.50128789 0 3437.71326504 0 544.35645569 0 923.09307674 0 25297
0.15350000 0.15350100 9940.96574100 0 74.13630095 0 2954.32878044 0 315.93993084 0 1109.66839332 0 25452
0.15450000 0.15450400 9959.88834412 0 17.48131859 0 2765.03631534 0 411.48855786 0 1074.58683937 0 26061
0.15550000 0.15549900 9838.01526484 0 151.23134854 0 2786.76021663 0 -187.45999534 0 891.74068178 0 26128
0.15650000 0.15649500 9668.23223607 0 297.03172175 0 2780.42684683 0 -180.25301912 0 590.32321217 0 26331
0.15750000 0.15749700 9459.46355161 0 305.89179607 0 2802.62685810 0 -244.51789960 0 310.43366371 0 27345
0.15850000 0.15849900 9252.59930703 0 194.47542035 0 2689.15767335 0 -224.26883197 0 332.67796427 0 26980
0.15950000 0.15949700 9097.25458982 0 167.61949650 0 2723.18292752 0 109.31794872 0 -90.62708936 0 27777
0.16050000 0.16050000 8948.12144684 0 93.05414296 0 2653.36084722 0 281.06764382 0 -471.14181506 0 28224
0.16150000 0.16150500 8790.60655397 0 62.31061515 0 2651.71107082 0 282.40075173 0 -221.91153402 0 28075
0.16250000 0.16249700 8742.13191591 0 46.96758392 0 2306.67528482 0 536.09207244 0 -126.57992456 0 28590
0.16350000 0.16349900 8613.00646388 0 68.83852569 0 2228.33858673 0 385.03677387 0 -59.56811102 0 29163
0.16450000 0.16449100 8782.10300851 0 -19.10429997 0 1843.90746902 0 269.54246092 0 139.99736777 0 28996
0.16550000 0.16550500 8684.75512870 0 -7.73441749 0 1952.10622715 0 84.97046006 0 299.15760811 0 30777
0.16650000 0.16650700 8712.08162635 0 89.05681226 0 1748.65225861 0 33.32016852 0 417.50525917 0 29211
0.16750000 0.16749900 8604.77972654 0 84.03540223 0 1982.07901044 0 14.61347574 0 182.87383840 0 30922
0.16850000 0.16850800 8661.04928127 0 112.91003234 0 1988.24629536 0 -255.89249888 0 490.74315168 0 30867
0.16950000 0.16949900 8568.48464578 0 185.30753540 0 2164.82773157 0 -164.05974407 0 258.84770238 0 30852
0.17050000 0.17049200 8409.36426581 0 223.78164968 0 2293.33313341 0 -235.28690240 0 541.29274341 0 31257
0.17150000 0.17149500 8248.46124155 0 142.06789252 0 2510.72715890 0 30.03080227 0 688.32214468 0 32608
0.17250000 0.17250900 8231.77524805 0 39.37462646 0 2401.70904874 0 228.71437038 0 502.40563141 0 32361
0.17350000 0.17350400 8085.69806671 0 140.60966734 0 2365.02643661 0 412.84713212 0 475.84866034 0 32508
0.17450000 0.17449800 8044.89654976 0 84.91011589 0 2072.55097653 0 217.62986601 0 543.02002608 0 32791
0.17550000 0.17549800 7940.09699535 0 61.88997753 0 2032.53559463 0 214.08340037 0 582.23820059 0 33633
0.17650000 0.17650100 7849.62502926 0 142.82413230 0 1957.02233937 0 175.77758543 0 614.10435142 0 33984
0.17750000 0.17750300 7647.87619874 0 193.40251207 0 1842.06946310 0 -24.39487821 0 691.56522862 0 34069
0.17850000 0.17849800 7552.84243482 0 232.13904045 0 1751.14353169 0 101.71746207 0 768.05174123 0 34536
