### header ###
fiducial parameters:
Omega_m = 0.31
Omega_nu = 0
Omega_de = 0.69
Omega_k = 0
H_0 = 100
w_de = -1
zeff = 0
beta = 0
fgrowth = 0
b_1 = 2
gamma = 0.55
Lx = 3500 Ly = 3500 Lz = 3500
nx = 700 ny = 700 nz = 700
xoffset = -685.467585 yoffset = -31.7331281 zoffset = 572.489161
bins = 400 dk = 0.001
kx_ny = 0.628318531 ky_ny = 0.628318531 kz_ny = 0.628318531
############################
A(data) = 8.06271683 (not used)
A(ran) = 8.06746571 (used)
Ngal = 479065
weighted Ngal = 0
Nran = 23820508
weighted Nran = 0
SN(data) = 3479.93228
SN(ran) = 70.2705522
SN(data+ran) = 3550.20283
############################
13 columns: k_central k_mean P_0(k) sigma^{lin}_{P_0(k)} P^img_1(k) sigma^{lin}_{P_1(k)} P_2(k) sigma^{lin}_{P_2(k)} P^img_3(k) sigma^{lin}_{P_3(k)} P_4(k) sigma^{lin}_{P_4(k)} N_modes
### header ###
0.00050000 0 0 0 0 0 0 0 0 0 0 0 0
0.00150000 0.00179520 24686.30179941 0 -776.15557576 0 12360.14691830 0 20497.53059727 0 -40393.72323364 0 3
0.00250000 0.00253879 34400.38453256 0 10962.83059851 0 37325.58202639 0 27502.54761704 0 44494.46945347 0 6
0.00350000 0.00331552 33310.97849365 0 17191.22368317 0 33377.85533555 0 34307.59845058 0 67960.60105787 0 7
0.00450000 0.00420575 35762.28048525 0 3102.45434186 0 45935.86469837 0 48322.83648277 0 -7847.79809566 0 24
0.00550000 0.00557378 61606.52601420 0 -20438.18293624 0 42916.22027382 0 93264.29568917 0 -5662.82980525 0 45
0.00650000 0.00659388 90119.97688717 0 -21118.90946609 0 25297.38340615 0 70352.88755819 0 34059.79982113 0 40
0.00750000 0.00754703 87745.84899956 0 -5241.58320752 0 23829.52530495 0 45896.22577552 0 38445.87985154 0 57
0.00850000 0.00846663 108105.08625985 0 -22.89468892 0 22308.40932136 0 55315.45249874 0 60016.42944699 0 75
0.00950000 0.00948925 84929.71390519 0 8994.32625831 0 41476.59660090 0 26982.48052030 0 46803.49207116 0 112
0.01050000 0.01054430 83486.65781157 0 9837.81596299 0 33662.30336014 0 10829.11013168 0 60065.70129243 0 105
0.01150000 0.01145670 74034.32483714 0 16022.98269156 0 44988.95947988 0 14275.65911193 0 48667.85012412 0 144
0.01250000 0.01249090 64317.91691579 0 4162.47443070 0 38858.54539754 0 4660.20864827 0 35332.56355904 0 169
0.01350000 0.01339930 59280.78418604 0 -3829.92822709 0 38088.57592965 0 8048.17395790 0 19420.74700866 0 180
0.01450000 0.01448870 75136.90694258 0 -8901.92770770 0 38051.81581125 0 1657.98099067 0 9084.17817421 0 267
0.01550000 0.01550050 76336.37189019 0 -3877.53922381 0 26528.07230975 0 -17428.83577378 0 -6341.59653361 0 238
0.01650000 0.01653350 81269.20332014 0 731.61050579 0 29100.72698136 0 -4379.11553810 0 -10851.09976877 0 315
0.01750000 0.01747870 76515.52210575 0 9741.34279685 0 22235.77487055 0 -12957.72028877 0 -9677.11224057 0 297
0.01850000 0.01844180 76319.65267971 0 6186.15216548 0 33559.99507882 0 -3161.08230177 0 -8363.67985361 0 388
0.01950000 0.01947590 70737.09722940 0 1332.77573842 0 27201.15893547 0 -1274.24742943 0 -9512.97609746 0 399
0.02050000 0.02045430 72354.87460865 0 -106.12679398 0 31275.77446873 0 18605.82390201 0 -5069.36426729 0 462
0.02150000 0.02154770 70875.50128963 0 -501.26518196 0 26590.85239147 0 11191.02014070 0 -13653.39445712 0 571
0.02250000 0.02255340 70268.62716632 0 -3098.98870419 0 24064.81220734 0 15889.00756125 0 -17124.01467153 0 510
0.02350000 0.02348930 70989.65695851 0 657.83228382 0 12450.82925857 0 -1290.97771223 0 -22830.91232955 0 555
0.02450000 0.02439640 68384.89254492 0 3828.86528391 0 16269.78481177 0 -11104.87745361 0 -16784.64791583 0 592
0.02550000 0.02547300 61261.18020310 0 8544.83415997 0 11392.86862215 0 -9123.57350591 0 -8271.08200115 0 837
0.02650000 0.02652900 59555.82073453 0 4277.61553649 0 7279.76568781 0 3588.33009955 0 -3881.73563492 0 723
0.02750000 0.02749970 56371.75228644 0 -3672.02580286 0 3664.40804338 0 4556.75991749 0 -12015.57616995 0 826
0.02850000 0.02848090 59990.74165341 0 -2426.01280171 0 8233.81255581 0 8262.79990219 0 -11648.19643246 0 831
0.02950000 0.02946900 59892.41940902 0 3266.15866430 0 15161.00220443 0 -35.99646016 0 -3806.74277892 0 996
0.03050000 0.03053250 56901.78447551 0 6152.68052755 0 16906.55421209 0 252.65162941 0 1178.36109650 0 1041
0.03150000 0.03150510 54868.46274581 0 3899.10811256 0 21036.97426244 0 -6905.28859012 0 8490.72370858 0 1036
0.03250000 0.03246190 55657.47661239 0 1401.88918994 0 31423.36855857 0 -6701.15920977 0 9892.13678855 0 1059
0.03350000 0.03345080 53493.61217308 0 1183.24399174 0 31956.16882884 0 -3205.05050363 0 8747.57949972 0 1302
0.03450000 0.03451200 53548.86307392 0 -798.14410562 0 28793.46996764 0 9458.98744165 0 8704.65209640 0 1339
0.03550000 0.03553350 55008.74910126 0 -3305.34362184 0 24828.35972684 0 9300.36531629 0 1873.43735931 0 1365
0.03650000 0.03647120 55673.64220662 0 -388.66738918 0 23279.56293120 0 7532.55793575 0 -3027.10717147 0 1308
0.03750000 0.03744890 54341.75225419 0 2390.11632465 0 17795.88334152 0 4150.84848964 0 -1637.30896023 0 1579
0.03850000 0.03847530 52437.42310863 0 1288.02140150 0 15869.07737658 0 -598.66177999 0 1048.87579391 0 1662
0.03950000 0.03950240 50446.39765974 0 1788.11402426 0 14734.93914541 0 -2642.97500654 0 927.37031581 0 1683
0.04050000 0.04050350 49638.00722473 0 2710.54940490 0 18990.25501971 0 -1478.35466514 0 -3401.42925661 0 1822
0.04150000 0.04152450 47789.70404275 0 1819.96910277 0 16208.44413227 0 696.72825368 0 -1082.20792054 0 1887
0.04250000 0.04250150 45678.76531608 0 1780.02015482 0 16119.42264073 0 3533.23421125 0 -577.09399848 0 1920
0.04350000 0.04349210 44620.69395641 0 74.49570861 0 12165.93834098 0 5917.85866280 0 -4263.94121534 0 2005
0.04450000 0.04448520 43902.43224542 0 800.01975745 0 13256.00871938 0 709.20897821 0 -5206.17391275 0 2151
0.04550000 0.04548030 42572.86748120 0 888.42452050 0 11741.42540744 0 241.45086562 0 -3511.38851439 0 2274
0.04650000 0.04648670 43427.09734096 0 1371.93855130 0 13787.36958743 0 -1540.73614316 0 -1147.10392354 0 2311
0.04750000 0.04749250 40950.66117202 0 1154.31200699 0 14316.73743701 0 -595.40983819 0 1254.28402778 0 2568
0.04850000 0.04851840 41650.09993081 0 -198.91652983 0 14105.14530972 0 1470.26079569 0 2415.51623779 0 2493
0.04950000 0.04949480 41233.89124088 0 1511.58271192 0 16644.14011389 0 3508.68686713 0 570.43178063 0 2644
0.05050000 0.05050630 40904.37885428 0 542.18295832 0 14423.69609475 0 1930.09444541 0 2318.76626352 0 2829
0.05150000 0.05149060 39172.66725264 0 1372.31501035 0 13959.76568485 0 2102.70091701 0 1135.88765850 0 2784
0.05250000 0.05249300 37748.10194147 0 1837.44123133 0 11956.22850892 0 -929.87598292 0 -321.13285118 0 3055
0.05350000 0.05348950 35762.39120850 0 1468.42278977 0 11995.53526203 0 -93.66644253 0 352.02685189 0 3009
0.05450000 0.05448610 35340.42490966 0 1622.50526195 0 9369.22410434 0 197.69193071 0 -440.91215384 0 3336
0.05550000 0.05550870 33634.95471784 0 642.39857026 0 9662.47462716 0 -98.90808110 0 -3587.45538589 0 3349
0.05650000 0.05647670 33888.62167944 0 -297.07711828 0 7674.62693550 0 1835.70287633 0 -6238.42461095 0 3324
0.05750000 0.05747970 34990.87161513 0 -1193.97307449 0 10018.22842359 0 -992.02715659 0 -5548.12052013 0 3639
0.05850000 0.05849280 34692.14029153 0 -409.48889600 0 10075.88201892 0 -896.47188617 0 -6561.74756798 0 3846
0.05950000 0.05951020 35172.45774216 0 1675.82957828 0 12393.03172301 0 -2298.66999398 0 -5989.55196600 0 3787
0.06050000 0.06049470 34466.70775822 0 1177.03241752 0 12447.17539138 0 -778.24603069 0 -2522.76277598 0 3930
0.06150000 0.06148310 33866.80919955 0 227.96809569 0 14201.80670539 0 2060.82538455 0 -1723.50700895 0 4083
0.06250000 0.06249100 33899.69400426 0 -499.34966976 0 13945.70383233 0 517.30344446 0 -2064.18029897 0 4303
0.06350000 0.06350600 35041.58286280 0 166.98173059 0 14833.81500604 0 1329.32117308 0 -3345.19291886 0 4470
0.06450000 0.06451750 33725.08344187 0 2023.15733551 0 15285.67658189 0 -351.31047247 0 -2572.04569375 0 4479
0.06550000 0.06550280 32612.75769059 0 2173.24269843 0 13725.14312195 0 -692.77100479 0 -981.74096684 0 4636
0.06650000 0.06648880 31067.72548539 0 85.58220601 0 14418.60282534 0 1128.30311599 0 174.03369427 0 4653
0.06750000 0.06749660 30711.19662623 0 -158.99415547 0 13179.49895488 0 2399.45029447 0 450.19851266 0 5220
0.06850000 0.06852730 30926.99623695 0 240.23844606 0 13008.21008994 0 2064.36852849 0 -2904.61404200 0 5029
0.06950000 0.06949320 31103.71054105 0 177.76285327 0 11703.33661006 0 1262.03465515 0 -329.34962343 0 5040
0.07050000 0.07048030 30067.34093803 0 1189.97596523 0 12422.59483028 0 -1409.44051546 0 -2444.99076645 0 5475
0.07150000 0.07148790 29080.46462694 0 1310.81931831 0 11677.64881648 0 -235.21714675 0 -52.93479194 0 5509
0.07250000 0.07249820 28969.85210200 0 -176.65894248 0 11722.27028550 0 282.97097646 0 -1845.51295612 0 5916
0.07350000 0.07351270 28791.80911892 0 -460.61535585 0 10894.72472856 0 1949.34921827 0 -3150.02104928 0 5721
0.07450000 0.07449140 29474.86083698 0 -67.74247626 0 11158.35678249 0 955.28032498 0 -6165.64621991 0 6028
0.07550000 0.07549160 28464.73264378 0 747.97097294 0 10351.09572461 0 116.11879207 0 -4943.42764481 0 6183
0.07650000 0.07648840 27906.57674967 0 959.53541941 0 8653.38723249 0 183.60571907 0 -3970.77927111 0 6330
0.07750000 0.07749960 27038.28503739 0 741.58334875 0 9519.85201117 0 -295.59674845 0 -5516.14364605 0 6583
0.07850000 0.07848650 26827.46797284 0 198.85231035 0 9318.25819320 0 -821.45577830 0 -5450.90550822 0 6549
0.07950000 0.07947320 26739.55371378 0 899.38722930 0 10634.86833739 0 -58.76060637 0 -4256.29023889 0 6828
0.08050000 0.08048110 26333.19939294 0 366.95234574 0 10616.58792911 0 -460.78476242 0 -2722.18641829 0 7147
0.08150000 0.08149960 25943.56428257 0 643.11605691 0 12464.11604835 0 1298.46260381 0 -2343.50183717 0 7386
0.08250000 0.08250610 25388.84080916 0 1106.12303492 0 11361.09104992 0 506.11375300 0 -884.14174526 0 7227
0.08350000 0.08350160 24281.71905054 0 873.63521624 0 11230.32689381 0 1760.66573104 0 200.06583715 0 7798
0.08450000 0.08449610 23500.12364159 0 572.56320316 0 10277.96301918 0 2439.83106309 0 1103.25198109 0 7371
0.08550000 0.08548940 23366.14851129 0 -0.92088083 0 9317.37240722 0 2541.96218722 0 1076.06610197 0 8256
0.08650000 0.08650700 22400.19889411 0 74.03963955 0 6755.43574603 0 1698.35068696 0 170.95337350 0 8037
0.08750000 0.08749060 22577.46681445 0 174.78550512 0 6735.67164623 0 1635.95813660 0 1337.62541669 0 8155
0.08850000 0.08849210 21720.91176648 0 572.92858988 0 5340.24869398 0 665.68809828 0 1137.05025260 0 8718
0.08950000 0.08949900 21208.59529712 0 782.65503043 0 5324.84709016 0 1117.19757420 0 1474.95546142 0 8571
0.09050000 0.09049190 20797.36915336 0 515.92161832 0 4904.02124078 0 329.14367819 0 2728.18761834 0 8932
0.09150000 0.09150830 20454.56997697 0 -164.25683145 0 5685.51699880 0 66.33407654 0 2381.22524782 0 9285
0.09250000 0.09250820 20550.01341691 0 478.64774405 0 6632.68795309 0 -220.39019659 0 1301.89502450 0 9204
0.09350000 0.09350330 19845.48138870 0 1090.90744615 0 8129.55554532 0 -2062.71875209 0 1631.08631368 0 9349
0.09450000 0.09448040 19398.93452876 0 1123.07697868 0 8324.31773888 0 -1960.03401172 0 1644.43953742 0 9564
0.09550000 0.09549270 18559.32013777 0 587.31375429 0 9742.30608911 0 -1384.97067762 0 1651.60333157 0 10155
0.09650000 0.09649430 18650.22392453 0 70.02005347 0 9569.24565219 0 -125.17927547 0 1047.84163877 0 9913
0.09750000 0.09749140 18267.12148580 0 119.44048952 0 9703.43115667 0 460.25993422 0 112.46160318 0 10476
0.09850000 0.09850240 18588.66179854 0 80.55991019 0 8723.07644490 0 1461.29221259 0 -124.49389856 0 10575
0.09950000 0.09950330 18435.08865330 0 -284.12139101 0 8187.30879158 0 1768.63780491 0 -271.82003814 0 10882
0.10050000 0.10051200 18319.38285895 0 249.25906908 0 7102.98494976 0 1366.63490772 0 546.59195807 0 10875
0.10150000 0.10150300 18101.14733677 0 488.08357926 0 6372.83156192 0 1179.51261828 0 39.41238308 0 11118
0.10250000 0.10250800 17418.42778845 0 534.49433597 0 5625.27247946 0 575.01461588 0 1206.60659711 0 11575
0.10350000 0.10349800 17005.98368896 0 879.82907474 0 5568.60432104 0 183.12185848 0 1887.58779043 0 11364
0.10450000 0.10450100 16323.26414064 0 214.13322583 0 5735.45318373 0 944.74832962 0 2012.04072139 0 12093
0.10550000 0.10551000 15822.57361234 0 397.14546829 0 5417.84354631 0 1006.94489982 0 2186.82844098 0 12067
0.10650000 0.10649700 15862.87687468 0 423.42673848 0 5241.40605033 0 590.76721240 0 1471.17979865 0 12054
0.10750000 0.10749900 15279.47607999 0 238.81454508 0 5033.70030905 0 565.01852103 0 2333.11599649 0 12807
0.10850000 0.10850100 15214.70297980 0 43.02882582 0 5198.45650235 0 291.73029262 0 2022.27154953 0 12736
0.10950000 0.10950300 15107.63359880 0 -53.61928306 0 4481.63419360 0 -99.21644534 0 1566.47929837 0 12933
0.11050000 0.11050200 14898.47738298 0 71.45181580 0 5014.71127199 0 -77.46929217 0 370.68150474 0 13428
0.11150000 0.11150900 14819.75315352 0 259.09018629 0 4800.51714837 0 -686.20068724 0 904.79716721 0 13453
0.11250000 0.11250000 15185.91493527 0 -0.12738045 0 5260.18471322 0 -213.49324546 0 1010.44929062 0 13668
0.11350000 0.11349100 14704.49025216 0 163.31679108 0 4895.08587465 0 179.88320347 0 322.89999422 0 13791
0.11450000 0.11448600 14998.01758310 0 296.95421547 0 4924.85935609 0 191.34305966 0 463.80639986 0 14205
0.11550000 0.11549300 14600.85329185 0 204.45601394 0 4977.89579197 0 -79.27053797 0 -220.94492006 0 14776
0.11650000 0.11649800 14432.66467786 0 359.56489063 0 4799.75315796 0 -167.95609517 0 -230.88786775 0 14553
0.11750000 0.11747300 14215.75783466 0 225.80456342 0 4900.89884518 0 -188.55394103 0 -319.42217700 0 14568
0.11850000 0.11849100 13886.24544806 0 209.45849029 0 5048.21612689 0 -129.56502333 0 -472.54800031 0 16015
0.11950000 0.11950300 14094.73732439 0 -135.82642302 0 4671.03738194 0 -131.21037080 0 -775.62853310 0 15270
0.12050000 0.12050700 14202.80321462 0 -170.91794206 0 4958.35313866 0 -96.02030806 0 -1191.34893351 0 15999
0.12150000 0.12150000 13890.89582448 0 414.66410062 0 5476.38292763 0 -481.68377552 0 -777.34252899 0 15670
0.12250000 0.12250700 14038.48991431 0 353.32785006 0 5436.55577525 0 55.06997906 0 -303.66958048 0 16887
0.12350000 0.12352200 13756.14563144 0 71.41051602 0 5606.49381657 0 596.73187378 0 850.51398755 0 16407
0.12450000 0.12449800 13821.91524086 0 -278.49332830 0 5390.81600143 0 903.06324114 0 235.61796491 0 16306
0.12550000 0.12549900 14014.79513920 0 12.74646033 0 5125.48988180 0 794.51127585 0 453.44934723 0 17523
0.12650000 0.12650100 13815.82546221 0 256.22799033 0 4946.12929206 0 393.51596022 0 -385.43537756 0 17154
0.12750000 0.12750600 13445.45619703 0 387.74506452 0 4566.95752865 0 -207.50311773 0 242.91130527 0 18007
0.12850000 0.12850300 13304.39477884 0 385.74318819 0 4415.36632956 0 -159.37061451 0 153.96399830 0 17496
0.12950000 0.12949900 12922.95318883 0 89.86309895 0 4474.48147176 0 1.50173942 0 138.68861898 0 18405
0.13050000 0.13049000 13041.31634115 0 -15.44666818 0 4090.82541680 0 404.27050931 0 416.26515879 0 18100
0.13150000 0.13148800 12882.98209624 0 212.00733947 0 4003.69729280 0 554.73786744 0 160.09585179 0 19059
0.13250000 0.13249300 12891.39706310 0 114.01615759 0 4316.30223940 0 165.44599914 0 450.16308122 0 18957
0.13350000 0.13349100 12656.66377695 0 216.85812497 0 4405.93270881 0 452.08745128 0 603.86577266 0 19468
0.13450000 0.13450700 12370.00128739 0 223.12395358 0 4008.74627292 0 293.01800400 0 1203.12988712 0 19953
0.13550000 0.13551000 12268.35734556 0 122.93934416 0 4147.74823869 0 111.58024613 0 905.96640471 0 19956
0.13650000 0.13649900 12189.85456259 0 312.43775450 0 3841.87526557 0 334.39638908 0 1011.26089203 0 19723
0.13750000 0.13749600 11651.73957641 0 390.62719067 0 4051.88405041 0 215.10537595 0 1155.79569852 0 20946
0.13850000 0.13851100 11506.91356778 0 216.99431456 0 3321.83031349 0 396.08695404 0 954.46540188 0 20955
0.13950000 0.13949800 11333.18879137 0 -142.86177821 0 3148.94703377 0 457.87938439 0 610.43719744 0 20506
0.14050000 0.14048300 11165.66451687 0 92.58179759 0 3141.20747873 0 229.08529327 0 342.69398930 0 21447
0.14150000 0.14148400 11458.52750832 0 -28.95257928 0 2865.41801214 0 126.64857297 0 239.28844059 0 21771
0.14250000 0.14249400 11158.46750574 0 137.61681794 0 2979.59582567 0 158.63651937 0 259.30056046 0 22470
0.14350000 0.14350900 11157.69244300 0 362.15581463 0 2976.76131052 0 -307.42088412 0 354.08408984 0 22519
0.14450000 0.14449900 10921.67476716 0 385.28036502 0 3059.12833484 0 -223.47383905 0 565.38501498 0 22218
0.14550000 0.14550500 10600.33375628 0 226.85643428 0 3083.28814760 0 -39.19990517 0 365.89050979 0 23559
0.14650000 0.14650700 10552.56774701 0 118.72743180 0 3321.03310610 0 -215.68999470 0 654.60691560 0 23044
0.14750000 0.14750500 10442.75242946 0 129.84183145 0 3370.03921575 0 -22.64323642 0 157.33441398 0 23649
0.14850000 0.14849900 10357.17443093 0 42.19596554 0 3454.00065485 0 -30.99486959 0 207.64927242 0 23640
0.14950000 0.14949500 10298.31395220 0 140.36939789 0 3474.61732366 0 185.32082219 0 263.38735555 0 24457
0.15050000 0.15050000 10215.41545628 0 142.98910994 0 3349.27860672 0 528.67361481 0 463.25942702 0 24591
0.15150000 0.15149900 10186.00736156 0 9.18759369 0 3320.15839244 0 286.66248955 0 329.53563849 0 25020
0.15250000 0.15250500 10096.69798958 0 -62.21738617 0 2998.06446347 0 384.76218022 0 196.84821956 0 25297
0.15350000 0.15350100 10119.51805103 0 180.20651535 0 3106.23000462 0 -71.66794758 0 419.74186878 0 25452
0.15450000 0.15450400 10141.06479512 0 88.72375673 0 3080.37612617 0 -346.84168218 0 208.96245014 0 26061
0.15550000 0.15549900 10061.94196197 0 103.95108216 0 3422.64383097 0 -455.73688954 0 501.49991524 0 26128
0.15650000 0.15649500 10014.85136452 0 227.76104322 0 3587.90935121 0 -34.72701811 0 170.69428110 0 26331
0.15750000 0.15749700 9822.81296286 0 161.09014655 0 3706.21714190 0 -109.88042282 0 590.91447432 0 27345
0.15850000 0.15849900 9693.65429385 0 215.82839876 0 3583.76830173 0 529.84506678 0 643.12380753 0 26980
0.15950000 0.15949700 9608.88457504 0 68.89134068 0 3560.87073400 0 569.19389472 0 360.22923011 0 27777
0.16050000 0.16050000 9358.16285185 0 56.74455746 0 3154.43890688 0 582.90696901 0 568.53841309 0 28224
0.16150000 0.16150500 9399.10830903 0 138.75837463 0 3031.20393165 0 365.70560197 0 769.10693379 0 28075
0.16250000 0.16249700 9275.72939357 0 87.97338527 0 2584.95602449 0 12.15254083 0 501.24635901 0 28590
0.16350000 0.16349900 9091.67413811 0 163.46848193 0 2696.76436050 0 -53.61175388 0 431.35009412 0 29163
0.16450000 0.16449100 8810.73604049 0 367.03870988 0 2579.40878975 0 -118.84479844 0 174.17099109 0 28996
0.16550000 0.16550500 8635.70472976 0 288.33330337 0 2474.75317557 0 86.11090952 0 594.84404239 0 30777
0.16650000 0.16650700 8474.61347597 0 66.00002450 0 2348.71690216 0 264.93858826 0 867.71927309 0 29211
0.16750000 0.16749900 8451.53875105 0 -60.87475607 0 2329.39569535 0 482.97813029 0 399.00894056 0 30922
0.16850000 0.16850800 8510.75354418 0 -18.10291891 0 2321.98831004 0 376.02611593 0 629.00437893 0 30867
0.16950000 0.16949900 8475.89786565 0 110.33228440 0 2240.45171008 0 84.18842176 0 722.12373788 0 30852
0.17050000 0.17049200 8414.62362010 0 162.24609727 0 2230.69699191 0 -56.44837277 0 1295.32913588 0 31257
0.17150000 0.17149500 8319.03623994 0 56.31484054 0 2276.15995762 0 -157.71862365 0 949.09643157 0 32608
0.17250000 0.17250900 8323.15514477 0 102.57700665 0 2556.02403973 0 -152.17138891 0 915.15089814 0 32361
0.17350000 0.17350400 8138.49091145 0 184.32763465 0 2475.89362502 0 -48.03783484 0 767.82143687 0 32508
0.17450000 0.17449800 8073.79531753 0 114.01505036 0 2555.66972534 0 62.81318797 0 633.97474554 0 32791
0.17550000 0.17549800 7966.19446495 0 106.15436407 0 2372.61097911 0 50.73162075 0 730.54534814 0 33633
0.17650000 0.17650100 7976.22599123 0 174.67256741 0 2407.84311669 0 56.71266917 0 355.22564653 0 33984
0.17750000 0.17750300 7725.23853224 0 -10.18801145 0 2185.27831551 0 68.71506927 0 382.26426374 0 34069
