### header ###
fiducial parameters:
Omega_m = 0.31
Omega_nu = 0
Omega_de = 0.69
Omega_k = 0
H_0 = 100
w_de = -1
zeff = 0
beta = 0
fgrowth = 0
b_1 = 2
gamma = 0.55
Lx = 3500 Ly = 3500 Lz = 3500
nx = 700 ny = 700 nz = 700
xoffset = -685.467585 yoffset = -31.7331281 zoffset = 572.489161
bins = 400 dk = 0.001
kx_ny = 0.628318531 ky_ny = 0.628318531 kz_ny = 0.628318531
############################
A(data) = 8.11622732 (not used)
A(ran) = 8.1192722 (used)
Ngal = 482496
weighted Ngal = 0
Nran = 23820508
weighted Nran = 0
SN(data) = 3483.8428
SN(ran) = 70.7218055
SN(data+ran) = 3554.56461
############################
13 columns: k_central k_mean P_0(k) sigma^{lin}_{P_0(k)} P^img_1(k) sigma^{lin}_{P_1(k)} P_2(k) sigma^{lin}_{P_2(k)} P^img_3(k) sigma^{lin}_{P_3(k)} P_4(k) sigma^{lin}_{P_4(k)} N_modes
### header ###
0.00050000 0 0 0 0 0 0 0 0 0 0 0 0
0.00150000 0.00179520 80189.54092707 0 -55731.88263517 0 -17442.89762630 0 82423.82535223 0 -173602.98083156 0 3
0.00250000 0.00253879 145991.92443130 0 -54756.30009540 0 -8838.67151601 0 -8976.87627439 0 142525.17953058 0 6
0.00350000 0.00331552 146579.86487917 0 -21619.37854790 0 13731.45434709 0 -147790.06998185 0 102895.11453968 0 7
0.00450000 0.00420575 146623.04694596 0 10705.47655275 0 7752.85291034 0 -60291.35527224 0 49451.10638179 0 24
0.00550000 0.00557378 106209.06135790 0 21469.56999310 0 23425.71761881 0 -119.18361158 0 -11116.83556442 0 45
0.00650000 0.00659388 106439.03354438 0 18214.41721967 0 17265.96187570 0 12438.31753152 0 10391.06681720 0 40
0.00750000 0.00754703 79610.12616932 0 2333.76926365 0 11851.81648588 0 -5229.79118159 0 -8311.58456534 0 57
0.00850000 0.00846663 81518.77352155 0 -521.97707276 0 -731.88288498 0 9384.99109488 0 16439.30210474 0 75
0.00950000 0.00948925 78288.09058597 0 5779.24422839 0 802.38591326 0 -19001.21662128 0 -20737.02498310 0 112
0.01050000 0.01054430 75360.34645742 0 13858.34318951 0 9866.94724959 0 -12392.03521378 0 13635.90018391 0 105
0.01150000 0.01145670 62273.30141478 0 3560.76001075 0 14052.55176683 0 -15569.12809724 0 -11710.20145145 0 144
0.01250000 0.01249090 59720.57692784 0 1333.96047718 0 17949.23504026 0 1307.85193525 0 -10183.16177408 0 169
0.01350000 0.01339930 69614.58493928 0 -4857.62819979 0 16022.42907532 0 647.25710639 0 -26028.71046043 0 180
0.01450000 0.01448870 67377.08953993 0 485.26567259 0 27666.52874760 0 -2767.09576775 0 -936.37875929 0 267
0.01550000 0.01550050 76401.69860662 0 2266.62668595 0 20263.68309710 0 -399.67438728 0 10782.27419770 0 238
0.01650000 0.01653350 66496.17537736 0 1007.00247591 0 12492.35047664 0 18737.80601384 0 12765.72617641 0 315
0.01750000 0.01747870 74039.63955305 0 1575.08249475 0 3045.62009857 0 21730.43396583 0 17307.59381702 0 297
0.01850000 0.01844180 67877.78006823 0 -973.83311245 0 437.98573839 0 7930.37549416 0 3665.67028841 0 388
0.01950000 0.01947590 65984.41252424 0 2102.53483214 0 -1852.65460563 0 3313.98003520 0 730.26964725 0 399
0.02050000 0.02045430 65271.02263618 0 3719.11640031 0 3530.64328725 0 -5605.40872874 0 8257.81735602 0 462
0.02150000 0.02154770 65363.14437867 0 1186.10065155 0 6286.16847556 0 -17575.87624737 0 1441.62776371 0 571
0.02250000 0.02255340 62817.83834936 0 2097.19797157 0 17346.34695388 0 -6536.41408879 0 -1838.79205496 0 510
0.02350000 0.02348930 65534.65469011 0 1517.94929869 0 25304.80186378 0 -15738.97755996 0 -818.95011119 0 555
0.02450000 0.02439640 63377.10147595 0 4623.45960220 0 27230.83276599 0 -2133.70342650 0 -8185.14968824 0 592
0.02550000 0.02547300 58986.92468535 0 4199.72173139 0 24026.72340997 0 1740.75769101 0 -13925.77364766 0 837
0.02650000 0.02652900 55580.63467814 0 1510.35368386 0 27674.05792848 0 2877.46470154 0 -10308.58906963 0 723
0.02750000 0.02749970 54312.52131666 0 2811.71723677 0 18561.53460273 0 10996.67869549 0 -14085.54729479 0 826
0.02850000 0.02848090 53464.38123556 0 -3666.23497698 0 14130.61165680 0 17806.62349660 0 -11080.40761576 0 831
0.02950000 0.02946900 55359.29890502 0 -1869.08593566 0 7465.55929827 0 2539.91380712 0 -9295.59314430 0 996
0.03050000 0.03053250 56759.06220859 0 1697.65313049 0 11645.42835126 0 1574.83890361 0 -4107.36747008 0 1041
0.03150000 0.03150510 53826.99987337 0 2450.90338791 0 13031.35124881 0 -2714.77903298 0 9.94514001 0 1036
0.03250000 0.03246190 54359.35725065 0 724.20533495 0 15720.92967051 0 -2327.64626803 0 2316.65144948 0 1059
0.03350000 0.03345080 54542.05061016 0 -817.13646438 0 19951.66498371 0 980.64812838 0 664.67608779 0 1302
0.03450000 0.03451200 55668.32749071 0 581.08446434 0 20725.84193503 0 2010.56810219 0 4886.34981037 0 1339
0.03550000 0.03553350 54819.74451661 0 -29.44252965 0 16588.99993629 0 4309.47061499 0 4124.91710491 0 1365
0.03650000 0.03647120 53880.25775574 0 748.41608040 0 14911.54272626 0 2560.36439106 0 6550.27663946 0 1308
0.03750000 0.03744890 54779.55197752 0 1370.17805166 0 14720.65584639 0 6409.52524637 0 4347.86943746 0 1579
0.03850000 0.03847530 52810.33900852 0 3369.43023789 0 11479.89709522 0 2813.13449435 0 1070.83221402 0 1662
0.03950000 0.03950240 49081.18000960 0 4035.86239640 0 9901.78078347 0 -854.01062773 0 4160.69178640 0 1683
0.04050000 0.04050350 45287.58008023 0 2893.82959763 0 11536.25522855 0 -2245.71106437 0 3575.86266181 0 1822
0.04150000 0.04152450 44906.58138322 0 -1362.26133941 0 11213.16479034 0 -1196.57507083 0 1285.70728562 0 1887
0.04250000 0.04250150 45334.85890721 0 -162.73549402 0 15761.56510259 0 1810.04829973 0 -2581.94435214 0 1920
0.04350000 0.04349210 45015.86522918 0 1847.63884249 0 11883.37261161 0 404.22400555 0 -4309.58133824 0 2005
0.04450000 0.04448520 43522.98367389 0 1063.17237971 0 9010.76866066 0 -1193.29766268 0 -4517.10992231 0 2151
0.04550000 0.04548030 42980.21831128 0 919.69387302 0 10361.38191437 0 -2481.79517415 0 -5547.78835038 0 2274
0.04650000 0.04648670 43481.13028607 0 726.20942574 0 12975.54673172 0 -1099.14082689 0 -4415.27775096 0 2311
0.04750000 0.04749250 42184.22888006 0 -280.42766345 0 10950.59567959 0 714.43732999 0 -2539.76986690 0 2568
0.04850000 0.04851840 43420.67539256 0 429.23306562 0 13064.78966976 0 2738.58453134 0 -2453.62717981 0 2493
0.04950000 0.04949480 42088.89616338 0 336.03730762 0 12690.32364440 0 2629.13460051 0 -2877.40933992 0 2644
0.05050000 0.05050630 41533.28690398 0 2155.49376175 0 13785.26584571 0 2171.15002904 0 -3337.75231658 0 2829
0.05150000 0.05149060 38920.99330951 0 2741.35261255 0 14522.90412513 0 596.63775902 0 236.86027975 0 2784
0.05250000 0.05249300 38445.99057479 0 1005.90299405 0 14730.62093873 0 2270.20304687 0 1898.47188573 0 3055
0.05350000 0.05348950 36299.62040870 0 1120.89573069 0 14547.48468623 0 -1236.63474202 0 2459.16334222 0 3009
0.05450000 0.05448610 35669.27295677 0 1277.15945086 0 13806.19253962 0 116.45981968 0 -2977.15991421 0 3336
0.05550000 0.05550870 35280.30218589 0 210.44614167 0 14007.26595832 0 -445.92238082 0 -243.99196417 0 3349
0.05650000 0.05647670 35802.69447084 0 -61.59401429 0 13492.29213101 0 1145.95240176 0 -1905.02670202 0 3324
0.05750000 0.05747970 35653.21808579 0 -471.35772539 0 14650.01441405 0 642.11954767 0 -2809.28132531 0 3639
0.05850000 0.05849280 35562.75719202 0 71.96025695 0 12740.03838283 0 2091.55108592 0 -984.64966656 0 3846
0.05950000 0.05951020 36097.10758777 0 455.28292422 0 13032.67992779 0 1654.69251020 0 -1605.96320867 0 3787
0.06050000 0.06049470 34155.24326107 0 1366.01485753 0 12431.78485988 0 480.12147048 0 -1888.67287827 0 3930
0.06150000 0.06148310 33647.68789138 0 807.54783109 0 11469.71055639 0 329.11267568 0 -2064.25780524 0 4083
0.06250000 0.06249100 32655.38614114 0 1573.25556116 0 12930.48236971 0 -1147.91220325 0 -1079.44758996 0 4303
0.06350000 0.06350600 32138.19784886 0 884.59681781 0 12257.94936023 0 172.19015218 0 -24.02838426 0 4470
0.06450000 0.06451750 31385.72265418 0 -194.43113105 0 10485.01549329 0 1740.01584525 0 -546.13799275 0 4479
0.06550000 0.06550280 32661.47591979 0 -780.56789721 0 9743.84514226 0 2990.80101839 0 -2203.01617987 0 4636
0.06650000 0.06648880 32117.60332470 0 205.13474745 0 9890.05519149 0 1729.37534110 0 -2213.49059915 0 4653
0.06750000 0.06749660 31168.70508774 0 2180.66115606 0 9287.00102024 0 1628.63932990 0 -1703.32216080 0 5220
0.06850000 0.06852730 30045.52845813 0 845.40853858 0 9788.40017733 0 -1026.32146825 0 -159.10155702 0 5029
0.06950000 0.06949320 29587.57710363 0 900.70372872 0 11105.32034661 0 -401.38838316 0 458.40421258 0 5040
0.07050000 0.07048030 28998.52942328 0 1008.55703031 0 11916.36813957 0 -1384.09596395 0 1662.09989550 0 5475
0.07150000 0.07148790 28615.64843105 0 -39.75850396 0 13210.83363412 0 -25.62412771 0 2914.50162806 0 5509
0.07250000 0.07249820 29298.58942587 0 -1095.20018648 0 13174.62713196 0 615.21158390 0 1990.07322895 0 5916
0.07350000 0.07351270 30137.09658438 0 -53.57742967 0 14599.19244313 0 1408.51044018 0 2494.19617795 0 5721
0.07450000 0.07449140 29662.53674266 0 966.43790670 0 12553.46970964 0 819.03758255 0 2143.20348120 0 6028
0.07550000 0.07549160 28924.23412375 0 659.89948687 0 13713.73862738 0 150.90028602 0 2055.74318745 0 6183
0.07650000 0.07648840 27758.42904359 0 491.56361095 0 11655.28272035 0 568.40222350 0 1936.13993476 0 6330
0.07750000 0.07749960 27661.21403169 0 562.81291393 0 12676.26179188 0 1620.26865234 0 -15.64574858 0 6583
0.07850000 0.07848650 26977.16580439 0 327.30456503 0 10985.42921347 0 876.09548681 0 -1633.41150190 0 6549
0.07950000 0.07947320 26469.49971146 0 441.52223893 0 9462.05447562 0 1193.58554313 0 -1790.56100805 0 6828
0.08050000 0.08048110 25282.32504440 0 869.36129886 0 8343.89360916 0 -18.79516066 0 -1819.62586070 0 7147
0.08150000 0.08149960 25443.42737051 0 785.74531629 0 7898.70864518 0 -455.26520850 0 -1956.15869804 0 7386
0.08250000 0.08250610 24501.72614469 0 862.88620330 0 8594.79248955 0 211.32749872 0 -1833.37768812 0 7227
0.08350000 0.08350160 23813.13826421 0 694.33884598 0 8020.47100121 0 1453.43086197 0 -1191.62574163 0 7798
0.08450000 0.08449610 23252.21428890 0 334.65658871 0 7256.22592525 0 1571.36219361 0 -1333.84975393 0 7371
0.08550000 0.08548940 22783.41205608 0 321.77172432 0 7535.40352323 0 1080.25476244 0 -319.53511471 0 8256
0.08650000 0.08650700 22893.47096478 0 556.16066118 0 8259.28997522 0 798.60360710 0 -489.29156990 0 8037
0.08750000 0.08749060 21816.57665292 0 993.55845911 0 7962.44094683 0 -798.86491397 0 1750.41275825 0 8155
0.08850000 0.08849210 21007.52187842 0 1265.47814817 0 7998.21562832 0 -13.91879808 0 1420.67892516 0 8718
0.08950000 0.08949900 20622.64786772 0 281.33116515 0 9110.33100543 0 91.15280335 0 3134.79660266 0 8571
0.09050000 0.09049190 20521.77898862 0 -157.24251368 0 8406.00935139 0 1543.72567087 0 1081.38303234 0 8932
0.09150000 0.09150830 20376.62081025 0 -519.78918138 0 7788.94868925 0 1251.60452517 0 1280.44793133 0 9285
0.09250000 0.09250820 20836.12229023 0 -114.40147449 0 7098.86604493 0 425.31235540 0 -248.26366708 0 9204
0.09350000 0.09350330 20753.07985409 0 -75.37175095 0 6814.49552661 0 70.76322792 0 -482.00708740 0 9349
0.09450000 0.09448040 20396.44027168 0 586.07365391 0 6341.02077272 0 -610.70293323 0 237.49804566 0 9564
0.09550000 0.09549270 19948.23256302 0 928.09112416 0 7065.59370885 0 -996.44279973 0 -697.55867804 0 10155
0.09650000 0.09649430 19364.61032183 0 1259.76482857 0 6867.03370787 0 -917.74292938 0 125.05083650 0 9913
0.09750000 0.09749140 18351.16043118 0 866.16250422 0 7778.70678879 0 597.77599401 0 451.52386994 0 10476
0.09850000 0.09850240 17793.11526032 0 281.50057172 0 7669.82154653 0 1910.69573233 0 1303.02440163 0 10575
0.09950000 0.09950330 17379.89609808 0 42.38807038 0 6486.19002341 0 1857.32712670 0 749.35390631 0 10882
0.10050000 0.10051200 17592.37401135 0 -106.96640838 0 6706.48499800 0 1622.20630918 0 1450.76243169 0 10875
0.10150000 0.10150300 17408.35197287 0 -0.38809495 0 5782.70986606 0 623.84578279 0 1436.91095334 0 11118
0.10250000 0.10250800 17440.90460784 0 -56.68742427 0 5739.54994392 0 -313.76089732 0 1870.87965228 0 11575
0.10350000 0.10349800 17800.75516444 0 127.86652870 0 5977.97031424 0 -475.90402196 0 1842.37948820 0 11364
0.10450000 0.10450100 17232.52345475 0 298.21978220 0 6274.29894336 0 -441.93191495 0 1270.68214084 0 12093
0.10550000 0.10551000 17158.44960171 0 516.31357862 0 5834.62799713 0 -132.63316454 0 869.65914439 0 12067
0.10650000 0.10649700 16808.34269095 0 408.92420743 0 6462.20736786 0 303.17464756 0 974.90048456 0 12054
0.10750000 0.10749900 16547.14654847 0 243.56789413 0 6211.72923581 0 -195.96021911 0 309.09834133 0 12807
0.10850000 0.10850100 16159.50445657 0 694.04100044 0 6560.77320339 0 -310.63739448 0 435.79341807 0 12736
0.10950000 0.10950300 15781.60601051 0 483.97242506 0 6534.68680612 0 -759.13851975 0 321.28786373 0 12933
0.11050000 0.11050200 15392.08162339 0 162.38228686 0 6839.13144933 0 -41.07865725 0 435.76352280 0 13428
0.11150000 0.11150900 15503.35848782 0 256.69524243 0 6768.87754836 0 -55.84282733 0 -218.61751738 0 13453
0.11250000 0.11250000 15130.88548092 0 169.95797150 0 7016.00076598 0 220.05249068 0 -618.86545109 0 13668
0.11350000 0.11349100 15112.61614497 0 58.72738939 0 6216.92215615 0 564.72510442 0 -627.72995434 0 13791
0.11450000 0.11448600 14971.44400353 0 44.76817732 0 6506.64060735 0 694.96221787 0 43.12814457 0 14205
0.11550000 0.11549300 15027.02707412 0 -86.05720874 0 5874.92018715 0 906.62742250 0 -558.11160481 0 14776
0.11650000 0.11649800 15050.16823299 0 115.55963967 0 5584.76991528 0 308.75288480 0 214.21073210 0 14553
0.11750000 0.11747300 14930.03350871 0 320.39100542 0 5658.84376831 0 214.56393927 0 377.89069543 0 14568
0.11850000 0.11849100 14809.56661468 0 32.27770914 0 5400.03924800 0 65.06574173 0 -401.80248811 0 16015
0.11950000 0.11950300 14782.10724913 0 51.02680893 0 5707.53985287 0 20.85483452 0 225.35281257 0 15270
0.12050000 0.12050700 14623.33011123 0 366.76411622 0 5767.92831243 0 -50.38494626 0 -205.98399476 0 15999
0.12150000 0.12150000 14229.70896393 0 473.55336740 0 5841.92465919 0 128.99812030 0 -208.49741250 0 15670
0.12250000 0.12250700 14121.64307370 0 21.33648065 0 5291.49724781 0 793.67863702 0 90.66241008 0 16887
0.12350000 0.12352200 13991.32181059 0 -63.56267364 0 4621.54409000 0 754.02974908 0 104.34569981 0 16407
0.12450000 0.12449800 14058.19865249 0 198.98185655 0 4637.33322520 0 499.21458740 0 -228.45638522 0 16306
0.12550000 0.12549900 13675.31766026 0 247.93703350 0 4455.32634983 0 181.47208208 0 -357.24302411 0 17523
0.12650000 0.12650100 13396.07362834 0 438.04885064 0 4311.86223715 0 -249.96216171 0 430.28936540 0 17154
0.12750000 0.12750600 13069.44004619 0 328.31103936 0 4328.92468970 0 -147.73470836 0 457.59814734 0 18007
0.12850000 0.12850300 12908.33772007 0 74.99551335 0 4425.08783075 0 187.35923719 0 90.80978272 0 17496
0.12950000 0.12949900 12823.30226547 0 25.74979860 0 4203.79634692 0 573.12789173 0 179.22550737 0 18405
0.13050000 0.13049000 13082.83755922 0 -75.42102280 0 4310.03530356 0 299.69904480 0 -223.53030790 0 18100
0.13150000 0.13148800 12883.20354274 0 -16.89625695 0 3770.59163839 0 178.48476884 0 -674.42526980 0 19059
0.13250000 0.13249300 12742.80646404 0 290.08826685 0 3814.77021442 0 113.47804260 0 -253.04801864 0 18957
0.13350000 0.13349100 12551.47669117 0 269.18482483 0 3904.41175615 0 -70.69424733 0 107.20723144 0 19468
0.13450000 0.13450700 12355.05364889 0 250.60324932 0 3461.72913758 0 355.31976129 0 205.63078760 0 19953
0.13550000 0.13551000 12316.52195852 0 57.09189629 0 3448.01052713 0 504.29457003 0 248.96675971 0 19956
0.13650000 0.13649900 12043.92132148 0 162.71224214 0 3342.82344135 0 621.99891901 0 311.53425279 0 19723
0.13750000 0.13749600 11984.57366045 0 206.12461329 0 3359.60908577 0 311.78891627 0 1001.74865778 0 20946
0.13850000 0.13851100 11721.16305302 0 343.62185012 0 3603.17808713 0 94.33975060 0 1364.84119110 0 20955
0.13950000 0.13949800 11582.75899279 0 156.79297729 0 3468.58290664 0 -11.56105724 0 715.48145022 0 20506
0.14050000 0.14048300 11410.91651160 0 306.02466397 0 3513.43689448 0 -206.41249373 0 926.53546252 0 21447
0.14150000 0.14148400 11038.72031282 0 326.03235491 0 3670.55318365 0 -157.60457870 0 864.07647822 0 21771
0.14250000 0.14249400 11118.60713639 0 -26.09226560 0 3494.10461535 0 -19.24923670 0 1117.51867162 0 22470
0.14350000 0.14350900 11097.45899598 0 -183.33112542 0 3591.19783168 0 413.80931714 0 1133.37424076 0 22519
0.14450000 0.14449900 11402.61226799 0 -165.19687183 0 3093.04286576 0 434.07942219 0 753.58021269 0 22218
0.14550000 0.14550500 11414.79182529 0 20.58466979 0 3269.79038684 0 275.78171596 0 184.92886189 0 23559
0.14650000 0.14650700 11185.15180855 0 258.16564717 0 2975.54335479 0 -276.72286357 0 575.15855610 0 23044
0.14750000 0.14750500 11023.70624037 0 339.28814219 0 3202.29349475 0 -96.22647475 0 363.98606993 0 23649
0.14850000 0.14849900 10799.32557792 0 262.58350477 0 3328.57335931 0 -36.28600145 0 464.20389632 0 23640
0.14950000 0.14949500 10634.04898535 0 166.54658822 0 3312.83958574 0 22.98238173 0 229.70534346 0 24457
0.15050000 0.15050000 10361.02759997 0 251.54107523 0 3163.61786416 0 335.21684835 0 301.59241234 0 24591
0.15150000 0.15149900 10294.74866361 0 188.81303343 0 2925.13105989 0 287.21610580 0 72.80961499 0 25020
0.15250000 0.15250500 10140.00185194 0 197.92777123 0 3120.80118408 0 73.83590878 0 215.76860821 0 25297
0.15350000 0.15350100 9910.39505218 0 179.28640516 0 2958.66913176 0 -11.40992000 0 154.87635787 0 25452
0.15450000 0.15450400 9723.95924688 0 173.16230230 0 3026.77500172 0 127.86542147 0 -54.77589811 0 26061
0.15550000 0.15549900 9605.48537132 0 326.39774163 0 3134.51979453 0 -362.12924105 0 -140.53658999 0 26128
0.15650000 0.15649500 9474.35582849 0 133.66399798 0 3246.52743240 0 139.99847501 0 137.35994000 0 26331
0.15750000 0.15749700 9436.75421341 0 -63.95385888 0 2996.42575940 0 55.74306568 0 32.24327421 0 27345
0.15850000 0.15849900 9413.56876524 0 -60.19580111 0 2906.37454165 0 328.58784748 0 124.03771878 0 26980
0.15950000 0.15949700 9468.06674800 0 15.79954318 0 2990.40241470 0 468.97163939 0 89.71406546 0 27777
0.16050000 0.16050000 9524.88991897 0 56.01754862 0 2425.61419802 0 468.67047216 0 -108.37436520 0 28224
0.16150000 0.16150500 9362.74679432 0 101.16849621 0 2692.12505641 0 -129.35907809 0 117.29688743 0 28075
0.16250000 0.16249700 9261.47931153 0 198.32637492 0 2693.88555605 0 -120.77691912 0 116.39449296 0 28590
0.16350000 0.16349900 9218.96158423 0 139.28320282 0 2854.38997662 0 -169.78302877 0 348.26447592 0 29163
0.16450000 0.16449100 9084.47712698 0 237.26552684 0 3012.07095437 0 -144.54809327 0 393.98431956 0 28996
0.16550000 0.16550500 8966.02539607 0 127.28080272 0 3160.63940878 0 -156.00905669 0 283.58881219 0 30777
0.16650000 0.16650700 8762.88145262 0 340.77736987 0 3026.52033825 0 -8.92294298 0 261.20057140 0 29211
0.16750000 0.16749900 8667.28300014 0 144.51376907 0 2958.11551552 0 251.26205264 0 302.77604386 0 30922
0.16850000 0.16850800 8504.34266811 0 -54.71178935 0 2850.92433895 0 389.75912041 0 315.37081334 0 30867
0.16950000 0.16949900 8598.50171837 0 -40.87437285 0 2553.76528547 0 702.72059587 0 183.71090616 0 30852
0.17050000 0.17049200 8514.15274790 0 34.36650322 0 2302.26849954 0 404.24615020 0 486.17249600 0 31257
0.17150000 0.17149500 8580.34310566 0 1.30321263 0 2290.95258358 0 114.51330497 0 473.79806578 0 32608
0.17250000 0.17250900 8559.46070105 0 113.49465109 0 2197.81218720 0 106.12557603 0 748.80693346 0 32361
0.17350000 0.17350400 8451.28408758 0 191.44271058 0 2353.71052065 0 -96.77809797 0 852.89343015 0 32508
0.17450000 0.17449800 8270.57267421 0 243.51474697 0 2507.44975076 0 -240.31816679 0 908.49864539 0 32791
0.17550000 0.17549800 8177.77551991 0 198.63307832 0 2538.47440490 0 -192.71824240 0 754.98196901 0 33633
0.17650000 0.17650100 7948.64483011 0 138.23465366 0 2583.67163481 0 -3.21635535 0 703.02176311 0 33984
0.17750000 0.17750300 7949.56383307 0 10.92900465 0 2408.71783035 0 293.01136061 0 369.09262613 0 34069
0.17850000 0.17849800 7898.97438097 0 24.58532220 0 2343.29146299 0 149.74322808 0 322.64200905 0 34536
