### header ###
fiducial parameters:
Omega_m = 0.31
Omega_nu = 0
Omega_de = 0.69
Omega_k = 0
H_0 = 100
w_de = -1
zeff = 0
beta = 0
fgrowth = 0
b_1 = 2
gamma = 0.55
Lx = 3500 Ly = 3500 Lz = 3500
nx = 700 ny = 700 nz = 700
xoffset = -685.467585 yoffset = -31.7331281 zoffset = 572.489161
bins = 400 dk = 0.001
kx_ny = 0.628318531 ky_ny = 0.628318531 kz_ny = 0.628318531
############################
A(data) = 8.01614977 (not used)
A(ran) = 8.01150102 (used)
Ngal = 476082
weighted Ngal = 0
Nran = 23820508
weighted Nran = 0
SN(data) = 3494.53241
SN(ran) = 69.7830794
SN(data+ran) = 3564.31549
############################
13 columns: k_central k_mean P_0(k) sigma^{lin}_{P_0(k)} P^img_1(k) sigma^{lin}_{P_1(k)} P_2(k) sigma^{lin}_{P_2(k)} P^img_3(k) sigma^{lin}_{P_3(k)} P_4(k) sigma^{lin}_{P_4(k)} N_modes
### header ###
0.00050000 0 0 0 0 0 0 0 0 0 0 0 0
0.00150000 0.00179520 28427.08673939 0 -24561.51669871 0 6927.10107002 0 -26318.80537067 0 -131178.26105643 0 3
0.00250000 0.00253879 44465.12779271 0 -16300.67659801 0 10940.39806843 0 -3756.82873864 0 88837.13733369 0 6
0.00350000 0.00331552 47917.92156415 0 -4399.01250580 0 -12344.64566356 0 6874.79540757 0 4689.73853856 0 7
0.00450000 0.00420575 45987.46173202 0 -1294.98589381 0 -12683.90169600 0 6579.45221536 0 33542.27935911 0 24
0.00550000 0.00557378 101092.09716621 0 -63671.51459287 0 -41672.35530370 0 34577.65245290 0 -33511.83046586 0 45
0.00650000 0.00659388 99774.93340579 0 -36767.97974853 0 26256.35745870 0 -43916.27265145 0 -14263.14738488 0 40
0.00750000 0.00754703 147487.79551430 0 24809.09388165 0 -39528.19960257 0 -20675.24141061 0 941.81859247 0 57
0.00850000 0.00846663 109453.47397626 0 29218.97941042 0 6900.89287717 0 -34070.20780646 0 16003.16323013 0 75
0.00950000 0.00948925 83637.01998261 0 33726.30139760 0 -7796.07926643 0 -8518.01698926 0 -1367.12209001 0 112
0.01050000 0.01054430 67847.10972848 0 7751.64602694 0 43994.66471116 0 -2937.31061719 0 2657.24723323 0 105
0.01150000 0.01145670 56182.41553204 0 6085.89226424 0 24475.48473487 0 1608.81986847 0 12738.26681086 0 144
0.01250000 0.01249090 56317.05500183 0 897.62340796 0 27584.92571369 0 14388.59682508 0 31201.25772270 0 169
0.01350000 0.01339930 70477.78338214 0 -17506.12060102 0 28882.93435218 0 26856.14529412 0 20613.45783812 0 180
0.01450000 0.01448870 82443.86626015 0 -12324.93692538 0 23507.32065272 0 25354.29515572 0 6442.38790643 0 267
0.01550000 0.01550050 84533.10323018 0 -335.26113765 0 3677.68376084 0 23002.42264099 0 20541.37700355 0 238
0.01650000 0.01653350 83774.75970335 0 7339.37908464 0 -529.93475261 0 3903.52597016 0 2599.23932350 0 315
0.01750000 0.01747870 81079.42367275 0 6599.88065465 0 2544.11021823 0 -10154.72804395 0 5279.48377538 0 297
0.01850000 0.01844180 66473.58783473 0 10377.45893000 0 14814.43843760 0 -9476.27134069 0 11296.87156597 0 388
0.01950000 0.01947590 67968.79457824 0 5078.23319947 0 8610.79199891 0 -13467.15795367 0 1447.80612096 0 399
0.02050000 0.02045430 63811.57950183 0 -3108.35589099 0 22832.24100853 0 -5098.96059153 0 -2511.61294489 0 462
0.02150000 0.02154770 66143.18966214 0 -3042.42019669 0 20626.96607440 0 -2730.62352980 0 -5566.60023025 0 571
0.02250000 0.02255340 74098.10142810 0 -4430.41361898 0 26089.82969342 0 17025.69242714 0 4937.69218055 0 510
0.02350000 0.02348930 81493.30717447 0 -9585.27837853 0 22393.66622246 0 5984.14867149 0 -2073.55855809 0 555
0.02450000 0.02439640 78725.33669306 0 3537.65206886 0 19946.46099105 0 4551.06874253 0 -6351.69449384 0 592
0.02550000 0.02547300 76614.06579664 0 10152.97861663 0 20505.94556413 0 -9974.24914941 0 -9417.79839332 0 837
0.02650000 0.02652900 63967.36711203 0 9546.74668816 0 22203.66512858 0 -12152.20865821 0 18175.55335955 0 723
0.02750000 0.02749970 64442.48057000 0 6592.52863097 0 33900.02617400 0 -266.22408517 0 -603.17264512 0 826
0.02850000 0.02848090 54179.76414209 0 2448.98787571 0 26211.51454318 0 5161.38635886 0 8817.92197930 0 831
0.02950000 0.02946900 54964.45980199 0 1616.10545820 0 32564.03946138 0 7073.27790227 0 -1776.20020276 0 996
0.03050000 0.03053250 52369.21758774 0 -804.45311630 0 27967.80670592 0 8748.77531080 0 4401.53699586 0 1041
0.03150000 0.03150510 52738.03672745 0 302.68967973 0 30380.35556065 0 6958.77899132 0 5209.36274230 0 1036
0.03250000 0.03246190 52475.95479900 0 953.94721708 0 25279.99985619 0 10507.61410825 0 11654.72910411 0 1059
0.03350000 0.03345080 52157.84690696 0 126.55777991 0 26798.23703532 0 3661.26350313 0 15167.86704582 0 1302
0.03450000 0.03451200 50669.17283509 0 3813.48582474 0 21141.71845522 0 3459.39287704 0 14574.83332853 0 1339
0.03550000 0.03553350 48313.75717642 0 2425.35953455 0 21442.33207405 0 5622.77013405 0 15801.86836493 0 1365
0.03650000 0.03647120 45578.00716023 0 1482.09711092 0 18502.07621845 0 2451.95525876 0 15726.46583292 0 1308
0.03750000 0.03744890 46092.98098754 0 187.77887830 0 16297.13345407 0 3839.93760873 0 6254.20267381 0 1579
0.03850000 0.03847530 46992.71810231 0 -1353.50313048 0 15573.55702717 0 -1481.98638768 0 8797.41603373 0 1662
0.03950000 0.03950240 46000.30562881 0 960.87959964 0 15970.94276491 0 -1694.96255556 0 879.23227643 0 1683
0.04050000 0.04050350 46182.88826507 0 539.23771992 0 17938.16271544 0 -3617.33959058 0 7556.34128946 0 1822
0.04150000 0.04152450 45630.48997987 0 1753.02582691 0 19036.98023044 0 -2877.42041225 0 -3111.20147847 0 1887
0.04250000 0.04250150 44741.16085043 0 2053.37370994 0 22214.18383715 0 -4049.19347548 0 -2118.91080054 0 1920
0.04350000 0.04349210 41812.53093590 0 3399.76840789 0 23245.79234051 0 -1240.17788596 0 -4613.83775193 0 2005
0.04450000 0.04448520 41589.97720705 0 1337.06072813 0 22554.43637883 0 127.46681778 0 -5736.13966787 0 2151
0.04550000 0.04548030 41079.32158641 0 -1556.29275953 0 22384.03329987 0 2995.18565902 0 -7075.18234214 0 2274
0.04650000 0.04648670 41290.58154395 0 -685.16874657 0 23407.11611311 0 2422.07105408 0 -8028.34342415 0 2311
0.04750000 0.04749250 42427.93074932 0 416.80327378 0 20010.90192149 0 -925.61535233 0 -8717.68422271 0 2568
0.04850000 0.04851840 42134.73558812 0 554.42230618 0 22721.96065334 0 2196.09597686 0 -2291.72764631 0 2493
0.04950000 0.04949480 41177.53310755 0 420.32538030 0 18479.26722933 0 -106.23109528 0 -5329.26494776 0 2644
0.05050000 0.05050630 41691.28897914 0 396.81772748 0 21436.46374189 0 3757.95811577 0 -2376.08768911 0 2829
0.05150000 0.05149060 41283.60597932 0 1104.19091424 0 18774.01251600 0 2883.03408093 0 -3536.03550943 0 2784
0.05250000 0.05249300 38590.92730667 0 1511.15089125 0 18250.40227533 0 3611.12801635 0 -2759.01297064 0 3055
0.05350000 0.05348950 37850.96383904 0 1949.99141311 0 18781.76314337 0 2580.08420157 0 -2062.92912626 0 3009
0.05450000 0.05448610 35462.77409890 0 1715.96675574 0 14463.11357111 0 1809.08500747 0 -2784.31323285 0 3336
0.05550000 0.05550870 34699.44802591 0 1695.00684486 0 14967.12579685 0 1017.22776788 0 -3156.66444417 0 3349
0.05650000 0.05647670 32360.19796147 0 745.82294192 0 12533.31807847 0 2107.53952296 0 -2294.73931866 0 3324
0.05750000 0.05747970 33182.76097225 0 677.88869300 0 12607.94554774 0 2548.36199096 0 -4015.00213644 0 3639
0.05850000 0.05849280 32480.33268575 0 -177.16273326 0 11449.78037171 0 1141.05843419 0 -2375.83302564 0 3846
0.05950000 0.05951020 32442.02244188 0 424.20180122 0 12510.95198233 0 -1428.47384183 0 -3903.72527201 0 3787
0.06050000 0.06049470 31429.23689072 0 1253.44253109 0 11649.19294170 0 -457.49406748 0 -1277.52483758 0 3930
0.06150000 0.06148310 32017.50950834 0 -422.69042888 0 11319.90200159 0 -464.54049500 0 -3778.16510857 0 4083
0.06250000 0.06249100 31576.05591782 0 0.27189312 0 13001.34524855 0 684.91297586 0 -1464.64712701 0 4303
0.06350000 0.06350600 32655.38614114 0 142.84295525 0 13494.06370298 0 1716.08855132 0 -666.50966478 0 4470
0.06450000 0.06451750 31823.74382401 0 551.07735685 0 12622.56101650 0 1948.17555184 0 1019.93162960 0 4479
0.06550000 0.06550280 31709.69887838 0 -24.61278156 0 12279.42967038 0 2433.39804237 0 703.59198783 0 4636
0.06650000 0.06648880 31911.99025281 0 -249.61559794 0 12358.92896257 0 2134.52277854 0 2305.56805234 0 4653
0.06750000 0.06749660 31849.65306408 0 947.07130336 0 12934.35768340 0 278.92072004 0 1979.99741337 0 5220
0.06850000 0.06852730 30195.33701293 0 1404.49118627 0 12441.08561273 0 -1561.55211382 0 2521.13514423 0 5029
0.06950000 0.06949320 30047.74292310 0 1499.50280554 0 13409.91403436 0 -1226.19353972 0 3478.65872222 0 5040
0.07050000 0.07048030 28433.84085753 0 981.11316602 0 12864.04842080 0 1119.87707681 0 3933.67591065 0 5475
0.07150000 0.07148790 28793.35924439 0 -182.29918474 0 12580.37545895 0 2181.20369997 0 2018.91663511 0 5509
0.07250000 0.07249820 28194.34647170 0 9.52187825 0 11813.50624201 0 1834.90566895 0 1147.84576930 0 5916
0.07350000 0.07351270 27462.35507794 0 807.67405559 0 10584.59998271 0 1697.05522495 0 1116.83218748 0 5721
0.07450000 0.07449140 27507.97305620 0 940.08466640 0 10576.20716050 0 -715.86233820 0 1378.83660967 0 6028
0.07550000 0.07549160 26033.25011360 0 818.62347761 0 10351.06250763 0 1456.33181107 0 2886.62151417 0 6183
0.07650000 0.07648840 26214.61479413 0 13.65261939 0 9466.09587418 0 919.04503478 0 2269.26189926 0 6330
0.07750000 0.07749960 25477.19796121 0 -12.44252501 0 9235.94653050 0 992.05483740 0 -892.14482164 0 6583
0.07850000 0.07848650 25561.45835308 0 472.70633455 0 8757.37850719 0 1030.70278718 0 -1314.05243715 0 6549
0.07950000 0.07947320 24845.07893731 0 230.26671032 0 7877.23940735 0 266.27058894 0 961.65134068 0 6828
0.08050000 0.08048110 24772.55520975 0 -35.66473330 0 7177.93351646 0 139.78699360 0 117.89922190 0 7147
0.08150000 0.08149960 24758.16118749 0 910.64667641 0 7866.72069878 0 8.26867931 0 -560.12233900 0 7386
0.08250000 0.08250610 24012.21866445 0 1217.63463263 0 8518.10556786 0 -856.69788096 0 1028.06203771 0 7227
0.08350000 0.08350160 22903.76822686 0 1365.78233870 0 9190.33962457 0 -479.48038288 0 743.95061180 0 7798
0.08450000 0.08449610 21913.12732533 0 798.79294386 0 9447.17327106 0 -560.13341132 0 1251.88133330 0 7371
0.08550000 0.08548940 21629.34364023 0 254.76976515 0 11237.96679793 0 872.38072183 0 1493.92235383 0 8256
0.08650000 0.08650700 21608.30622308 0 140.61298903 0 10049.43023493 0 873.09931571 0 907.92509897 0 8037
0.08750000 0.08749060 20984.38071955 0 179.12253475 0 8983.76326043 0 1212.45278462 0 520.88534154 0 8155
0.08850000 0.08849210 21407.45425087 0 -129.32807558 0 8762.90359727 0 1407.61358187 0 -62.73689965 0 8718
0.08950000 0.08949900 20700.26486470 0 415.64400137 0 7857.79640497 0 959.37154900 0 117.41314684 0 8571
0.09050000 0.09049190 20058.29147172 0 573.35708885 0 6524.85458168 0 1110.87527673 0 -8.65653177 0 8932
0.09150000 0.09150830 19733.65090803 0 52.60306509 0 6292.13645864 0 350.91740494 0 -830.30699476 0 9285
0.09250000 0.09250820 19815.58611169 0 -317.69600156 0 5656.74002660 0 1019.31047218 0 -193.34936491 0 9204
0.09350000 0.09350330 19609.53014682 0 674.35329968 0 5644.36116745 0 366.21271445 0 -1059.49968957 0 9349
0.09450000 0.09448040 19546.86078834 0 140.02394135 0 5140.79183470 0 -7.56712573 0 492.93215030 0 9564
0.09550000 0.09549270 19428.05474304 0 258.78237566 0 5220.49042874 0 52.00327725 0 462.12229926 0 10155
0.09650000 0.09649430 19001.65951427 0 579.17891724 0 5270.83628969 0 -53.68217386 0 737.68035425 0 9913
0.09750000 0.09749140 18649.78103154 0 292.76555499 0 5601.34518553 0 247.62147224 0 655.85365938 0 10476
0.09850000 0.09850240 18097.05057659 0 699.92926278 0 5277.08108089 0 271.77021267 0 380.51926534 0 10575
0.09950000 0.09950330 17585.50916997 0 775.61746078 0 6069.66023606 0 372.78524646 0 0.82048141 0 10882
0.10050000 0.10051200 17109.50992601 0 370.91291633 0 5342.26385710 0 -140.58641545 0 684.25638700 0 10875
0.10150000 0.10150300 16816.31476482 0 224.79033847 0 5838.38151525 0 92.39766483 0 79.51944383 0 11118
0.10250000 0.10250800 16893.26742231 0 302.14159965 0 5848.34660758 0 -82.09852045 0 67.18753134 0 11575
0.10350000 0.10349800 16643.14360465 0 370.00609293 0 6434.82550858 0 -615.51496560 0 391.12544529 0 11364
0.10450000 0.10450100 16309.09156487 0 430.62928578 0 6693.39751007 0 -307.87484944 0 778.11537726 0 12093
0.10550000 0.10551000 16162.60470752 0 322.06514093 0 7556.97241197 0 -170.31892929 0 443.02918234 0 12067
0.10650000 0.10649700 15618.39994269 0 372.27370505 0 7258.48467951 0 406.64884468 0 625.01280583 0 12054
0.10750000 0.10749900 15743.07432014 0 145.99746059 0 7436.40586702 0 547.45892110 0 228.26926293 0 12807
0.10850000 0.10850100 15356.31801423 0 184.31656233 0 7007.75188399 0 569.61575030 0 690.15461443 0 12736
0.10950000 0.10950300 15547.64778709 0 149.92149251 0 6612.90170864 0 395.68502865 0 806.67422466 0 12933
0.11050000 0.11050200 15242.16234535 0 -28.16422975 0 6325.05448033 0 394.75163167 0 1054.65665470 0 13428
0.11150000 0.11150900 15406.14347591 0 -13.98157816 0 5814.17741319 0 697.11910674 0 397.93492505 0 13453
0.11250000 0.11250000 15202.41269925 0 214.06457742 0 5709.44429273 0 457.27372822 0 294.18281257 0 13668
0.11350000 0.11349100 15080.50640300 0 191.92989287 0 5375.41439761 0 207.59058909 0 -564.31764287 0 13791
0.11450000 0.11448600 14615.80093036 0 568.50298165 0 5635.12684855 0 -551.60107782 0 -323.20780485 0 14205
0.11550000 0.11549300 14151.98124370 0 461.61075785 0 5699.23560925 0 -366.42087415 0 -1165.55041668 0 14776
0.11650000 0.11649800 14045.90837194 0 107.69696037 0 5429.07088368 0 77.91063503 0 -482.74118254 0 14553
0.11750000 0.11747300 13722.04287100 0 -92.64291682 0 5045.16016524 0 312.87732580 0 -1196.05467156 0 14568
0.11850000 0.11849100 14094.29443140 0 -122.52413198 0 4960.15792761 0 566.73030245 0 -1095.31755313 0 16015
0.11950000 0.11950300 14137.58722144 0 27.00683963 0 4405.61161139 0 971.18461235 0 -795.59525645 0 15270
0.12050000 0.12050700 13856.57161754 0 146.58761551 0 3898.13374798 0 851.58689582 0 -410.20859711 0 15999
0.12150000 0.12150000 13833.54118192 0 -25.97146654 0 3434.97840081 0 854.17449813 0 298.32054036 0 15670
0.12250000 0.12250700 13961.42653358 0 -11.01566773 0 3663.28973857 0 747.81928209 0 330.31623738 0 16887
0.12350000 0.12352200 13849.70677616 0 71.95926044 0 3702.08716474 0 104.80453695 0 833.04296622 0 16407
0.12450000 0.12449800 13854.46787583 0 301.65663182 0 3978.17558409 0 -329.07170808 0 1291.88564287 0 16306
0.12550000 0.12549900 13344.14442494 0 384.07901777 0 4332.50105061 0 -527.60292100 0 1814.33328943 0 17523
0.12650000 0.12650100 13348.24118512 0 433.77936219 0 4977.91793662 0 -625.44019757 0 906.38604582 0 17154
0.12750000 0.12750600 12958.38462825 0 397.52192734 0 5562.43703612 0 -513.37387638 0 1721.50291815 0 18007
0.12850000 0.12850300 12798.83242762 0 269.19368269 0 5633.62101238 0 -215.92251352 0 1328.10321735 0 17496
0.12950000 0.12949900 12595.43382070 0 103.01978892 0 5579.86487538 0 -102.09901439 0 1263.20832158 0 18405
0.13050000 0.13049000 12768.71570411 0 122.31929397 0 5949.07154646 0 277.04838991 0 856.16751660 0 18100
0.13150000 0.13148800 12346.74940527 0 128.41239432 0 5262.84207117 0 603.92888491 0 668.83153130 0 19059
0.13250000 0.13249300 12555.68417460 0 82.40998495 0 5137.81337932 0 238.28196626 0 386.08864473 0 18957
0.13350000 0.13349100 12367.67609918 0 25.95640818 0 4914.08598404 0 141.31497443 0 410.84525579 0 19468
0.13450000 0.13450700 12179.33585401 0 205.71715174 0 4835.01851251 0 365.47972654 0 236.69087318 0 19953
0.13550000 0.13551000 12056.54377178 0 108.89996846 0 4216.09769979 0 762.69716495 0 517.71865664 0 19956
0.13650000 0.13649900 12013.25098173 0 -31.17623427 0 3677.53982062 0 874.14011425 0 -63.57241729 0 19723
0.13750000 0.13749600 11837.20101712 0 134.91738515 0 3165.64409960 0 540.86756614 0 -369.67060149 0 20946
0.13850000 0.13851100 11670.00891236 0 230.14380752 0 2711.15838277 0 308.50707919 0 -592.33837529 0 20955
0.13950000 0.13949800 11451.66266693 0 163.70764414 0 2494.72764954 0 -185.52233850 0 -517.81830756 0 20506
0.14050000 0.14048300 11346.25413466 0 126.25439821 0 2510.62750798 0 -178.69957195 0 -804.70999424 0 21447
0.14150000 0.14148400 11150.38470862 0 172.39277573 0 2854.78858032 0 -287.29361207 0 -161.79656088 0 21771
0.14250000 0.14249400 11182.82662034 0 179.09485394 0 2696.27717821 0 330.79899075 0 -121.16002156 0 22470
0.14350000 0.14350900 11049.80370997 0 -1.36899331 0 3039.76283874 0 245.08701709 0 262.26240735 0 22519
0.14450000 0.14449900 11137.98370482 0 112.61993743 0 3031.72433092 0 396.51545301 0 485.21806160 0 22218
0.14550000 0.14550500 11059.20411374 0 158.53133229 0 3447.67835738 0 -71.52688616 0 270.24223185 0 23559
0.14650000 0.14650700 10725.61711160 0 450.64251289 0 3403.95374667 0 -172.68176341 0 744.89618834 0 23044
0.14750000 0.14750500 10384.02481862 0 438.15846665 0 3213.62048304 0 -14.35216888 0 659.61382089 0 23649
0.14850000 0.14849900 10125.31994923 0 170.81164774 0 3297.44905424 0 233.97261744 0 670.33404578 0 23640
0.14950000 0.14949500 10012.67011653 0 -28.96010846 0 2880.74210969 0 390.68476676 0 -301.59462681 0 24457
0.15050000 0.15050000 9953.86499942 0 141.78222654 0 2552.21516000 0 336.62967700 0 -203.75070685 0 24591
0.15150000 0.15149900 9828.08338948 0 58.50051746 0 2323.95918386 0 -102.87629159 0 -309.18581270 0 25020
0.15250000 0.15250500 9868.33129019 0 -95.56833576 0 2242.15684810 0 130.13967699 0 -130.16403610 0 25297
0.15350000 0.15350100 10060.10395605 0 -85.90097824 0 2381.32489875 0 -42.69344510 0 -85.09745963 0 25452
0.15450000 0.15450400 9988.20027868 0 92.99534892 0 2417.58676253 0 30.14019684 0 -277.16686379 0 26061
0.15550000 0.15549900 9948.47277723 0 143.65677113 0 2513.94920542 0 55.01483888 0 11.25180720 0 26128
0.15650000 0.15649500 9840.83870767 0 135.81313623 0 2407.95383994 0 18.09273237 0 -135.87403401 0 26331
0.15750000 0.15749700 9681.39723028 0 110.76310856 0 2601.95204308 0 104.75360426 0 77.03470342 0 27345
0.15850000 0.15849900 9520.79315878 0 260.63034667 0 2441.27046531 0 -68.15990290 0 -69.79462094 0 26980
0.15950000 0.15949700 9436.74314109 0 138.79159160 0 2489.41293363 0 323.91089748 0 20.89724152 0 27777
0.16050000 0.16050000 9301.83793550 0 19.47079392 0 2103.57563067 0 369.16127455 0 -3.92384369 0 28224
0.16150000 0.16150500 9327.39286118 0 97.01438138 0 2221.15264792 0 -0.53263640 0 -206.58079307 0 28075
0.16250000 0.16249700 9303.45449492 0 280.69561371 0 2596.85877367 0 -414.01083346 0 -95.85676982 0 28590
0.16350000 0.16349900 8861.18155236 0 456.91719936 0 2694.61632949 0 -262.21479636 0 211.62423703 0 29163
0.16450000 0.16449100 8699.01628307 0 291.30954428 0 2686.68854492 0 95.29916754 0 683.20008721 0 28996
0.16550000 0.16550500 8567.00095426 0 -13.95079710 0 2855.88474047 0 527.38036727 0 859.25005183 0 30777
0.16650000 0.16650700 8550.23745448 0 -69.44296390 0 2499.52196619 0 746.45960060 0 667.38991461 0 29211
0.16750000 0.16749900 8567.22240075 0 -13.35676688 0 2467.13541609 0 532.09717765 0 787.63425490 0 30922
0.16850000 0.16850800 8562.97062802 0 65.33767803 0 2175.22464457 0 -42.37865890 0 781.14144363 0 30867
0.16950000 0.16949900 8441.98333473 0 144.03101571 0 2242.23435437 0 -216.95999036 0 705.48203368 0 30852
0.17050000 0.17049200 8307.74246863 0 128.27066856 0 2154.81834993 0 -368.16919424 0 837.60254958 0 31257
0.17150000 0.17149500 8358.92982626 0 90.61845295 0 2571.42564356 0 -275.04097743 0 629.35094269 0 32608
0.17250000 0.17250900 8235.61734476 0 208.96023567 0 2588.86455515 0 -159.75482418 0 575.81293050 0 32361
0.17350000 0.17350400 8106.04899973 0 181.30156828 0 2506.57503709 0 100.90453198 0 536.73426728 0 32508
0.17450000 0.17449800 7996.00116336 0 33.63960509 0 2568.73506863 0 163.99331012 0 480.46692702 0 32791
0.17550000 0.17549800 8070.32967987 0 24.54369026 0 2478.22988556 0 63.85808327 0 260.30260586 0 33633
0.17650000 0.17650100 7958.87565824 0 -7.29200061 0 2349.69126674 0 103.29205738 0 -9.26603004 0 33984
0.17750000 0.17750300 7998.99069106 0 155.86511647 0 2387.70255784 0 -82.94444607 0 272.40133519 0 34069
0.17850000 0.17849800 7841.89654653 0 163.30018259 0 2370.28579090 0 -86.43532863 0 -8.46943163 0 34536
