### header ###
fiducial parameters:
Omega_m = 0.31
Omega_nu = 0
Omega_de = 0.69
Omega_k = 0
H_0 = 100
w_de = -1
zeff = 0
beta = 0
fgrowth = 0
b_1 = 2
gamma = 0.55
Lx = 3500 Ly = 3500 Lz = 3500
nx = 700 ny = 700 nz = 700
xoffset = -685.467585 yoffset = -31.7331281 zoffset = 572.489161
bins = 400 dk = 0.001
kx_ny = 0.628318531 ky_ny = 0.628318531 kz_ny = 0.628318531
############################
A(data) = 8.01700564 (not used)
A(ran) = 8.01441716 (used)
Ngal = 475816
weighted Ngal = 0
Nran = 23820508
weighted Nran = 0
SN(data) = 3488.01928
SN(ran) = 69.8084801
SN(data+ran) = 3557.82776
############################
13 columns: k_central k_mean P_0(k) sigma^{lin}_{P_0(k)} P^img_1(k) sigma^{lin}_{P_1(k)} P_2(k) sigma^{lin}_{P_2(k)} P^img_3(k) sigma^{lin}_{P_3(k)} P_4(k) sigma^{lin}_{P_4(k)} N_modes
### header ###
0.00050000 0 0 0 0 0 0 0 0 0 0 0 0
0.00150000 0.00179520 18431.43478611 0 -20851.95571472 0 12703.72115743 0 -33657.32081398 0 6637.47119741 0 3
0.00250000 0.00253879 29188.19834743 0 -8934.51355964 0 -4443.57861319 0 996.61884969 0 35275.54108622 0 6
0.00350000 0.00331552 36383.21646108 0 47.80420879 0 343.31403949 0 -15429.28463478 0 12091.53231820 0 7
0.00450000 0.00420575 32728.46348494 0 2108.92356356 0 -7247.45664399 0 -20729.49580222 0 21378.44475984 0 24
0.00550000 0.00557378 26167.44669040 0 -9169.68973878 0 -14778.56410519 0 3732.69107054 0 -5588.43485479 0 45
0.00650000 0.00659388 49623.72392571 0 -29777.13530453 0 -37343.85136234 0 4212.00093961 0 -1913.51917516 0 40
0.00750000 0.00754703 63972.34965820 0 -28529.83791371 0 -20414.93105412 0 -8447.86273921 0 -22445.15253287 0 57
0.00850000 0.00846663 77078.66054603 0 -15865.31278614 0 -40222.32364545 0 -4204.59355431 0 21834.73526562 0 75
0.00950000 0.00948925 86014.13739792 0 -17489.29066729 0 -49869.08664369 0 -19722.68930646 0 -4526.88678513 0 112
0.01050000 0.01054430 114970.59198690 0 -10329.49361889 0 -34211.26922465 0 -30357.21440178 0 -13081.28743374 0 105
0.01150000 0.01145670 115597.28557163 0 3581.52061979 0 -12143.79369135 0 -35894.15187384 0 -11810.07382131 0 144
0.01250000 0.01249090 95684.48444803 0 20379.61033795 0 -5168.41728512 0 -28238.41432448 0 14990.59912547 0 169
0.01350000 0.01339930 102538.14278753 0 6122.47522544 0 3191.90765407 0 -32376.69572545 0 16648.45832056 0 180
0.01450000 0.01448870 91481.65139337 0 10129.32813082 0 30108.75143285 0 3958.76579868 0 -19704.64141701 0 267
0.01550000 0.01550050 78816.57264956 0 12183.98623044 0 37208.10466007 0 4905.52707695 0 -653.23173286 0 238
0.01650000 0.01653350 70602.67920610 0 9703.96262826 0 31785.10141039 0 -3433.21790117 0 -14620.56203003 0 315
0.01750000 0.01747870 64431.40824518 0 2354.99491033 0 41724.61667684 0 1427.80950234 0 5340.49228513 0 297
0.01850000 0.01844180 69472.41628861 0 -1506.22370670 0 36454.96512590 0 2623.08911116 0 -24682.31576248 0 388
0.01950000 0.01947590 65677.04478728 0 568.54173479 0 36280.35456351 0 -4335.80060341 0 -8926.59684739 0 399
0.02050000 0.02045430 69302.34537940 0 3440.75815437 0 22744.21602622 0 12473.85969419 0 -4121.62862444 0 462
0.02150000 0.02154770 66339.05908818 0 -4652.36944230 0 21988.41913410 0 6133.60291189 0 -10614.08558370 0 571
0.02250000 0.02255340 65845.67629426 0 -2688.69263571 0 26684.30281294 0 3951.80130637 0 -19452.85675063 0 510
0.02350000 0.02348930 71474.73550881 0 2572.90933508 0 24972.74284247 0 332.27714611 0 -25656.68034652 0 555
0.02450000 0.02439640 66926.88881280 0 4548.48889085 0 22946.28595416 0 -10777.12556666 0 -3991.19663808 0 592
0.02550000 0.02547300 67671.39193361 0 3378.95243723 0 27961.71692726 0 -12466.55195981 0 -15106.52636632 0 837
0.02650000 0.02652900 62711.43330785 0 2806.34715923 0 35090.52253850 0 -8593.31987035 0 -4893.83470194 0 723
0.02750000 0.02749970 63669.18940466 0 3968.02226223 0 35910.09602158 0 1434.39753561 0 -21134.07855109 0 826
0.02850000 0.02848090 59853.00193267 0 1514.69403519 0 36589.60459570 0 12640.83035246 0 -4130.15431455 0 831
0.02950000 0.02946900 58147.08884786 0 1817.45568503 0 32460.40250108 0 10394.69853975 0 -12350.40327246 0 996
0.03050000 0.03053250 56323.91984322 0 3613.12103482 0 29337.56400923 0 8902.83563833 0 -15084.82460968 0 1041
0.03150000 0.03150510 50169.47881602 0 4358.88640066 0 26366.19492090 0 4580.00072728 0 -5813.90060507 0 1036
0.03250000 0.03246190 47074.87475246 0 1443.55434823 0 19512.42585816 0 4092.76307364 0 -2510.98182237 0 1059
0.03350000 0.03345080 50513.82811788 0 -5490.46692480 0 18984.05451781 0 9346.95765913 0 -2387.01607370 0 1302
0.03450000 0.03451200 53223.00455451 0 -4976.54496834 0 14740.14313807 0 3435.32164288 0 -12402.11102937 0 1339
0.03550000 0.03553350 54541.82916366 0 4215.35585403 0 16070.70441153 0 -7458.79410781 0 -12161.39868781 0 1365
0.03650000 0.03647120 50688.54940352 0 7885.94225466 0 19656.03391105 0 -6770.90378380 0 -2671.71876176 0 1308
0.03750000 0.03744890 45812.51899989 0 4188.59404494 0 18675.46882511 0 -3623.20792273 0 622.68872485 0 1579
0.03850000 0.03847530 43314.38107430 0 1052.79428966 0 21423.95201485 0 4347.71442491 0 673.43872565 0 1662
0.03950000 0.03950240 45784.50601810 0 -2515.45504160 0 20839.00109468 0 8106.09328903 0 -2570.53985757 0 1683
0.04050000 0.04050350 43997.76496211 0 -2030.12182782 0 16067.82560707 0 8398.11478380 0 -2937.33276184 0 1822
0.04150000 0.04152450 47206.96758755 0 1516.97493410 0 14252.40722981 0 2361.88189636 0 -930.07971370 0 1887
0.04250000 0.04250150 45178.29623427 0 2581.88899051 0 13730.34711461 0 -3277.59637584 0 -3448.23197362 0 1920
0.04350000 0.04349210 41666.48697154 0 3275.82480387 0 11851.48431613 0 -4446.50170695 0 -1979.04519344 0 2005
0.04450000 0.04448520 39844.64664588 0 911.82366454 0 14124.18970841 0 -731.01481471 0 1747.32357963 0 2151
0.04550000 0.04548030 39881.62821078 0 -975.23376154 0 14624.99095996 0 2890.23109206 0 -8484.39033878 0 2274
0.04650000 0.04648670 41597.06349493 0 -1113.44405609 0 14575.82983776 0 3203.51145048 0 -8727.30607298 0 2311
0.04750000 0.04749250 41572.81510358 0 1471.56733002 0 12368.11899217 0 -720.82938311 0 -9028.66153757 0 2568
0.04850000 0.04851840 39815.19426187 0 2163.18902749 0 15980.35424101 0 -2226.03554316 0 -2621.01858642 0 2493
0.04950000 0.04949480 39298.44886258 0 2054.12662803 0 17466.26023167 0 -4310.94323419 0 -2871.56315242 0 2644
0.05050000 0.05050630 38133.52956841 0 961.17855241 0 21530.24633311 0 1385.13676249 0 -1017.87328442 0 2829
0.05150000 0.05149060 38818.35285844 0 506.11264576 0 20195.47757622 0 -875.41564607 0 -4099.34003458 0 2784
0.05250000 0.05249300 36581.30035208 0 625.32172369 0 20355.14050010 0 563.99322375 0 -4373.53508639 0 3055
0.05350000 0.05348950 37773.12539556 0 480.85445839 0 20596.84935089 0 -908.25948318 0 -5019.01840634 0 3009
0.05450000 0.05448610 36610.75273610 0 397.98032158 0 19200.85063776 0 1189.44449364 0 -5627.47587210 0 3336
0.05550000 0.05550870 34586.17814301 0 855.34152117 0 17633.23088994 0 2645.98667889 0 -6297.40688525 0 3349
0.05650000 0.05647670 34826.89048457 0 680.43200601 0 15945.03352484 0 2484.23108561 0 -4715.21595797 0 3324
0.05750000 0.05747970 34051.16340778 0 9.33577461 0 15393.85319536 0 2736.50293428 0 -3414.46138292 0 3639
0.05850000 0.05849280 34549.30730137 0 -450.54286196 0 14610.59693769 0 3703.61514556 0 -4205.09180892 0 3846
0.05950000 0.05951020 33965.57433693 0 74.14748400 0 12096.07197138 0 1302.09432635 0 -3482.65583148 0 3787
0.06050000 0.06049470 35103.47715854 0 1495.37282838 0 13128.45553747 0 856.47422000 0 2131.61075711 0 3930
0.06150000 0.06148310 32693.03204552 0 1739.75010945 0 12400.89307364 0 653.25387751 0 1314.09672645 0 4083
0.06250000 0.06249100 31819.20417083 0 645.57189855 0 11623.39442487 0 2541.24248610 0 4939.82913924 0 4303
0.06350000 0.06350600 32333.07076567 0 -316.35846472 0 11120.82160135 0 4852.39099015 0 3617.58318172 0 4470
0.06450000 0.06451750 32265.75103077 0 -581.50631992 0 8345.22228814 0 3466.36844167 0 1300.30060973 0 4479
0.06550000 0.06550280 32101.88062345 0 -184.32431295 0 10663.02525940 0 1357.26772092 0 2303.17643018 0 4636
0.06650000 0.06648880 31892.61368438 0 1214.77797283 0 7426.96117395 0 -579.52548101 0 3012.39205179 0 4653
0.06750000 0.06749660 31211.00136854 0 877.24590136 0 8467.69327296 0 -2477.13372540 0 2522.53025716 0 5220
0.06850000 0.06852730 30215.37792085 0 1211.29019051 0 8759.96943120 0 -1194.03950844 0 2362.24728308 0 5029
0.06950000 0.06949320 29380.63535277 0 1174.99510975 0 10837.83512364 0 -882.13101107 0 1947.81016512 0 5040
0.07050000 0.07048030 28957.22965171 0 873.64185963 0 9745.27347216 0 644.85662637 0 1630.51055279 0 5475
0.07150000 0.07148790 27640.95167727 0 534.41904416 0 9419.16028927 0 450.37013370 0 1721.20396538 0 5509
0.07250000 0.07249820 28030.58678764 0 -327.38207131 0 10410.72019376 0 270.22119443 0 1944.10093631 0 5916
0.07350000 0.07351270 27976.00022628 0 -139.90436025 0 10612.54653055 0 1894.20904067 0 1788.11402426 0 5721
0.07450000 0.07449140 28593.72522791 0 -456.11556304 0 10130.72324374 0 205.61307188 0 702.14483498 0 6028
0.07550000 0.07549160 28534.59901338 0 332.98798936 0 10011.96148774 0 1231.44182168 0 -352.95914164 0 6183
0.07650000 0.07648840 27965.92441070 0 937.24572232 0 9541.14409180 0 -149.67015074 0 2087.34360249 0 6330
0.07750000 0.07749960 26976.16929516 0 829.56182730 0 9280.73408439 0 685.28279151 0 386.57471979 0 6583
0.07850000 0.07848650 26093.48356061 0 930.04871119 0 9368.08365489 0 364.25069849 0 -487.85770383 0 6549
0.07950000 0.07947320 25274.79586352 0 1083.22325273 0 7538.69200370 0 687.30127633 0 -1667.58069629 0 6828
0.08050000 0.08048110 24440.27474194 0 556.91136480 0 8111.25299240 0 -269.21472011 0 -1463.21879711 0 7147
0.08150000 0.08149960 23771.17415315 0 362.35954541 0 7385.73890865 0 -113.41160865 0 -1682.03008018 0 7386
0.08250000 0.08250610 23963.38971200 0 386.74855529 0 7898.84151307 0 792.63008786 0 -1363.08069145 0 7227
0.08350000 0.08350160 23885.88343827 0 59.88920843 0 7407.19707415 0 340.62014286 0 -2409.70326726 0 7798
0.08450000 0.08449610 23272.80881306 0 532.25108296 0 7695.45397848 0 -312.88729089 0 -2373.50783742 0 7371
0.08550000 0.08548940 23049.48002147 0 1019.22964421 0 8488.13278457 0 -355.63975148 0 -1607.24759835 0 8256
0.08650000 0.08650700 21893.64003365 0 514.01607122 0 8164.75446592 0 -372.59923140 0 -965.42368175 0 8037
0.08750000 0.08749060 21957.30590136 0 294.81504232 0 8052.61396016 0 1180.76379099 0 148.87072888 0 8155
0.08850000 0.08849210 21501.01539558 0 -41.27419450 0 7924.50716200 0 1248.41569563 0 -11.52097542 0 8718
0.08950000 0.08949900 22068.69348904 0 -436.11119379 0 6740.94207284 0 1927.72496790 0 -454.09818546 0 8571
0.09050000 0.09049190 21861.75173818 0 314.03549097 0 6394.66618646 0 1546.60447532 0 -437.26714451 0 8932
0.09150000 0.09150830 21244.58035278 0 1271.32433568 0 6602.49372331 0 450.24501643 0 1017.05946854 0 9285
0.09250000 0.09250820 20188.28056509 0 1004.92641501 0 6975.98538409 0 -1120.90680302 0 1739.60616923 0 9204
0.09350000 0.09350330 19456.28917133 0 708.03531178 0 6521.04570194 0 365.08001562 0 1886.02659263 0 9349
0.09450000 0.09448040 19003.20963975 0 508.36254217 0 7637.16926064 0 -305.52751658 0 2180.32898631 0 9564
0.09550000 0.09549270 18646.68078059 0 375.95193136 0 7510.85617910 0 836.63593562 0 1089.57987441 0 10155
0.09650000 0.09649430 18211.09552222 0 292.04474665 0 7068.62752585 0 760.19260507 0 1342.08756359 0 9913
0.09750000 0.09749140 18005.81462008 0 315.00321216 0 6128.42106387 0 -204.24453253 0 561.44658904 0 10476
0.09850000 0.09850240 17950.23154949 0 -190.70861544 0 6377.70338484 0 525.92324933 0 580.26289784 0 10575
0.09950000 0.09950330 17830.98261120 0 54.19770131 0 5769.14626816 0 260.82189789 0 185.03072728 0 10882
0.10050000 0.10051200 17973.92632460 0 211.35517953 0 5412.55097505 0 934.15986539 0 -209.38319848 0 10875
0.10150000 0.10150300 17474.23230554 0 252.45122033 0 5166.14745853 0 772.06213728 0 530.63120184 0 11118
0.10250000 0.10250800 17445.33353776 0 491.68872822 0 5087.01355305 0 345.20076364 0 564.36193217 0 11575
0.10350000 0.10349800 17167.52890806 0 395.51894378 0 5687.97505491 0 -598.11812884 0 1192.61117854 0 11364
0.10450000 0.10450100 16508.94702785 0 576.43076622 0 5956.95504173 0 -598.06830338 0 921.61602860 0 12093
0.10550000 0.10551000 16171.24112088 0 481.47783027 0 5962.05938347 0 -190.07417123 0 888.32486957 0 12067
0.10650000 0.10649700 15944.59063184 0 284.48013433 0 5957.67474284 0 -244.75374012 0 -503.40324788 0 12054
0.10750000 0.10749900 15919.01356151 0 -5.12886694 0 5726.89427665 0 146.40270768 0 -193.56748971 0 12807
0.10850000 0.10850100 15807.73669708 0 69.44263173 0 5822.89133283 0 -238.63295896 0 -1228.04261796 0 12736
0.10950000 0.10950300 15846.93272694 0 71.09119018 0 5846.08785332 0 466.42832638 0 -1580.57436786 0 12933
0.11050000 0.11050200 15523.62084224 0 96.36155711 0 5497.75251453 0 131.47389213 0 -1581.22763503 0 13428
0.11150000 0.11150900 15455.85821435 0 267.05450953 0 5629.94500054 0 419.06645697 0 -1573.86453902 0 13453
0.11250000 0.11250000 15649.29172893 0 -76.70895562 0 5960.21030523 0 -131.17936829 0 -1192.32329810 0 13668
0.11350000 0.11349100 15382.55942405 0 7.32887145 0 6391.75416503 0 349.73377342 0 -1090.71810940 0 13791
0.11450000 0.11448600 15335.83421331 0 425.43747267 0 5744.24460964 0 171.79929912 0 -249.15498923 0 14205
0.11550000 0.11549300 15092.24306730 0 310.91863153 0 5938.08780024 0 706.13530084 0 -87.92300620 0 14776
0.11650000 0.11649800 14862.27088082 0 306.94366693 0 5033.17990979 0 1189.20090250 0 127.60300737 0 14553
0.11750000 0.11747300 14458.24174819 0 87.26398142 0 4354.51283235 0 846.68517763 0 169.71105866 0 14568
0.11850000 0.11849100 14280.86310459 0 302.89894667 0 3904.94322774 0 943.16498717 0 385.55052974 0 16015
0.11950000 0.11950300 13804.19952115 0 446.74505455 0 3386.17159301 0 708.19475326 0 957.00539319 0 15270
0.12050000 0.12050700 13577.21686237 0 93.70430988 0 3274.34111234 0 389.64396823 0 636.93437796 0 15999
0.12150000 0.12150000 13489.30260331 0 189.10423558 0 3519.32737128 0 70.37115689 0 1390.77257582 0 15670
0.12250000 0.12250700 13557.50812419 0 219.94176743 0 3671.29502942 0 -635.68431249 0 586.25191834 0 16887
0.12350000 0.12352200 13322.88556128 0 87.39961740 0 4114.19909449 0 -662.20474489 0 1348.81953708 0 16407
0.12450000 0.12449800 13408.69607863 0 -8.71271275 0 4425.61930234 0 -218.41710830 0 796.53640406 0 16306
0.12550000 0.12549900 13541.01036021 0 38.88722272 0 4662.50061951 0 -326.96353743 0 659.12442413 0 17523
0.12650000 0.12650100 13549.31460383 0 50.75830505 0 4615.96363830 0 -46.26139105 0 702.80696000 0 17154
0.12750000 0.12750600 13361.41725165 0 136.62805933 0 4362.32989367 0 242.85040748 0 758.21619509 0 18007
0.12850000 0.12850300 13213.04809908 0 256.32099785 0 4416.10817532 0 503.04007563 0 686.01910111 0 17496
0.12950000 0.12949900 13209.72640164 0 79.91384004 0 3991.27414435 0 898.90115424 0 942.04778959 0 18405
0.13050000 0.13049000 12910.33073854 0 45.80366114 0 3991.26307203 0 685.39130030 0 872.43940516 0 18100
0.13150000 0.13148800 13086.93431940 0 127.36716685 0 3582.33997182 0 389.83884114 0 1139.69653823 0 19059
0.13250000 0.13249300 12938.56516683 0 -153.93521026 0 3478.88016872 0 91.42363241 0 1365.11799922 0 18957
0.13350000 0.13349100 13066.45051848 0 193.47226772 0 3516.81395355 0 -12.93247539 0 1131.08226952 0 19468
0.13450000 0.13450700 12930.03947672 0 132.24674040 0 3416.95265601 0 27.02178727 0 1116.42251146 0 19953
0.13550000 0.13551000 12774.47331302 0 142.09557333 0 3472.46929265 0 4.52367581 0 1105.79307964 0 19956
0.13650000 0.13649900 12620.67872129 0 285.42903257 0 3233.40672749 0 -7.95965072 0 572.20667430 0 19723
0.13750000 0.13749600 12506.85522215 0 222.03997298 0 3082.09233652 0 79.24208209 0 651.22099867 0 20946
0.13850000 0.13851100 12125.74580189 0 279.91612204 0 3015.64731528 0 258.09810599 0 358.18527895 0 20955
0.13950000 0.13949800 12119.32385350 0 181.53740880 0 3005.22825763 0 299.62043129 0 306.42437489 0 20506
0.14050000 0.14048300 11899.53820585 0 139.24998585 0 2996.06037268 0 441.79129643 0 398.75870602 0 21447
0.14150000 0.14148400 11648.86077195 0 270.53786292 0 2868.90579446 0 -85.90053535 0 673.01244115 0 21771
0.14250000 0.14249400 11439.81527938 0 371.81973973 0 2824.14038522 0 351.37579919 0 742.17903983 0 22470
0.14350000 0.14350900 11118.05352015 0 152.09277541 0 3061.08813634 0 -39.31262144 0 809.56520867 0 22519
0.14450000 0.14449900 11032.20978583 0 177.33878323 0 2854.32354267 0 47.28613471 0 1032.69359119 0 22218
0.14550000 0.14550500 10980.10342523 0 -21.28499434 0 2764.75950722 0 -49.44712034 0 757.48320719 0 23559
0.14650000 0.14650700 10849.48320935 0 168.74001577 0 2759.99840754 0 -148.85633486 0 618.44691721 0 23044
0.14750000 0.14750500 10910.00453680 0 304.41806963 0 3089.68795134 0 -198.76483898 0 523.58809602 0 23649
0.14850000 0.14849900 10481.68272352 0 360.64001337 0 3187.47872414 0 -88.82938671 0 714.73517553 0 23640
0.14950000 0.14949500 10381.57783484 0 127.63511711 0 3229.84143890 0 142.73444647 0 600.19751144 0 24457
0.15050000 0.15050000 10305.62168658 0 70.38621526 0 3037.44872285 0 497.16731454 0 428.13911993 0 24591
0.15150000 0.15149900 10272.58186932 0 -58.21916968 0 2930.43470348 0 580.56074338 0 478.03655172 0 25020
0.15250000 0.15250500 10142.10559366 0 65.26803311 0 2827.46208266 0 460.27875718 0 682.62100463 0 25297
0.15350000 0.15350100 10174.19319098 0 267.47857957 0 2707.38272001 0 -127.85767084 0 468.34162411 0 25452
0.15450000 0.15450400 9886.57848149 0 296.62647466 0 2735.00817043 0 -250.65750371 0 709.75595106 0 26061
0.15550000 0.15549900 9707.80472497 0 223.70525064 0 2886.66580347 0 -580.77886818 0 599.77122694 0 26128
0.15650000 0.15649500 9623.58862240 0 258.30958739 0 2887.58480643 0 -25.82121509 0 869.70675539 0 26331
0.15750000 0.15749700 9478.10934661 0 45.95789862 0 2958.19302180 0 107.98074405 0 521.28837416 0 27345
0.15850000 0.15849900 9351.64125253 0 44.96603977 0 2611.56282103 0 327.61680459 0 349.11593769 0 26980
0.15950000 0.15949700 9437.13067245 0 97.76132041 0 2543.78912081 0 273.20518597 0 -1.94523031 0 27777
0.16050000 0.16050000 9136.62777688 0 66.19999069 0 2384.40300505 0 5.93919503 0 -252.10354933 0 28224
0.16150000 0.16150500 9109.71095524 0 103.35051926 0 2399.04061846 0 212.68828744 0 -145.88563011 0 28075
0.16250000 0.16249700 9009.21853519 0 0.49204415 0 2230.42018379 0 84.89782561 0 -131.87138859 0 28590
0.16350000 0.16349900 9035.98034427 0 11.70333661 0 2093.44445346 0 435.72809136 0 -174.59949007 0 29163
0.16450000 0.16449100 9033.69944536 0 78.85964399 0 1818.40790497 0 252.09801317 0 -235.89145133 0 28996
0.16550000 0.16550500 8862.17806160 0 116.49635835 0 1728.74421858 0 195.24494692 0 -435.33613106 0 30777
0.16650000 0.16650700 8723.59684417 0 358.51301977 0 1581.68160034 0 -213.70029793 0 -28.99011446 0 29211
0.16750000 0.16749900 8515.70287337 0 250.44602231 0 1779.98693785 0 -153.01620730 0 -178.20353179 0 30922
0.16850000 0.16850800 8354.44553471 0 124.63451709 0 1823.47902973 0 -215.11755551 0 19.54198897 0 30867
0.16950000 0.16949900 8366.62509201 0 2.86518549 0 1980.65068053 0 -56.15019507 0 -423.30605014 0 30852
0.17050000 0.17049200 8327.26297728 0 -72.65061640 0 1849.75365653 0 106.04795903 0 -251.73041198 0 31257
0.17150000 0.17149500 8418.79788656 0 -19.94601810 0 1848.24782035 0 92.06759882 0 -673.38004233 0 32608
0.17250000 0.17250900 8423.73614343 0 -15.50579440 0 1842.12482473 0 80.10948802 0 -282.63659225 0 32361
0.17350000 0.17350400 8440.42213693 0 182.58042179 0 1755.50602767 0 -87.64796965 0 -417.18416175 0 32508
0.17450000 0.17449800 8334.48213306 0 189.83611625 0 1830.08920765 0 105.20413716 0 -106.35211579 0 32791
0.17550000 0.17549800 8167.30110063 0 104.74530002 0 1952.15051645 0 -100.35899854 0 363.55314203 0 33633
0.17650000 0.17650100 8203.10899909 0 43.08983433 0 2043.59684713 0 411.17299661 0 201.13542373 0 33984
0.17750000 0.17750300 8099.02914580 0 -2.13776697 0 2006.60420991 0 243.83141546 0 201.11106461 0 34069
