### header ###
fiducial parameters:
Omega_m = 0.31
Omega_nu = 0
Omega_de = 0.69
Omega_k = 0
H_0 = 100
w_de = -1
zeff = 0
beta = 0
fgrowth = 0
b_1 = 2
gamma = 0.55
Lx = 3500 Ly = 3500 Lz = 3500
nx = 700 ny = 700 nz = 700
xoffset = -685.467585 yoffset = -31.7331281 zoffset = 572.489161
bins = 400 dk = 0.001
kx_ny = 0.628318531 ky_ny = 0.628318531 kz_ny = 0.628318531
############################
A(data) = 8.04754944 (not used)
A(ran) = 8.05157095 (used)
Ngal = 478597
weighted Ngal = 0
Nran = 23820508
weighted Nran = 0
SN(data) = 3477.11853
SN(ran) = 70.132103
SN(data+ran) = 3547.25064
############################
13 columns: k_central k_mean P_0(k) sigma^{lin}_{P_0(k)} P^img_1(k) sigma^{lin}_{P_1(k)} P_2(k) sigma^{lin}_{P_2(k)} P^img_3(k) sigma^{lin}_{P_3(k)} P_4(k) sigma^{lin}_{P_4(k)} N_modes
### header ###
0.00050000 0 0 0 0 0 0 0 0 0 0 0 0
0.00150000 0.00179520 -1717.28436240 0 -950.48490110 0 -2267.25780846 0 1115.73602733 0 -1341.39000713 0 3
0.00250000 0.00253879 -729.95187153 0 -2418.40611456 0 -7154.90308083 0 11028.89916071 0 7875.48998003 0 6
0.00350000 0.00331552 2934.02213672 0 -9637.63940260 0 -18391.79586326 0 14877.88285882 0 9665.29806999 0 7
0.00450000 0.00420575 13694.14061245 0 -23774.05295760 0 -30190.02229702 0 12792.63192572 0 -3696.57314698 0 24
0.00550000 0.00557378 39307.86033868 0 -23337.69263650 0 -27893.06851339 0 -23369.58093198 0 -35126.83976391 0 45
0.00650000 0.00659388 71955.16368270 0 -17836.18660386 0 -43501.94625673 0 -21821.44847584 0 -9438.86902745 0 40
0.00750000 0.00754703 83720.28386524 0 -23767.18811622 0 -29653.45743631 0 -58270.65599283 0 -26179.84769420 0 57
0.00850000 0.00846663 78626.79300217 0 -9084.99752625 0 -38754.35482099 0 -27312.43579990 0 8350.92453542 0 75
0.00950000 0.00948925 109517.02912072 0 5006.15236490 0 10323.82458858 0 -49281.25691907 0 -44738.83566222 0 112
0.01050000 0.01054430 88479.27979555 0 -7099.64110766 0 -3484.08416138 0 -12254.18476979 0 -35244.64929998 0 105
0.01150000 0.01145670 96375.28679347 0 3790.62147399 0 3982.07304243 0 -17887.11929803 0 -44143.69820322 0 144
0.01250000 0.01249090 90314.62835749 0 11068.52701123 0 18552.78746612 0 -27610.17061427 0 -70958.32227927 0 169
0.01350000 0.01339930 78217.44915363 0 13481.10908294 0 28508.13615707 0 -17997.73182297 0 -31589.23198435 0 180
0.01450000 0.01448870 71280.30548500 0 7266.57854896 0 27802.27544988 0 -21543.64384614 0 -32274.16599763 0 267
0.01550000 0.01550050 62878.40396611 0 -1267.88084266 0 37777.22215575 0 -15083.49593070 0 -34515.53671067 0 238
0.01650000 0.01653350 84751.56019885 0 -4877.91269885 0 50785.32152244 0 7126.31433815 0 -50141.02294124 0 315
0.01750000 0.01747870 69842.01049106 0 -3230.58328466 0 54883.29966107 0 -8851.91401649 0 -17221.56185318 0 297
0.01850000 0.01844180 84640.28333443 0 7136.85519138 0 43623.29893674 0 563.27020094 0 -43241.19300725 0 388
0.01950000 0.01947590 76573.31964131 0 2776.87263057 0 46122.98698780 0 10459.23912111 0 -5731.94325677 0 399
0.02050000 0.02045430 77616.11119273 0 2928.09844294 0 41895.24120230 0 17955.65698865 0 -16047.67397591 0 462
0.02150000 0.02154770 71824.73169633 0 125.05969436 0 24261.23524963 0 23978.89096675 0 332.68350043 0 571
0.02250000 0.02255340 75732.93018757 0 -2180.76080698 0 32149.27017368 0 23320.97342603 0 9960.79627475 0 510
0.02350000 0.02348930 76013.50289847 0 -3322.63859320 0 16625.87077793 0 15283.57284017 0 15223.22866991 0 555
0.02450000 0.02439640 77391.12155241 0 3255.27456901 0 22381.04377217 0 12102.60464302 0 23211.35741032 0 592
0.02550000 0.02547300 73267.23417371 0 2450.92553256 0 14232.25559864 0 1984.02773960 0 37438.18756980 0 837
0.02650000 0.02652900 71261.48253281 0 1384.02953001 0 22790.16617422 0 9779.16585843 0 43150.73211348 0 723
0.02750000 0.02749970 69112.34428551 0 504.07644523 0 11930.98360833 0 7314.32241357 0 32295.42486128 0 826
0.02850000 0.02848090 69880.87435117 0 1654.14996628 0 12501.76195273 0 5043.84255859 0 26637.57760220 0 831
0.02950000 0.02946900 67252.52588572 0 3999.65589424 0 6961.04881791 0 -3699.93913372 0 22224.03820624 0 996
0.03050000 0.03053250 62232.99815244 0 4794.13948928 0 7462.71371079 0 -5390.59455493 0 16500.53206099 0 1041
0.03150000 0.03150510 60101.02200860 0 3497.33773419 0 5742.81627974 0 -3792.43733526 0 14911.09983327 0 1036
0.03250000 0.03246190 56998.55659442 0 3313.58143150 0 6298.14873102 0 -3023.14327918 0 -1177.15421309 0 1059
0.03350000 0.03345080 53769.97740055 0 2933.47959280 0 8057.75151887 0 3008.94855877 0 4410.14019224 0 1302
0.03450000 0.03451200 52291.93276051 0 1709.68874757 0 8446.17974583 0 -880.41369349 0 3370.83642314 0 1339
0.03550000 0.03553350 52387.26547720 0 22.27674247 0 12844.78257562 0 1061.79608974 0 7111.87602659 0 1365
0.03650000 0.03647120 51611.31695391 0 -314.94785054 0 13064.90039301 0 5135.36639554 0 6484.93885071 0 1308
0.03750000 0.03744890 50385.27842674 0 300.63687071 0 13789.91622213 0 4078.35797905 0 11146.84156468 0 1579
0.03850000 0.03847530 50983.95902968 0 1195.52319997 0 12664.08223457 0 6699.45407174 0 12650.90616804 0 1662
0.03950000 0.03950240 48294.93422423 0 1173.14603151 0 10995.89256042 0 3438.00114549 0 9896.11175316 0 1683
0.04050000 0.04050350 47055.16601428 0 2319.23130116 0 10077.62037391 0 26.88692636 0 14300.12894978 0 1822
0.04150000 0.04152450 45081.30266886 0 885.54571604 0 8989.03368704 0 1696.76734451 0 8401.68007239 0 1887
0.04250000 0.04250150 44698.31095339 0 1280.07147228 0 11713.85531864 0 -3884.73623495 0 13251.13689646 0 1920
0.04350000 0.04349210 45364.31129123 0 747.02982533 0 13675.76055325 0 -3206.22417006 0 6308.87781377 0 2005
0.04450000 0.04448520 43488.21657396 0 1150.99030955 0 19135.63464458 0 -3926.61176741 0 8222.52985682 0 2151
0.04550000 0.04548030 43795.03069468 0 1400.82624676 0 15990.54077984 0 -2111.55877686 0 4329.68868011 0 2274
0.04650000 0.04648670 42895.95791941 0 1176.87740497 0 19752.91675322 0 -744.02922530 0 5582.82118611 0 2311
0.04750000 0.04749250 42579.84304583 0 1295.84953515 0 18537.72910437 0 3702.46362378 0 1788.52370028 0 2568
0.04850000 0.04851840 41242.63837749 0 1808.24351078 0 15941.93327389 0 3247.31356746 0 1808.28780008 0 2493
0.04950000 0.04949480 37520.12277346 0 1137.38242235 0 11698.79695689 0 4149.02155604 0 -1641.41679274 0 2644
0.05050000 0.05050630 38577.64051689 0 -621.88376683 0 8722.81070910 0 3174.71233363 0 -4242.91487051 0 2829
0.05150000 0.05149060 36970.49256946 0 482.80650925 0 7836.47110737 0 2097.35298412 0 -3569.21926691 0 2784
0.05250000 0.05249300 36496.70779047 0 1110.21093724 0 7176.67127143 0 -2785.09936791 0 -8453.94144553 0 3055
0.05350000 0.05348950 35406.63741207 0 1235.22855677 0 7414.63767643 0 -65.37731695 0 -2627.40731784 0 3009
0.05450000 0.05448610 34351.00196386 0 1496.56863946 0 9839.29965452 0 -2228.21679115 0 -6037.48406014 0 3336
0.05550000 0.05550870 34378.23988292 0 1192.89905899 0 11200.76378654 0 -1606.98186255 0 -3697.59180086 0 3349
0.05650000 0.05647670 33697.40262982 0 816.86740689 0 13335.84018132 0 -1350.36966256 0 -7837.24617011 0 3324
0.05750000 0.05747970 32607.99659091 0 803.96814848 0 14085.65801804 0 -1291.04414618 0 -3572.07592672 0 3639
0.05850000 0.05849280 32794.67598736 0 524.90238098 0 14257.05760623 0 -779.93898916 0 -2670.76654183 0 3846
0.05950000 0.05951020 33711.57520559 0 -1258.20363077 0 14309.87259562 0 3022.05819135 0 -2975.99732011 0 3787
0.06050000 0.06049470 33553.24096068 0 -731.49646084 0 12786.98504006 0 1750.16916711 0 -3959.41906585 0 3930
0.06150000 0.06148310 35082.21829489 0 -227.04023487 0 11371.38831200 0 2589.56211161 0 -3559.73028455 0 4083
0.06250000 0.06249100 33567.74570619 0 1132.80955220 0 10172.33304041 0 1855.65520566 0 -130.99446046 0 4303
0.06350000 0.06350600 32971.39029146 0 904.53807480 0 12016.79412568 0 1441.47275117 0 -107.72043370 0 4470
0.06450000 0.06451750 31225.83828380 0 1819.88052417 0 10831.11422247 0 2466.18319616 0 1680.70140120 0 4479
0.06550000 0.06550280 31031.29753674 0 1551.12198384 0 11840.74416106 0 1575.91291911 0 1774.12967802 0 4636
0.06650000 0.06648880 29444.63339023 0 482.11670342 0 9240.17615858 0 972.22873258 0 3205.72591544 0 4653
0.06750000 0.06749660 28401.39894581 0 -234.36236327 0 8454.12967505 0 1503.05702181 0 4520.13266699 0 5220
0.06850000 0.06852730 29859.95629417 0 -716.35284219 0 8515.44820990 0 -244.55000934 0 1009.01874626 0 5029
0.06950000 0.06949320 29491.46932421 0 17.47223929 0 8730.12951581 0 1060.32789947 0 2110.19688091 0 5040
0.07050000 0.07048030 29286.74203831 0 552.46139745 0 7093.72848621 0 -1910.80645558 0 81.00833935 0 5475
0.07150000 0.07148790 29724.32031515 0 409.10357910 0 7006.50071129 0 -479.87787934 0 2133.29375048 0 5509
0.07250000 0.07249820 28930.54534890 0 321.91123561 0 9173.37682295 0 59.22143653 0 789.97162267 0 5916
0.07350000 0.07351270 29441.42241603 0 608.63905189 0 9180.39667688 0 921.64149495 0 1240.59863431 0 5721
0.07450000 0.07449140 28000.24861763 0 815.18552075 0 10201.42003771 0 -391.84293194 0 1107.93003833 0 6028
0.07550000 0.07549160 28037.78379877 0 1952.80378362 0 11582.53754629 0 -1353.07130981 0 2008.45328815 0 6183
0.07650000 0.07648840 26124.04317711 0 984.23777608 0 12034.39912214 0 -51.09800398 0 2241.76931673 0 6330
0.07750000 0.07749960 25935.81365520 0 52.74456940 0 12156.96975788 0 650.93643993 0 2803.73409058 0 6583
0.07850000 0.07848650 25431.24781321 0 -11.13089742 0 11934.52675227 0 1545.64118306 0 2004.07971985 0 6549
0.07950000 0.07947320 25180.57037932 0 564.67860066 0 11324.88454776 0 1826.70107626 0 1478.29930351 0 6828
0.08050000 0.08048110 24940.85454699 0 159.66513835 0 9836.14404194 0 1790.29527225 0 2032.39165441 0 7147
0.08150000 0.08149960 24391.22434300 0 -193.05041214 0 7618.18022357 0 2340.51230946 0 1730.61544148 0 7386
0.08250000 0.08250610 25060.87854803 0 -120.21333779 0 8002.00236341 0 633.83634148 0 1440.35444636 0 7227
0.08350000 0.08350160 23882.22957108 0 682.20911414 0 7079.66663369 0 387.56901456 0 1269.34238953 0 7798
0.08450000 0.08449610 24071.89849523 0 799.05535795 0 6904.93427573 0 110.67962323 0 1406.92709773 0 7371
0.08550000 0.08548940 23097.75535768 0 631.85107364 0 6428.87967015 0 -619.93946660 0 2178.19202762 0 8256
0.08650000 0.08650700 22855.16072091 0 950.88571926 0 7789.40265457 0 -948.34794241 0 1630.95344579 0 8037
0.08750000 0.08749060 21874.81708146 0 796.18098243 0 8332.24552345 0 -188.01139712 0 2106.55408605 0 8155
0.08850000 0.08849210 21569.66380946 0 65.34720023 0 8438.53984171 0 274.87821425 0 1189.54414457 0 8718
0.08950000 0.08949900 21751.47138298 0 -190.49491957 0 9396.86062709 0 4.53557856 0 974.71225504 0 8571
0.09050000 0.09049190 21546.30120409 0 415.35944262 0 8970.83078504 0 339.55166352 0 962.96562564 0 8932
0.09150000 0.09150830 21246.68409450 0 983.31655866 0 9389.16536134 0 -233.97593914 0 1052.93158649 0 9285
0.09250000 0.09250820 19994.29343426 0 1094.29114862 0 8620.39170453 0 306.09220515 0 2780.92510145 0 9204
0.09350000 0.09350330 19669.54214733 0 713.27141419 0 8999.70740817 0 1157.76657234 0 1997.38096333 0 9349
0.09450000 0.09448040 19041.96277661 0 213.30833763 0 8209.30950099 0 1154.19021142 0 1522.56645814 0 9564
0.09550000 0.09549270 18440.62481571 0 133.45030211 0 8038.89534971 0 932.22331578 0 287.69996639 0 10155
0.09650000 0.09649430 18412.05821768 0 661.29349256 0 7796.26749595 0 315.25676840 0 761.95531918 0 9913
0.09750000 0.09749140 17752.47982823 0 694.40417270 0 7164.40313553 0 -8.85126075 0 778.04008545 0 10476
0.09850000 0.09850240 17400.82279199 0 420.99525595 0 6964.58088953 0 375.84674427 0 1512.25812373 0 10575
0.09950000 0.09950330 16898.80358471 0 184.99197414 0 6892.97616492 0 822.35485107 0 1642.53509755 0 10882
0.10050000 0.10051200 16878.54123030 0 94.72728197 0 7016.67617780 0 770.97926391 0 1864.66807806 0 10875
0.10150000 0.10150300 16520.13007592 0 419.99763949 0 6873.07919723 0 448.09255648 0 720.37763226 0 11118
0.10250000 0.10250800 16208.22268578 0 503.78302862 0 6980.92364096 0 -75.14056081 0 1496.10360182 0 11575
0.10350000 0.10349800 15899.30482334 0 258.60189677 0 6871.73944592 0 -241.68006275 0 1403.66076191 0 11364
0.10450000 0.10450100 15979.02556203 0 -58.01023491 0 6580.20513345 0 -520.53545607 0 1523.31937622 0 12093
0.10550000 0.10551000 16156.51492887 0 -137.99327698 0 6793.04843344 0 97.28465683 0 990.69183422 0 12067
0.10650000 0.10649700 16367.33199342 0 -48.68778031 0 6948.39315064 0 -547.58514560 0 145.86348546 0 12054
0.10750000 0.10749900 16366.55693068 0 324.35268324 0 6600.42319857 0 701.37087947 0 -438.50945935 0 12807
0.10850000 0.10850100 15951.34474998 0 87.97094936 0 6709.70704453 0 -140.69270977 0 -187.52532206 0 12736
0.10950000 0.10950300 15828.66339099 0 263.15151503 0 6641.10291995 0 842.98812837 0 268.28575205 0 12933
0.11050000 0.11050200 15820.02697763 0 74.61883286 0 6137.88790159 0 53.41300565 0 26.29931808 0 13428
0.11150000 0.11150900 15492.50760950 0 -102.79867459 0 5829.96654839 0 1178.48289207 0 -185.73603437 0 13453
0.11250000 0.11250000 15664.35009068 0 199.97061515 0 5791.21341152 0 80.18012945 0 105.12596654 0 13668
0.11350000 0.11349100 15196.65509034 0 343.57534636 0 5516.56439439 0 523.89590665 0 -313.01905155 0 13791
0.11450000 0.11448600 15197.31942983 0 280.99567371 0 5672.60666806 0 170.76071505 0 74.67264436 0 14205
0.11550000 0.11549300 14790.96510899 0 182.75757899 0 5269.36367049 0 -193.65717554 0 -105.99547621 0 14776
0.11650000 0.11649800 15020.49440248 0 312.34142527 0 6117.24908813 0 -229.52818626 0 -379.53382844 0 14553
0.11750000 0.11747300 14410.07713523 0 400.45720065 0 6304.24958199 0 -218.84560727 0 794.79915629 0 14568
0.11850000 0.11849100 14458.35247144 0 117.05883245 0 6019.15936256 0 436.80210686 0 1055.21469987 0 16015
0.11950000 0.11950300 14606.94307050 0 -245.40700728 0 6204.15576563 0 1050.15686189 0 1203.30704432 0 15270
0.12050000 0.12050700 14465.10658958 0 191.65087029 0 5481.65335424 0 1134.40396697 0 583.70639086 0 15999
0.12150000 0.12150000 14174.12589334 0 353.48950600 0 5331.95552269 0 193.56195355 0 604.24887510 0 15670
0.12250000 0.12250700 13860.11476149 0 362.98623899 0 5316.60928049 0 -175.67350557 0 794.80026353 0 16887
0.12350000 0.12352200 13759.35660564 0 105.32327537 0 5086.36028589 0 -7.57796554 0 768.36951695 0 16407
0.12450000 0.12449800 13644.86876701 0 -125.54466219 0 4890.73445099 0 109.67425613 0 454.23991122 0 16306
0.12550000 0.12549900 13767.32867950 0 21.24214444 0 4784.25190321 0 179.63518339 0 387.96761825 0 17523
0.12650000 0.12650100 13599.47223525 0 213.28397852 0 4604.31555259 0 364.43782078 0 55.31500961 0 17154
0.12750000 0.12750600 13488.30609407 0 404.70897338 0 4200.62966202 0 293.52068755 0 370.63167928 0 18007
0.12850000 0.12850300 13278.15336902 0 126.74490220 0 4370.20231662 0 271.48786839 0 460.02077201 0 17496
0.12950000 0.12949900 12960.70981647 0 287.27146742 0 4690.90113267 0 35.52201104 0 608.85053329 0 18405
0.13050000 0.13049000 12898.37262774 0 423.88623996 0 4357.26984123 0 163.98113056 0 882.36574436 0 18100
0.13150000 0.13148800 12492.57192313 0 72.82124093 0 4567.68830209 0 306.53399091 0 775.66839347 0 19059
0.13250000 0.13249300 12382.84518418 0 183.92681649 0 4138.93466813 0 876.34793582 0 1387.22943188 0 18957
0.13350000 0.13349100 12433.44570860 0 -26.53615511 0 4072.04675390 0 515.87511456 0 906.55988132 0 19468
0.13450000 0.13450700 12052.22556510 0 155.61266747 0 3459.11606892 0 417.49861577 0 648.39091245 0 19953
0.13550000 0.13551000 12105.81561722 0 124.27688100 0 3456.04903494 0 -101.84722972 0 971.11596394 0 19956
0.13650000 0.13649900 11852.48082537 0 100.08385127 0 3309.93863664 0 136.51844332 0 378.51074562 0 19723
0.13750000 0.13749600 11912.49282589 0 -0.77045554 0 3471.82709781 0 -1.03976106 0 604.31641628 0 20946
0.13850000 0.13851100 11831.00051522 0 114.58416785 0 3260.06888565 0 -235.13742601 0 171.51695484 0 20955
0.13950000 0.13949800 11773.53514941 0 333.48402952 0 3492.04516293 0 18.18430050 0 444.80739771 0 20506
0.14050000 0.14048300 11559.39638742 0 227.92048469 0 3144.72847802 0 -114.22542453 0 381.07731052 0 21447
0.14150000 0.14148400 11468.49260066 0 195.13311644 0 3488.61274223 0 186.33504714 0 510.74530647 0 21771
0.14250000 0.14249400 11187.03410377 0 234.82075752 0 2959.52170078 0 186.91191526 0 115.74122579 0 22470
0.14350000 0.14350900 10957.78161840 0 339.41104499 0 3055.82878205 0 182.20839168 0 -262.99539525 0 22519
0.14450000 0.14449900 10691.68043603 0 353.42528651 0 2925.24178314 0 -135.43003379 0 231.17242649 0 22218
0.14550000 0.14550500 10534.66379778 0 74.47289962 0 3072.61442647 0 -104.37216267 0 164.54803359 0 23559
0.14650000 0.14650700 10541.51756684 0 -16.77711873 0 2952.21396640 0 421.55773005 0 135.11225806 0 23044
0.14750000 0.14750500 10542.72445025 0 -200.73682003 0 2984.93268623 0 404.17860902 0 -12.17689994 0 23649
0.14850000 0.14849900 10726.29252341 0 -14.03284303 0 2894.01782715 0 150.21269465 0 46.75864916 0 23640
0.14950000 0.14949500 10560.03049394 0 203.41078648 0 2981.27881904 0 135.17537032 0 447.63748393 0 24457
0.15050000 0.15050000 10497.72652218 0 302.67528571 0 3044.53501073 0 111.80279986 0 464.31794127 0 24591
0.15150000 0.15149900 10111.15844579 0 345.03467877 0 2969.56429939 0 -104.48056073 0 458.70870152 0 25020
0.15250000 0.15250500 9793.21663862 0 298.60399187 0 3005.48292110 0 316.13037483 0 689.18246431 0 25297
0.15350000 0.15350100 9642.35621297 0 177.97544190 0 2994.28880071 0 283.50798421 0 773.91675169 0 25452
0.15450000 0.15450400 9320.60552606 0 111.68543321 0 2904.60296968 0 92.95814591 0 591.64524775 0 26061
0.15550000 0.15549900 9494.57389361 0 115.76337044 0 2875.11736868 0 335.50694326 0 507.78013788 0 26128
0.15650000 0.15649500 9233.85386111 0 -15.80109330 0 2565.53516675 0 40.51706893 0 861.67821266 0 26331
0.15750000 0.15749700 9449.02234931 0 54.79737842 0 2932.73774704 0 -193.07809296 0 1228.08690726 0 27345
0.15850000 0.15849900 9444.64878101 0 68.87262845 0 2936.39161423 0 -63.73518046 0 1208.42245838 0 26980
0.15950000 0.15949700 9389.17643366 0 94.74344756 0 2889.57782490 0 177.90790072 0 1385.95611452 0 27777
0.16050000 0.16050000 9347.23446725 0 24.72394770 0 2917.95619341 0 261.05663118 0 1201.18115795 0 28224
0.16150000 0.16150500 9283.08141725 0 141.42126875 0 2976.09697103 0 -91.80429894 0 992.70921180 0 28075
0.16250000 0.16249700 9208.19928450 0 207.11226466 0 2949.84448888 0 -57.92951767 0 966.35929320 0 28590
0.16350000 0.16349900 8993.39618302 0 204.41947527 0 2988.91872317 0 -361.14048245 0 884.04763050 0 29163
0.16450000 0.16449100 8896.11473717 0 130.76083441 0 2974.28110976 0 -7.49051632 0 641.68994147 0 28996
0.16550000 0.16550500 8764.58659064 0 74.82201002 0 2917.74581924 0 -16.25838032 0 441.08820380 0 30777
0.16650000 0.16650700 8695.72780260 0 64.84363090 0 2801.70785514 0 332.82190449 0 79.02174283 0 29211
0.16750000 0.16749900 8670.99222895 0 106.27693471 0 2764.00658913 0 221.41217217 0 76.16663315 0 30922
0.16850000 0.16850800 8581.41712117 0 -1.39681807 0 2438.62417968 0 255.69541150 0 272.14335002 0 30867
0.16950000 0.16949900 8686.34954348 0 -62.77886377 0 2400.16999559 0 387.16044577 0 252.75903096 0 30852
0.17050000 0.17049200 8673.81567178 0 -2.49328825 0 2243.39694848 0 61.59456790 0 333.54603453 0 31257
0.17150000 0.17149500 8623.28158131 0 109.08930521 0 2229.62297641 0 224.43934577 0 326.30030517 0 32608
0.17250000 0.17250900 8407.24945177 0 201.36019192 0 1952.60448177 0 31.87744460 0 269.53471029 0 32361
0.17350000 0.17350400 8446.31261373 0 178.33197076 0 2172.14653827 0 -37.00525967 0 49.47037223 0 32508
0.17450000 0.17449800 8171.63037963 0 209.13960734 0 2217.81987815 0 -322.54900152 0 182.30472091 0 32791
0.17550000 0.17549800 8119.95583970 0 218.47357716 0 2531.18881517 0 -174.82868719 0 95.26927227 0 33633
0.17650000 0.17650100 7908.39692939 0 188.20073387 0 2532.48427717 0 -424.86281901 0 166.26424394 0 33984
0.17750000 0.17750300 7968.64144873 0 78.16408055 0 2825.30297932 0 -30.31746476 0 247.57829018 0 34069
0.17850000 0.17849800 7866.65426483 0 136.98458819 0 2906.90601324 0 13.25146907 0 177.53144168 0 34536
