### header ###
fiducial parameters:
Omega_m = 0.31
Omega_nu = 0
Omega_de = 0.69
Omega_k = 0
H_0 = 100
w_de = -1
zeff = 0
beta = 0
fgrowth = 0
b_1 = 2
gamma = 0.55
Lx = 3500 Ly = 3500 Lz = 3500
nx = 700 ny = 700 nz = 700
xoffset = -685.467585 yoffset = -31.7331281 zoffset = 572.489161
bins = 400 dk = 0.001
kx_ny = 0.628318531 ky_ny = 0.628318531 kz_ny = 0.628318531
############################
A(data) = 8.02326922 (not used)
A(ran) = 8.02125749 (used)
Ngal = 477257
weighted Ngal = 0
Nran = 23820508
weighted Nran = 0
SN(data) = 3491.00379
SN(ran) = 69.8680618
SN(data+ran) = 3560.87185
############################
13 columns: k_central k_mean P_0(k) sigma^{lin}_{P_0(k)} P^img_1(k) sigma^{lin}_{P_1(k)} P_2(k) sigma^{lin}_{P_2(k)} P^img_3(k) sigma^{lin}_{P_3(k)} P_4(k) sigma^{lin}_{P_4(k)} N_modes
### header ###
0.00050000 0 0 0 0 0 0 0 0 0 0 0 0
0.00150000 0.00179520 40631.77821724 0 -42950.98737376 0 10776.25085300 0 52522.45856323 0 -61729.87171268 0 3
0.00250000 0.00253879 72885.46041396 0 -42052.02532173 0 21026.01266086 0 -13648.07974121 0 33189.95798338 0 6
0.00350000 0.00331552 70854.35314923 0 -41.71753039 0 6435.96595804 0 -46515.27945613 0 -10873.29978003 0 7
0.00450000 0.00420575 70004.77366589 0 24557.41993852 0 -4871.51289511 0 -15579.31463608 0 11742.86480966 0 24
0.00550000 0.00557378 43568.93382188 0 11131.00814019 0 -4471.24835292 0 -6979.74997453 0 6807.74140847 0 45
0.00650000 0.00659388 44261.50773929 0 8948.61970146 0 2185.53297898 0 23795.20109801 0 17025.36025739 0 40
0.00750000 0.00754703 39949.61228517 0 -11870.41799157 0 -18493.99342134 0 22328.78239903 0 11377.92098364 0 57
0.00850000 0.00846663 57029.22693417 0 -31830.38721890 0 -44021.45973722 0 36539.44696427 0 2287.74160938 0 75
0.00950000 0.00948925 86555.02046531 0 -25545.07131235 0 -51417.44054633 0 -7079.48947649 0 -27592.23344807 0 112
0.01050000 0.01054430 99614.05252617 0 -9459.80679368 0 -50690.76386849 0 -26482.12216175 0 2405.80580892 0 105
0.01150000 0.01145670 96363.21795942 0 8149.43036837 0 -41895.35192555 0 -54048.00347675 0 -18126.50296061 0 144
0.01250000 0.01249090 92009.13694773 0 9059.14364780 0 -24092.71446589 0 -33809.78672673 0 1755.69425719 0 169
0.01350000 0.01339930 86479.61793330 0 -1843.74138415 0 -3712.72766889 0 -22635.26435001 0 -35756.63359959 0 180
0.01450000 0.01448870 84134.72098321 0 3405.01668985 0 4860.70630609 0 -9255.89885982 0 -34174.73055275 0 267
0.01550000 0.01550050 85471.59348181 0 6389.13002405 0 6273.06991530 0 -12713.90769626 0 -14395.12949672 0 238
0.01650000 0.01653350 81654.18805409 0 -1457.95944282 0 14146.11291155 0 -2055.06777564 0 -32763.00913837 0 315
0.01750000 0.01747870 75207.88054467 0 1576.57725860 0 1135.97623709 0 4744.86764383 0 -11635.13108918 0 297
0.01850000 0.01844180 78112.37279110 0 1012.90070334 0 10280.58716016 0 9440.24199573 0 -15146.94035191 0 388
0.01950000 0.01947590 76151.02117272 0 -841.06929448 0 -538.24342515 0 15138.52538505 0 1006.74116904 0 399
0.02050000 0.02045430 74392.40382178 0 5194.42617612 0 2425.32631758 0 7716.00421334 0 1297.43287760 0 462
0.02150000 0.02154770 65649.25325198 0 4920.26434129 0 -333.10646324 0 -1652.61091313 0 11186.03759453 0 571
0.02250000 0.02255340 65407.10150820 0 2167.24149838 0 13538.68517200 0 -8700.48890227 0 14344.19680256 0 510
0.02350000 0.02348930 63877.23838800 0 -1139.70761056 0 16839.12375394 0 -2238.51405324 0 10285.38147681 0 555
0.02450000 0.02439640 65320.95882111 0 -1250.46407572 0 20672.69477590 0 -2061.13540964 0 16489.57045942 0 592
0.02550000 0.02547300 66449.89305962 0 2145.88298380 0 21067.20170919 0 -3970.92321134 0 16914.41556271 0 837
0.02650000 0.02652900 65587.46967949 0 3472.07068896 0 25697.31577860 0 1352.42911497 0 17257.98980183 0 723
0.02750000 0.02749970 62069.79208461 0 5983.86079104 0 24157.93045907 0 7772.76095036 0 6009.73681414 0 826
0.02850000 0.02848090 61415.63913432 0 2425.73599359 0 15671.76854831 0 9659.65118433 0 18516.13807097 0 831
0.02950000 0.02946900 58220.60908465 0 -814.41045801 0 18210.43118273 0 5478.09913797 0 10385.74102897 0 996
0.03050000 0.03053250 60426.76980477 0 -4098.15529583 0 15636.33710889 0 4286.11908195 0 5693.59979592 0 1041
0.03150000 0.03150510 64154.48940146 0 -1431.41908023 0 17685.71370958 0 -1265.95425814 0 7665.06044685 0 1036
0.03250000 0.03246190 64566.60133121 0 384.85740221 0 12926.82850252 0 -2260.69191985 0 -3054.67726027 0 1059
0.03350000 0.03345080 60646.77689892 0 3100.78242081 0 17583.95904449 0 -6592.83865607 0 69.15353333 0 1302
0.03450000 0.03451200 58964.11569623 0 5067.81414182 0 18966.67096784 0 -6412.65871429 0 -4283.90461698 0 1339
0.03550000 0.03553350 55502.02117193 0 4391.21758913 0 23946.89194802 0 2651.88822801 0 -3544.79371836 0 1365
0.03650000 0.03647120 50853.52704332 0 2862.80494349 0 18013.12235446 0 3517.83260743 0 -4795.55674685 0 1308
0.03750000 0.03744890 50770.04171419 0 1295.30699123 0 18721.19752662 0 4564.02336257 0 77.88461507 0 1579
0.03850000 0.03847530 49423.53629299 0 677.89644363 0 20394.00436022 0 2442.83166311 0 -1568.60518473 0 1662
0.03950000 0.03950240 48665.19276616 0 1285.76264724 0 18769.36213958 0 1529.30950395 0 761.55560826 0 1683
0.04050000 0.04050350 48526.23508969 0 357.57408662 0 20218.61873509 0 2567.47282360 0 2163.01187030 0 1822
0.04150000 0.04152450 47424.09587724 0 251.36281080 0 19285.66464587 0 1454.85919187 0 -3027.95974048 0 1887
0.04250000 0.04250150 48157.74811972 0 1880.32434535 0 19935.38866623 0 36.52494222 0 1941.26642115 0 1920
0.04350000 0.04349210 46487.37719758 0 2800.39024848 0 19840.05594954 0 -2795.77308903 0 -3668.67088844 0 2005
0.04450000 0.04448520 44401.90481799 0 2810.82037846 0 19538.88871447 0 -1083.35944232 0 615.79288095 0 2151
0.04550000 0.04548030 40911.46514216 0 1609.12989357 0 17439.90809860 0 2489.02540226 0 -4948.96380722 0 2274
0.04650000 0.04648670 41026.17442728 0 1705.24874532 0 18586.55805682 0 4332.95501593 0 -2470.23566704 0 2311
0.04750000 0.04749250 39382.04491496 0 502.51635466 0 16205.12243483 0 5131.69038370 0 -4749.07512726 0 2568
0.04850000 0.04851840 39330.11571156 0 756.81554600 0 14566.63980816 0 3489.87498726 0 -1629.55833286 0 2493
0.04950000 0.04949480 36906.05163902 0 377.68032126 0 14065.17421713 0 2534.48836796 0 3442.29720752 0 2644
0.05050000 0.05050630 37914.62970675 0 176.89035407 0 13127.90192123 0 3727.28777603 0 1693.86639541 0 2829
0.05150000 0.05149060 36437.24940619 0 137.50609469 0 13064.01460702 0 1607.42475555 0 2978.03462787 0 2784
0.05250000 0.05249300 36504.45841784 0 1195.58963392 0 14544.71660502 0 -1137.52636257 0 2838.76692630 0 3055
0.05350000 0.05348950 35587.11630662 0 947.34921872 0 16350.94495269 0 -1322.62241656 0 5277.98901153 0 3009
0.05450000 0.05448610 36996.84470253 0 -1323.50820255 0 15647.29871046 0 -1347.02582046 0 2883.39946765 0 3336
0.05550000 0.05550870 38009.18736070 0 -768.67068419 0 21000.43559053 0 -2392.38615124 0 5496.94423482 0 3349
0.05650000 0.05647670 38974.69408488 0 547.30944472 0 20752.74768434 0 -542.29257434 0 939.64841680 0 3324
0.05750000 0.05747970 37389.24789410 0 1658.88892130 0 22197.35390343 0 259.30609663 0 7911.88471171 0 3639
0.05850000 0.05849280 36685.04803564 0 1371.25206717 0 20781.20355912 0 4382.62546507 0 7584.35427125 0 3846
0.05950000 0.05951020 35107.46319547 0 408.94745932 0 17423.29961137 0 6094.34044808 0 5756.76740901 0 3787
0.06050000 0.06049470 34462.83244453 0 733.74967894 0 16668.49922849 0 4742.89677002 0 7408.88006752 0 3930
0.06150000 0.06148310 33502.08682002 0 1087.32776354 0 13025.15074691 0 2481.21941326 0 5965.75753996 0 4083
0.06250000 0.06249100 32103.32002568 0 977.54012680 0 11020.43990455 0 93.46603345 0 6296.29965277 0 4303
0.06350000 0.06350600 32030.90702137 0 838.60791667 0 11342.82171397 0 -2150.07939491 0 3363.16330204 0 4470
0.06450000 0.06451750 30612.32076560 0 639.70799533 0 11654.28621111 0 593.10125847 0 5093.64587562 0 4479
0.06550000 0.06550280 31145.56392887 0 514.32166738 0 12152.20865821 0 1195.91073134 0 3713.81275672 0 4636
0.06650000 0.06648880 30062.57983835 0 -306.23393090 0 11486.54049011 0 2806.12571274 0 3960.93597435 0 4653
0.06750000 0.06749660 30940.39374998 0 262.03763916 0 10360.86151510 0 2480.20075938 0 1679.94848311 0 5220
0.06850000 0.06852730 29580.93370874 0 719.42098339 0 8433.23619812 0 1861.72283966 0 3510.89025977 0 5029
0.06950000 0.06949320 28997.09002106 0 94.41271722 0 6994.73083001 0 787.70401055 0 4864.88057254 0 5040
0.07050000 0.07048030 29206.02479038 0 -812.90572907 0 6818.97981816 0 1157.84407861 0 4082.64296876 0 5475
0.07150000 0.07148790 29783.00363668 0 -337.64722365 0 5906.90813355 0 913.48229879 0 2543.04727505 0 5509
0.07250000 0.07249820 30258.33854115 0 207.83639471 0 6228.35986769 0 969.46950924 0 -63.48516737 0 5916
0.07350000 0.07351270 29543.84142060 0 499.33195404 0 6066.43818954 0 -1108.10719553 0 2634.87006477 0 5721
0.07450000 0.07449140 29368.45579547 0 1021.17505168 0 7041.94322303 0 -1739.76118178 0 2396.82615349 0 6028
0.07550000 0.07549160 28539.02794331 0 1577.96129920 0 8171.44215011 0 370.83430283 0 3687.20596018 0 6183
0.07650000 0.07648840 27862.95178988 0 764.66471707 0 8584.41772120 0 406.29010136 0 2980.28230981 0 6330
0.07750000 0.07749960 27011.71145783 0 699.75764175 0 9147.79975262 0 -669.98526754 0 2568.54683910 0 6583
0.07850000 0.07848650 26972.07253497 0 689.84680380 0 10347.43078509 0 -549.81511182 0 2365.07072591 0 6549
0.07950000 0.07947320 25688.12574900 0 803.00928515 0 10312.40902169 0 -929.74422225 0 1726.60725989 0 6828
0.08050000 0.08048110 25392.71612284 0 885.82473863 0 11195.44907063 0 280.62475083 0 1881.12155274 0 7147
0.08150000 0.08149960 24320.80435715 0 709.65630014 0 10010.57744714 0 395.94744275 0 730.27850511 0 7386
0.08250000 0.08250610 24296.33451930 0 420.96646791 0 9962.24674930 0 1463.92742590 0 1295.20734031 0 7227
0.08350000 0.08350160 23754.78711242 0 44.83173247 0 9056.46414519 0 453.62650443 0 47.73733195 0 7798
0.08450000 0.08449610 23284.65620062 0 829.73455556 0 9784.24805552 0 920.77563915 0 147.29845876 0 7371
0.08550000 0.08548940 22603.37605453 0 1122.98840008 0 9166.12445019 0 -909.07551352 0 -140.37382682 0 8256
0.08650000 0.08650700 21370.25123948 0 582.14187136 0 8161.38847917 0 951.20349499 0 -50.97554406 0 8037
0.08750000 0.08749060 21229.07909804 0 740.02215095 0 8705.57109936 0 80.78977166 0 -79.60846532 0 8155
0.08850000 0.08849210 21372.35498119 0 -18.39201731 0 7959.21890031 0 1144.53514418 0 -762.33399269 0 8718
0.08950000 0.08949900 20359.01581379 0 126.14146050 0 8010.61663212 0 605.10144411 0 626.93717588 0 8571
0.09050000 0.09049190 20605.48576425 0 476.57279038 0 7694.88928992 0 1084.80438071 0 89.82611739 0 8932
0.09150000 0.09150830 19734.31524752 0 549.53608924 0 6900.42783953 0 1866.39536073 0 1511.85952004 0 9285
0.09250000 0.09250820 19580.74210229 0 92.38880697 0 6368.79016336 0 1150.30382541 0 1159.42742106 0 9204
0.09350000 0.09350330 19182.35985531 0 -282.04311564 0 5520.05217671 0 928.41443604 0 923.14954559 0 9349
0.09450000 0.09448040 19543.87126064 0 226.84204026 0 6042.41124468 0 67.98230281 0 1060.52720131 0 9564
0.09550000 0.09549270 19000.66300504 0 644.29858120 0 5771.65968589 0 -621.58481406 0 1092.82517281 0 10155
0.09650000 0.09649430 18839.78212542 0 1026.72671534 0 5940.73408587 0 -1158.53056275 0 2060.65929967 0 9913
0.09750000 0.09749140 17968.83305519 0 191.43717442 0 6307.71521966 0 176.35777525 0 857.03558687 0 10476
0.09850000 0.09850240 17646.07478672 0 107.14157255 0 5663.16197499 0 640.97577652 0 1201.60190629 0 10575
0.09950000 0.09950330 17904.83501774 0 -20.05397327 0 5858.32277225 0 1394.04998397 0 418.23271091 0 10882
0.10050000 0.10051200 17548.52760507 0 50.56653238 0 4543.50634468 0 1502.86879228 0 877.09310328 0 10875
0.10150000 0.10150300 17555.61389296 0 257.60760200 0 4101.82023534 0 1245.59225280 0 779.99435078 0 11118
0.10250000 0.10250800 16932.46345216 0 460.09827828 0 3403.14546696 0 -30.35610717 0 962.49615907 0 11575
0.10350000 0.10349800 16489.34901292 0 800.71288498 0 3540.56409028 0 32.88081867 0 378.21622178 0 11364
0.10450000 0.10450100 15979.46845502 0 697.12242844 0 3699.09763704 0 -1146.40636707 0 331.01157938 0 12093
0.10550000 0.10551000 15448.55047997 0 215.72764060 0 4358.56530324 0 -547.85198863 0 431.90038867 0 12067
0.10650000 0.10649700 15543.21885717 0 -246.64489320 0 4993.43026369 0 -744.49869188 0 -383.03379031 0 12054
0.10750000 0.10749900 15583.63284276 0 -163.66114038 0 4801.35864506 0 668.62558606 0 -333.40209431 0 12807
0.10850000 0.10850100 16129.49845631 0 -23.31687667 0 4989.73210720 0 -63.41817980 0 -973.92833444 0 12736
0.10950000 0.10950300 15600.13060674 0 323.86771541 0 4831.02140325 0 -301.84596858 0 -500.47793966 0 12933
0.11050000 0.11050200 15793.34267482 0 433.98420020 0 5084.53335230 0 -6.48542603 0 117.22602455 0 13428
0.11150000 0.11150900 15117.37724464 0 431.67340601 0 5245.66889538 0 -162.93036694 0 283.81136591 0 13453
0.11250000 0.11250000 15174.73188720 0 271.43361400 0 5763.93120317 0 212.57424250 0 622.55917865 0 13668
0.11350000 0.11349100 14927.92976700 0 122.91166335 0 5866.26162914 0 302.02201854 0 974.12320736 0 13791
0.11450000 0.11448600 14725.63839256 0 316.17134243 0 5987.21570546 0 628.48619412 0 1161.55330742 0 14205
0.11550000 0.11549300 14481.71507680 0 333.03006420 0 5544.33378504 0 534.33821619 0 1307.15437879 0 14776
0.11650000 0.11649800 14120.97873421 0 287.23714321 0 5496.04737651 0 441.10259782 0 1330.30660999 0 14553
0.11750000 0.11747300 13938.28537470 0 117.60801976 0 4601.00492747 0 755.59094688 0 1433.16850755 0 14568
0.11850000 0.11849100 13727.13614041 0 33.04945018 0 4437.00165225 0 682.67083009 0 1077.07921969 0 16015
0.11950000 0.11950300 13677.97501822 0 47.32953822 0 3796.63374636 0 511.25131171 0 1329.81942769 0 15270
0.12050000 0.12050700 13669.22788161 0 -48.44961460 0 3438.25580896 0 670.12810053 0 570.52810986 0 15999
0.12150000 0.12150000 13454.86767312 0 109.94729966 0 3314.68866398 0 253.08787901 0 696.51787951 0 15670
0.12250000 0.12250700 13414.12151779 0 312.77213871 0 3306.04117830 0 -309.74275064 0 483.95360210 0 16887
0.12350000 0.12352200 13392.53048439 0 210.65651584 0 3868.47098979 0 -542.33686364 0 878.94218152 0 16407
0.12450000 0.12449800 13221.35234270 0 151.11730359 0 4120.72069381 0 -215.17402436 0 1482.54000392 0 16306
0.12550000 0.12549900 13307.82719953 0 -53.47390343 0 4253.03497539 0 27.23980135 0 1735.36546883 0 17523
0.12650000 0.12650100 13525.61982871 0 -38.95166365 0 3965.59742310 0 102.81417585 0 749.12692365 0 17154
0.12750000 0.12750600 13509.78640422 0 192.63852166 0 4798.97809522 0 19.71781748 0 581.14868383 0 18007
0.12850000 0.12850300 13244.93639456 0 292.84638297 0 4392.23624301 0 -169.49957725 0 589.07203947 0 17496
0.12950000 0.12949900 12867.03794850 0 329.34740896 0 4493.24906233 0 333.54382007 0 700.22157216 0 18405
0.13050000 0.13049000 12877.22448733 0 131.81049080 0 4433.41421901 0 240.95371824 0 923.20933615 0 18100
0.13150000 0.13148800 12700.17801348 0 130.33787160 0 4244.68644248 0 628.50612431 0 760.77168766 0 19059
0.13250000 0.13249300 12451.93649105 0 172.96078599 0 3907.98811707 0 533.75691914 0 1487.44504381 0 18957
0.13350000 0.13349100 12413.51552393 0 69.68589071 0 3719.83610142 0 259.20866017 0 1130.03039867 0 19468
0.13450000 0.13450700 12178.67151453 0 89.60721752 0 3633.85949921 0 534.53198187 0 1418.68590669 0 19953
0.13550000 0.13551000 12130.61762481 0 375.86888892 0 3440.00523628 0 122.51416689 0 1413.90266237 0 19956
0.13650000 0.13649900 11728.13861765 0 244.23887701 0 3605.82437277 0 -423.00266844 0 784.34688167 0 19723
0.13750000 0.13749600 11669.67674261 0 304.54318690 0 3626.02029323 0 -529.06114618 0 686.04124576 0 20946
0.13850000 0.13851100 11228.55532184 0 212.20221238 0 3467.44245718 0 -120.63187167 0 329.08278040 0 20955
0.13950000 0.13949800 11324.55237802 0 73.69861195 0 3541.47202092 0 -110.61828255 0 197.41290812 0 20506
0.14050000 0.14048300 11349.02221586 0 -68.92522200 0 3546.18883129 0 312.42668218 0 107.84200782 0 21447
0.14150000 0.14148400 11159.13184522 0 97.98708512 0 3641.03436569 0 422.63063833 0 -108.24659057 0 21771
0.14250000 0.14249400 11225.12290114 0 230.04304936 0 3250.94529000 0 263.13822825 0 105.37487241 0 22470
0.14350000 0.14350900 10777.72347220 0 203.58462198 0 3130.81056572 0 438.95678127 0 705.68465722 0 22519
0.14450000 0.14449900 10793.16936532 0 247.48196095 0 3231.81231272 0 2.79309359 0 736.26641837 0 22218
0.14550000 0.14550500 10616.75401398 0 203.26463179 0 3276.27876919 0 82.45449569 0 751.10886979 0 23559
0.14650000 0.14650700 10560.84984597 0 128.84089329 0 3305.93045505 0 -168.53074883 0 769.10914825 0 23044
0.14750000 0.14750500 10349.86669655 0 117.77410463 0 3419.99754533 0 -135.23516087 0 708.43834441 0 23649
0.14850000 0.14849900 10397.47769327 0 133.96295075 0 3654.40973407 0 -39.61766399 0 793.94105112 0 23640
0.14950000 0.14949500 10234.63701217 0 243.81480697 0 3750.89397254 0 29.28153805 0 649.00653371 0 24457
0.15050000 0.15050000 10083.20082562 0 119.25890339 0 3655.26230308 0 310.34951404 0 914.80544161 0 24591
0.15150000 0.15149900 10004.00048619 0 73.49244526 0 3466.37951400 0 506.44481551 0 859.98636143 0 25020
0.15250000 0.15250500 9852.37607013 0 71.98594475 0 3438.78728055 0 513.01956198 0 801.14249118 0 25297
0.15350000 0.15350100 9840.30723608 0 83.66303995 0 2985.07662646 0 224.20461249 0 449.45888136 0 25452
0.15450000 0.15450400 9703.07684227 0 214.78538576 0 2745.26114321 0 72.08958171 0 893.69605434 0 26061
0.15550000 0.15549900 9405.23130465 0 161.45774774 0 2817.95095564 0 -153.67390339 0 531.06080804 0 26128
0.15650000 0.15649500 9414.68707005 0 106.83066167 0 2621.22896059 0 40.33935812 0 287.96902388 0 26331
0.15750000 0.15749700 9180.34131526 0 197.49484333 0 2616.00282328 0 144.97437778 0 193.26632248 0 27345
0.15850000 0.15849900 9189.04416257 0 148.95820025 0 2509.29882900 0 211.01858086 0 239.97824642 0 26980
0.15950000 0.15949700 9084.84251370 0 -61.42438627 0 2396.35004353 0 345.07121744 0 445.29015107 0 27777
0.16050000 0.16050000 9095.57159645 0 30.11329109 0 2451.05840045 0 170.16059505 0 30.29055901 0 28224
0.16150000 0.16150500 8952.83825721 0 321.22032255 0 2659.50598749 0 -228.93138795 0 286.72228011 0 28075
0.16250000 0.16249700 8727.38357925 0 352.83070267 0 2733.88986562 0 -372.03011391 0 343.43029890 0 28590
0.16350000 0.16349900 8696.95683065 0 35.15274900 0 2863.97860992 0 -281.76741475 0 352.25604901 0 29163
0.16450000 0.16449100 8550.33710540 0 42.41287239 0 2764.17267400 0 38.28444536 0 601.94915323 0 28996
0.16550000 0.16550500 8717.46277622 0 -54.92603883 0 2798.51902559 0 98.29854961 0 -70.45851754 0 30777
0.16650000 0.16650700 8658.86803328 0 45.36619359 0 2752.85675804 0 346.23602601 0 427.87227690 0 29211
0.16750000 0.16749900 8600.36186893 0 138.28005020 0 2446.09799894 0 257.62310325 0 -46.21732320 0 30922
0.16850000 0.16850800 8451.88199312 0 195.15526109 0 2625.02676800 0 399.63563414 0 482.14106253 0 30867
0.16950000 0.16949900 8314.56302072 0 67.35893093 0 2433.69699514 0 287.13859952 0 447.05840134 0 30852
0.17050000 0.17049200 8250.34353677 0 41.53328690 0 2345.19590286 0 323.13694197 0 672.56844092 0 31257
0.17150000 0.17149500 8185.05003731 0 91.44500200 0 2240.61779495 0 134.78230278 0 648.36212441 0 32608
0.17250000 0.17250900 8148.75495656 0 87.99065810 0 2228.87005832 0 52.21841252 0 809.34044048 0 32361
0.17350000 0.17350400 8037.65524933 0 73.95482554 0 2087.04464972 0 -66.94991925 0 743.97718538 0 32508
0.17450000 0.17449800 8036.21584710 0 94.42700052 0 2096.55577674 0 -10.95234511 0 825.08750084 0 32791
0.17550000 0.17549800 7933.25429861 0 68.83498255 0 2342.93714860 0 -73.73636858 0 449.13335501 0 33633
0.17650000 0.17650100 7894.16899200 0 173.76795847 0 2215.12930322 0 -59.10484494 0 199.07043515 0 33984
0.17750000 0.17750300 7795.89103691 0 121.44236584 0 2239.93131081 0 -102.68817279 0 476.93374817 0 34069
0.17850000 0.17849800 7685.11242710 0 90.67591832 0 2248.43485627 0 -18.41150460 0 200.81875524 0 34536
