### header ###
fiducial parameters:
Omega_m = 0.31
Omega_nu = 0
Omega_de = 0.69
Omega_k = 0
H_0 = 100
w_de = -1
zeff = 0
beta = 0
fgrowth = 0
b_1 = 2
gamma = 0.55
Lx = 3500 Ly = 3500 Lz = 3500
nx = 700 ny = 700 nz = 700
xoffset = -685.467585 yoffset = -31.7331281 zoffset = 572.489161
bins = 400 dk = 0.001
kx_ny = 0.628318531 ky_ny = 0.628318531 kz_ny = 0.628318531
############################
A(data) = 8.00385546 (not used)
A(ran) = 7.99893642 (used)
Ngal = 474869
weighted Ngal = 0
Nran = 23820508
weighted Nran = 0
SN(data) = 3491.48202
SN(ran) = 69.6736372
SN(data+ran) = 3561.15565
############################
13 columns: k_central k_mean P_0(k) sigma^{lin}_{P_0(k)} P^img_1(k) sigma^{lin}_{P_1(k)} P_2(k) sigma^{lin}_{P_2(k)} P^img_3(k) sigma^{lin}_{P_3(k)} P_4(k) sigma^{lin}_{P_4(k)} N_modes
### header ###
0.00050000 0 0 0 0 0 0 0 0 0 0 0 0
0.00150000 0.00179520 10625.27970409 0 -15894.21155392 0 -893.24983965 0 36769.52987400 0 -26620.08332899 0 3
0.00250000 0.00253879 27369.79044246 0 -27138.15740725 0 4483.49434416 0 -20454.79142347 0 -9846.95063097 0 6
0.00350000 0.00331552 36824.44860510 0 -20278.63073561 0 -10394.47709325 0 33390.14561610 0 -3757.73666928 0 7
0.00450000 0.00420575 53031.67478164 0 -19733.54018478 0 -6399.27227359 0 11275.28053257 0 -11256.12541064 0 24
0.00550000 0.00557378 71572.50413696 0 1075.46044580 0 5473.28267668 0 -23440.44381082 0 -30881.93187493 0 45
0.00650000 0.00659388 78166.40573621 0 -385.61696369 0 7822.80785855 0 -11305.39725608 0 31102.71403182 0 40
0.00750000 0.00754703 61550.61077386 0 15281.24765196 0 25796.74525547 0 -45359.66091480 0 -719.92698864 0 57
0.00850000 0.00846663 75801.80004794 0 11996.31032476 0 30701.34225714 0 -7142.28063054 0 21985.31888315 0 75
0.00950000 0.00948925 78328.06167856 0 -20720.41649587 0 45910.73052103 0 6225.42570161 0 -493.84561710 0 112
0.01050000 0.01054430 89917.35334299 0 -2936.00408286 0 47949.03479689 0 25717.57813302 0 -3359.75302600 0 105
0.01150000 0.01145670 103686.23214797 0 888.58174751 0 63849.88974570 0 19663.12019894 0 -16931.35621968 0 144
0.01250000 0.01249090 83991.33437681 0 14469.09262651 0 39644.23756667 0 24845.07893731 0 -2265.63017672 0 169
0.01350000 0.01339930 79753.06988272 0 16235.79277457 0 35570.06492640 0 19270.82773061 0 -837.09211540 0 180
0.01450000 0.01448870 65084.34323973 0 10175.67688251 0 24048.75733636 0 19245.91499977 0 4844.28604838 0 267
0.01550000 0.01550050 55877.26226004 0 5270.42661368 0 24433.07773081 0 17526.27223219 0 2332.94991161 0 238
0.01650000 0.01653350 51289.00157844 0 2419.96731236 0 13944.15370686 0 10966.04157271 0 -5893.49954820 0 315
0.01750000 0.01747870 50825.51406153 0 -4203.16522441 0 18075.12737345 0 -4935.43342629 0 1185.42523973 0 297
0.01850000 0.01844180 55552.28952661 0 -7897.06994110 0 10086.77718654 0 3682.55558376 0 -1315.68006890 0 388
0.01950000 0.01947590 64620.30210658 0 -11775.97106087 0 12413.84769367 0 -2334.21215664 0 -7488.29078112 0 399
0.02050000 0.02045430 75424.34449487 0 -7128.44022452 0 11762.35210134 0 -1755.63889557 0 3285.40236484 0 462
0.02150000 0.02154770 78958.40913049 0 3059.23905809 0 17798.54069948 0 -5965.39215324 0 -4748.43293243 0 571
0.02250000 0.02255340 80510.97051656 0 825.08750084 0 19977.57422379 0 -7810.67259054 0 3993.53289861 0 510
0.02350000 0.02348930 74147.81616653 0 10143.12424754 0 21799.19310295 0 3980.45648300 0 -743.17997799 0 555
0.02450000 0.02439640 69329.36185195 0 6384.37999671 0 15874.94570873 0 6489.56708248 0 3453.71277441 0 592
0.02550000 0.02547300 64757.26676459 0 782.33504025 0 13713.51718089 0 10317.82338853 0 2157.25426139 0 837
0.02650000 0.02652900 66404.27508136 0 -4426.98119829 0 11613.76150228 0 4438.86180282 0 -5124.09476887 0 723
0.02750000 0.02749970 69414.39730656 0 -260.79753878 0 4078.25832813 0 -67.13205899 0 -10961.83408928 0 826
0.02850000 0.02848090 64417.67856240 0 6452.58551759 0 10089.00272383 0 -6744.86167583 0 -11580.98742081 0 831
0.02950000 0.02946900 63349.53138715 0 3490.19608468 0 4701.05445453 0 -5355.24062179 0 1153.59230588 0 996
0.03050000 0.03053250 59974.35461268 0 351.32043757 0 10672.50316945 0 3176.02994028 0 130.72872467 0 1041
0.03150000 0.03150510 60647.77340815 0 274.76638377 0 6192.76234339 0 3976.39293980 0 -3464.18719369 0 1036
0.03250000 0.03246190 59830.63583653 0 741.21353310 0 12809.46185944 0 5971.52622119 0 -10242.55372441 0 1059
0.03350000 0.03345080 57294.63056007 0 2843.74947247 0 9180.40774921 0 -2689.95488074 0 -3437.64683109 0 1302
0.03450000 0.03451200 54188.73272519 0 3338.39451142 0 9576.77483307 0 -1932.91788824 0 -5195.59984255 0 1339
0.03550000 0.03553350 52017.22838176 0 1741.86492349 0 14300.79328927 0 -4267.89403530 0 -1858.99904775 0 1365
0.03650000 0.03647120 51519.41665791 0 2072.69491675 0 12581.70413792 0 -2614.04302178 0 -7252.61634736 0 1308
0.03750000 0.03744890 49836.31256223 0 1623.57927746 0 17417.09910948 0 -164.81044769 0 -8959.42629048 0 1579
0.03850000 0.03847530 48086.55307114 0 2143.84567604 0 14816.65290257 0 -1238.64990514 0 -8822.87130849 0 1662
0.03950000 0.03950240 48335.01604007 0 431.90481760 0 15360.74694416 0 1624.64222064 0 -5432.51437670 0 1683
0.04050000 0.04050350 49630.36732060 0 -2393.00620143 0 13873.95516751 0 3941.18294687 0 -4522.66822937 0 1822
0.04150000 0.04152450 49687.61123992 0 -654.58034202 0 17325.19881348 0 3663.76584854 0 -6146.45788100 0 1887
0.04250000 0.04250150 49234.08881534 0 2344.02223643 0 14759.29826001 0 248.52497395 0 -2526.71559594 0 1920
0.04350000 0.04349210 48135.27130034 0 2595.93977071 0 14141.24108863 0 4112.85934319 0 4420.11635690 0 2005
0.04450000 0.04448520 45509.80163934 0 690.05828521 0 14515.48566750 0 1054.22372680 0 5091.15460254 0 2151
0.04550000 0.04548030 46368.57115228 0 973.76224957 0 11781.95011627 0 4112.16178672 0 854.70043356 0 2274
0.04650000 0.04648670 43137.00243071 0 -137.28243373 0 13394.41277961 0 -976.97433100 0 2662.50658752 0 2311
0.04750000 0.04749250 43163.35456378 0 2472.72694012 0 11070.92970572 0 -651.26085904 0 1068.13499570 0 2568
0.04850000 0.04851840 41718.96979118 0 2924.46672040 0 11610.99342107 0 -1653.29739727 0 2162.77935148 0 2493
0.04950000 0.04949480 39749.97826868 0 2055.46637933 0 15779.94516179 0 -2739.79141475 0 -64.85957505 0 2644
0.05050000 0.05050630 37308.53064617 0 2201.89787506 0 15383.99882628 0 -930.36205798 0 1728.36775954 0 2829
0.05150000 0.05149060 36569.23151803 0 491.24583523 0 17872.06093627 0 772.19389794 0 -1341.87718942 0 2784
0.05250000 0.05249300 36689.80913531 0 287.09763192 0 18383.93451264 0 1720.04137128 0 -141.64825140 0 3055
0.05350000 0.05348950 37694.73333585 0 -382.81345105 0 20837.56169245 0 2231.48312698 0 3244.54548626 0 3009
0.05450000 0.05448610 37948.40029744 0 -805.38540605 0 19263.51999623 0 3407.81798803 0 1738.43250280 0 3336
0.05550000 0.05550870 38077.83577457 0 -46.74979130 0 18037.03857607 0 960.87959964 0 2041.14986334 0 3349
0.05650000 0.05647670 38403.14067774 0 1189.35591504 0 15893.87938417 0 -163.59802813 0 -501.18989015 0 3324
0.05750000 0.05747970 36124.34550682 0 2185.55512363 0 17822.89981408 0 734.80376426 0 3186.63722746 0 3639
0.05850000 0.05849280 35502.41302176 0 1528.65623679 0 14322.05215292 0 2505.94391458 0 3723.40139001 0 3846
0.05950000 0.05951020 33169.03128947 0 91.74085452 0 13932.41704255 0 2890.66291273 0 -83.86688145 0 3787
0.06050000 0.06049470 33741.35975935 0 384.28274855 0 12187.30792788 0 3381.88660331 0 652.49542326 0 3930
0.06150000 0.06148310 32333.73510516 0 1055.40403662 0 11517.32155311 0 2511.86760836 0 1062.79370620 0 4083
0.06250000 0.06249100 31830.71938864 0 672.34588720 0 9888.23933022 0 -528.79319592 0 2922.24118311 0 4303
0.06350000 0.06350600 31819.97923357 0 229.67876988 0 10476.57838178 0 -1244.25250150 0 1300.73243040 0 4470
0.06450000 0.06451750 31404.76705287 0 -58.03547981 0 10649.86026519 0 -150.90139326 0 2480.71008632 0 4479
0.06550000 0.06550280 31497.11024186 0 -153.63847195 0 11504.25620982 0 482.46326718 0 144.20374397 0 4636
0.06650000 0.06648880 32462.17407305 0 -517.20490077 0 11338.39278404 0 1175.26084555 0 119.23897320 0 4653
0.06750000 0.06749660 33056.31502282 0 -1447.45180657 0 10475.86975299 0 1879.40534239 0 605.20552396 0 5220
0.06850000 0.06852730 32606.33574219 0 1097.27181846 0 10230.23022689 0 1533.10731136 0 -822.70252207 0 5029
0.06950000 0.06949320 32205.84975350 0 1830.98606596 0 8920.45170712 0 1114.20804650 0 578.28648786 0 5040
0.07050000 0.07048030 30300.30265221 0 1254.48332963 0 8824.85325463 0 3279.32365851 0 1422.94875174 0 5475
0.07150000 0.07148790 28314.70264248 0 740.18934306 0 7954.59066854 0 1309.21383121 0 2513.08556409 0 5509
0.07250000 0.07249820 28193.12851597 0 1004.29750696 0 6518.49906723 0 948.95138412 0 1848.30318198 0 5916
0.07350000 0.07351270 26948.93137610 0 1503.05702181 0 7514.90864999 0 -594.10441110 0 2097.95088966 0 5721
0.07450000 0.07449140 26024.50297699 0 1492.41651766 0 6858.43051149 0 -932.33625349 0 4849.82221079 0 6028
0.07550000 0.07549160 25340.01185671 0 -75.85793673 0 8306.43593430 0 -783.24407811 0 3249.79376822 0 6183
0.07650000 0.07648840 25859.08244420 0 -585.81456150 0 7632.58531816 0 1310.11068952 0 2324.96676542 0 6330
0.07750000 0.07749960 26292.89613060 0 -421.86000452 0 9062.21068177 0 801.94966366 0 2535.10841815 0 6583
0.07850000 0.07848650 26475.36804361 0 -33.31031415 0 6968.86587923 0 -138.46052909 0 1570.96358992 0 6549
0.07950000 0.07947320 26730.47440743 0 632.13231069 0 7917.79733316 0 179.82230568 0 1551.18841779 0 6828
0.08050000 0.08048110 25776.70434755 0 960.55850222 0 7520.86556074 0 -470.02351025 0 2584.82315659 0 7147
0.08150000 0.08149960 25522.48376972 0 450.25608875 0 8030.93434816 0 459.55462713 0 1972.95541478 0 7386
0.08250000 0.08250610 24606.69178397 0 254.84948589 0 7885.74295281 0 262.59679156 0 2320.80357129 0 7227
0.08350000 0.08350160 24745.42801394 0 837.64905334 0 8825.27400298 0 364.31381074 0 2067.40234549 0 7798
0.08450000 0.08449610 23999.59621416 0 680.72874432 0 9124.29320703 0 -78.25852748 0 2956.94184909 0 7371
0.08550000 0.08548940 23709.61202716 0 540.42578038 0 9253.73975648 0 619.83317228 0 3235.38867363 0 8256
0.08650000 0.08650700 22938.31388029 0 527.36486602 0 9083.03772475 0 -254.14639326 0 2066.74907832 0 8037
0.08750000 0.08749060 22343.28714454 0 960.48985381 0 9134.85620491 0 229.47393187 0 2740.69934539 0 8155
0.08850000 0.08849210 22110.76832335 0 777.58169120 0 8936.06368511 0 -385.14528265 0 2115.31229498 0 8718
0.08950000 0.08949900 20872.10734589 0 497.44301543 0 7956.22937261 0 673.78750389 0 1264.38198802 0 8571
0.09050000 0.09049190 20993.34930265 0 75.69617007 0 7873.76269736 0 682.17700440 0 -169.43203607 0 8932
0.09150000 0.09150830 20562.30369746 0 130.24486407 0 7161.65719897 0 867.31070430 0 -319.83960364 0 9285
0.09250000 0.09250820 20257.48259520 0 704.45341470 0 7260.89844632 0 418.26482065 0 -91.68881459 0 9204
0.09350000 0.09350330 19327.51803368 0 410.14216316 0 6666.01565079 0 -37.46963297 0 -665.21420278 0 9349
0.09450000 0.09448040 19404.13852143 0 -38.33914264 0 6568.86707283 0 427.53014206 0 689.63753686 0 9564
0.09550000 0.09549270 19318.10655759 0 -94.16104328 0 6448.17873231 0 605.07929946 0 -699.90490367 0 10155
0.09650000 0.09649430 19157.44712447 0 193.23310550 0 5986.71745084 0 747.73070349 0 -454.57429543 0 9913
0.09750000 0.09749140 18887.94673838 0 423.33594542 0 6054.17005364 0 -177.27567097 0 -365.27821023 0 10476
0.09850000 0.09850240 18401.76095560 0 820.82576301 0 6179.68592778 0 247.59268420 0 65.28796329 0 10575
0.09950000 0.09950330 17869.73574806 0 656.15039768 0 6028.27188589 0 337.59850542 0 1345.25424849 0 10882
0.10050000 0.10051200 17320.54843706 0 401.29648287 0 5786.13121443 0 762.34617225 0 1694.67467512 0 10875
0.10150000 0.10150300 17315.56589089 0 -135.14215334 0 5832.04814545 0 971.80244808 0 1815.27443704 0 11118
0.10250000 0.10250800 17477.33255649 0 -108.70465265 0 5409.83825547 0 202.49621245 0 1252.99963810 0 11575
0.10350000 0.10349800 17561.48222511 0 178.79036501 0 5643.19857335 0 69.27267155 0 1006.58394203 0 11364
0.10450000 0.10450100 17135.30844284 0 239.85312915 0 5405.25431299 0 -538.93101653 0 -59.66676543 0 12093
0.10550000 0.10551000 16957.92979925 0 818.70319835 0 5642.65602943 0 -1015.51709369 0 286.13987582 0 12067
0.10650000 0.10649700 16042.80215298 0 398.80299532 0 6000.50249524 0 -499.44932069 0 -541.60830467 0 12054
0.10750000 0.10749900 15943.04050637 0 498.86691640 0 5819.80215420 0 355.12821007 0 -426.88130383 0 12807
0.10850000 0.10850100 15617.62487995 0 437.02023166 0 5853.51738328 0 251.19561870 0 -1442.15923530 0 12736
0.10950000 0.10950300 15390.97439091 0 165.51796925 0 6195.45291832 0 93.50257212 0 -719.63689373 0 12933
0.11050000 0.11050200 15009.64352416 0 161.07464530 0 6202.74958038 0 -256.28445918 0 -397.51639117 0 13428
0.11150000 0.11150900 15470.69512961 0 -171.93659595 0 6809.38011254 0 550.71639906 0 301.06094075 0 13453
0.11250000 0.11250000 15448.43975672 0 -266.66254923 0 6213.04684246 0 987.58051094 0 688.78939678 0 13668
0.11350000 0.11349100 15822.46288909 0 -220.58064057 0 6065.65205448 0 760.20810633 0 708.37523216 0 13791
0.11450000 0.11448600 15715.39350810 0 384.97366162 0 5284.84278059 0 565.04952354 0 914.32711718 0 14205
0.11550000 0.11549300 15193.55483939 0 710.25531291 0 5102.62553105 0 616.91340022 0 1002.09965048 0 14776
0.11650000 0.11649800 14764.50225267 0 333.25261793 0 4556.28380752 0 309.67410223 0 466.18473523 0 14553
0.11750000 0.11747300 14453.70209501 0 36.90638381 0 4291.05733882 0 210.02428609 0 -695.95319094 0 14568
0.11850000 0.11849100 14176.00818856 0 163.73311049 0 3873.92964592 0 94.27641690 0 -981.51066248 0 16015
0.11950000 0.11950300 14010.25548603 0 69.27632542 0 3545.34733461 0 -156.59699714 0 -594.77982291 0 15270
0.12050000 0.12050700 14050.33730187 0 -29.49158005 0 3641.78728378 0 372.82732129 0 -459.94769466 0 15999
0.12150000 0.12150000 14266.69052883 0 -31.18276694 0 3795.13898251 0 410.08569431 0 -262.48274662 0 15670
0.12250000 0.12250700 14194.49897101 0 379.88260667 0 3843.83506707 0 519.97741090 0 -511.59344655 0 16887
0.12350000 0.12352200 13929.20606835 0 350.86425778 0 4067.34101586 0 1.19723941 0 964.54343193 0 16407
0.12450000 0.12449800 13612.31613204 0 303.18461265 0 3819.35415689 0 455.86865020 0 727.23804472 0 16306
0.12550000 0.12549900 13580.87072956 0 108.97016700 0 4473.72855367 0 -9.54876185 0 1376.19032403 0 17523
0.12650000 0.12650100 13354.77385676 0 109.20412522 0 4274.33812834 0 224.76376489 0 1218.24361050 0 17154
0.12750000 0.12750600 13408.14246239 0 194.77437312 0 4109.62622434 0 -25.76552130 0 952.25758031 0 18007
0.12850000 0.12850300 13104.20714612 0 122.34697478 0 3827.08263962 0 -169.27259459 0 1387.14085328 0 17496
0.12950000 0.12949900 13075.08693184 0 111.20046539 0 3950.27332555 0 165.73498682 0 764.94816858 0 18405
0.13050000 0.13049000 12765.17256017 0 315.31213002 0 4346.57397546 0 -50.69187110 0 716.64515156 0 18100
0.13150000 0.13148800 12733.61643444 0 481.77678304 0 4043.49122820 0 308.22473491 0 817.47638476 0 19059
0.13250000 0.13249300 12281.09051910 0 123.79855656 0 3821.83435765 0 460.91430862 0 1225.21917513 0 18957
0.13350000 0.13349100 12334.12695498 0 -5.94071194 0 3860.82001334 0 364.01375074 0 1317.93882316 0 19468
0.13450000 0.13450700 12289.28403946 0 33.84233936 0 3954.52509828 0 406.39528845 0 962.86154579 0 19953
0.13550000 0.13551000 12145.23309357 0 124.50939982 0 3552.61077969 0 75.91584499 0 786.81933180 0 19956
0.13650000 0.13649900 12105.37272423 0 317.32840037 0 3581.06665447 0 -384.79539719 0 523.23710333 0 19723
0.13750000 0.13749600 11803.31970317 0 246.18096279 0 3603.90886057 0 -533.79788674 0 521.31273327 0 20946
0.13850000 0.13851100 11610.10763509 0 254.51288721 0 3836.78199616 0 -580.92723733 0 252.82989384 0 20955
0.13950000 0.13949800 11431.17886602 0 170.20266988 0 3948.25816243 0 -23.35430112 0 65.82884636 0 20506
0.14050000 0.14048300 11406.48758167 0 122.82862091 0 3968.08869618 0 169.80960235 0 -522.87282384 0 21447
0.14150000 0.14148400 11195.33834738 0 215.59145101 0 4111.65245978 0 456.66807205 0 -96.19846177 0 21771
0.14250000 0.14249400 11009.92119597 0 152.45041150 0 3860.04495060 0 691.22087931 0 -110.69977486 0 22470
0.14350000 0.14350900 10810.69685551 0 147.90854386 0 3421.32622431 0 441.06384469 0 180.70587720 0 22519
0.14450000 0.14449900 10926.65731333 0 25.98331393 0 3194.58715668 0 673.62584794 0 328.82922416 0 22218
0.14550000 0.14550500 10664.22107048 0 26.75815522 0 3118.58671912 0 326.49407086 0 251.99614778 0 23559
0.14650000 0.14650700 10701.88911951 0 51.16875613 0 2745.49366203 0 254.93917172 0 496.12873047 0 23044
0.14750000 0.14750500 10643.90335444 0 79.26710555 0 2636.89630021 0 143.20169858 0 284.97396002 0 23649
0.14850000 0.14849900 10554.04036621 0 190.13617625 0 2385.26664638 0 -45.53050689 0 395.36836016 0 23640
0.14950000 0.14949500 10430.22963009 0 230.23570781 0 2604.70905196 0 -206.60072326 0 304.11025900 0 24457
0.15050000 0.15050000 10211.28547912 0 244.06614874 0 2816.42297482 0 -278.15562240 0 332.98688213 0 24591
0.15150000 0.15149900 10139.58110360 0 187.65265379 0 2972.39881454 0 -84.04038478 0 531.37969100 0 25020
0.15250000 0.15250500 9966.07777369 0 154.37810325 0 3127.54422990 0 -90.18729662 0 447.85893043 0 25297
0.15350000 0.15350100 9895.82387272 0 35.17245774 0 2986.77069215 0 226.94944181 0 266.79873883 0 25452
0.15450000 0.15450400 9844.42614091 0 140.05715833 0 3101.87858097 0 162.06229667 0 383.70477320 0 26061
0.15550000 0.15549900 9800.82332577 0 120.25762709 0 3037.47086750 0 -113.94750917 0 295.44837930 0 26128
0.15650000 0.15649500 9664.53407958 0 87.94304710 0 3082.34699999 0 39.73259472 0 1.89147418 0 26331
0.15750000 0.15749700 9589.88446565 0 149.86170196 0 3037.18298705 0 -88.37719296 0 435.94400169 0 27345
0.15850000 0.15849900 9400.53663893 0 260.76432180 0 3005.42755947 0 -344.81544673 0 -20.58256605 0 26980
0.15950000 0.15949700 9371.40535233 0 245.57198492 0 3272.10450273 0 158.16151664 0 320.98116033 0 27777
0.16050000 0.16050000 9217.19001226 0 38.42185291 0 3355.18015585 0 160.79008655 0 198.63418555 0 28224
0.16150000 0.16150500 9195.93114860 0 31.94576084 0 3106.08606440 0 290.47690545 0 266.01481823 0 28075
0.16250000 0.16249700 9031.71749922 0 65.80459797 0 2961.83581666 0 327.67438068 0 180.44789203 0 28590
0.16350000 0.16349900 9031.17495530 0 170.32667992 0 2921.24467388 0 142.08560824 0 453.65307800 0 29163
0.16450000 0.16449100 8861.73516860 0 178.13266891 0 2923.55878977 0 196.22152597 0 525.91660593 0 28996
0.16550000 0.16550500 8651.83710702 0 239.66932856 0 2631.62587360 0 330.67055178 0 829.45996191 0 30777
0.16650000 0.16650700 8517.60731324 0 86.65655368 0 2436.06647265 0 476.04131879 0 893.49785973 0 29211
0.16750000 0.16749900 8434.52058780 0 -7.70586196 0 2341.99600099 0 561.65142705 0 643.23674525 0 30922
0.16850000 0.16850800 8479.60709446 0 -10.62002035 0 2399.69388562 0 190.98431633 0 772.09424702 0 30867
0.16950000 0.16949900 8470.28419697 0 101.93270807 0 2311.00456382 0 112.41288495 0 761.10939357 0 30852
0.17050000 0.17049200 8283.62694517 0 222.30903048 0 2226.86596753 0 -10.34698789 0 1195.19103022 0 31257
0.17150000 0.17149500 8175.05172800 0 180.87860547 0 2114.14970087 0 -53.18292274 0 831.34114989 0 32608
0.17250000 0.17250900 7972.30638825 0 140.48344283 0 2217.72022723 0 71.06439515 0 925.61756679 0 32361
0.17350000 0.17350400 7982.43756546 0 92.13060035 0 2118.15788246 0 -187.09017969 0 499.51796910 0 32508
0.17450000 0.17449800 7951.41291131 0 -49.15326084 0 2022.00581373 0 244.83788978 0 447.01521928 0 32791
0.17550000 0.17549800 7963.69211954 0 -111.81165772 0 1909.42241498 0 -16.12518025 0 415.30075930 0 33633
0.17650000 0.17650100 8037.07948844 0 7.11913947 0 1662.62029477 0 207.30270865 0 212.59527991 0 33984
0.17750000 0.17750300 8139.96353065 0 91.93550599 0 2052.24433281 0 -45.88127814 0 379.55043692 0 34069
0.17850000 0.17849800 7897.21388133 0 172.41602761 0 1673.36044984 0 44.19186282 0 246.00934175 0 34536
