### header ###
fiducial parameters:
Omega_m = 0.31
Omega_nu = 0
Omega_de = 0.69
Omega_k = 0
H_0 = 100
w_de = -1
zeff = 0
beta = 0
fgrowth = 0
b_1 = 2
gamma = 0.55
Lx = 3500 Ly = 3500 Lz = 3500
nx = 700 ny = 700 nz = 700
xoffset = -685.467585 yoffset = -31.7331281 zoffset = 572.489161
bins = 400 dk = 0.001
kx_ny = 0.628318531 ky_ny = 0.628318531 kz_ny = 0.628318531
############################
A(data) = 8.03323174 (not used)
A(ran) = 8.03103196 (used)
Ngal = 476961
weighted Ngal = 0
Nran = 23820508
weighted Nran = 0
SN(data) = 3489.0353
SN(ran) = 69.953201
SN(data+ran) = 3558.9885
############################
13 columns: k_central k_mean P_0(k) sigma^{lin}_{P_0(k)} P^img_1(k) sigma^{lin}_{P_1(k)} P_2(k) sigma^{lin}_{P_2(k)} P^img_3(k) sigma^{lin}_{P_3(k)} P_4(k) sigma^{lin}_{P_4(k)} N_modes
### header ###
0.00050000 0 0 0 0 0 0 0 0 0 0 0 0
0.00150000 0.00179520 3051.36663515 0 -5414.12324517 0 -822.10904546 0 -6050.95907944 0 4215.09011824 0 3
0.00250000 0.00253879 14554.46025086 0 -17153.46705554 0 -11202.09246552 0 -5029.40424702 0 -14873.89682188 0 6
0.00350000 0.00331552 29243.44924827 0 -33286.17648606 0 -42491.26444729 0 22178.30950474 0 13301.73742088 0 7
0.00450000 0.00420575 50173.79702270 0 -38949.11701455 0 -44077.15353106 0 9171.14021334 0 -16900.35371019 0 24
0.00550000 0.00557378 87091.47460278 0 -21756.89682214 0 -21634.87980264 0 -33330.68723183 0 -24825.14875264 0 45
0.00650000 0.00659388 79755.72724068 0 2844.32523336 0 -24309.73203233 0 -3267.05552261 0 37223.05229857 0 40
0.00750000 0.00754703 82274.68113692 0 12110.57671689 0 11296.76084272 0 -48259.94567780 0 14226.49798973 0 57
0.00850000 0.00846663 73366.33148083 0 16723.30723634 0 12279.87256337 0 3464.66330365 0 74585.39444337 0 75
0.00950000 0.00948925 73652.77252389 0 192.92529487 0 32841.62264459 0 24281.49760404 0 19302.05168660 0 112
0.01050000 0.01054430 74494.49065660 0 168.21297311 0 25663.43446466 0 28376.70766147 0 39981.83275039 0 105
0.01150000 0.01145670 74921.55022486 0 -131.29009154 0 23837.49737882 0 27644.82699096 0 18551.12661740 0 144
0.01250000 0.01249090 78045.60667244 0 -3503.73753794 0 18154.18377265 0 14023.87444555 0 17452.64127214 0 169
0.01350000 0.01339930 80342.11756308 0 6687.48488862 0 11735.77852178 0 1901.89323410 0 17891.76967445 0 180
0.01450000 0.01448870 68990.99160550 0 8230.66801556 0 2673.64534628 0 1963.01246710 0 12088.76423700 0 267
0.01550000 0.01550050 70136.53433123 0 -2985.72989362 0 -10106.43056309 0 -5087.10213165 0 14924.60806955 0 238
0.01650000 0.01653350 73893.15269570 0 -9961.38310797 0 10288.45958311 0 -9282.45029474 0 -4852.00345878 0 315
0.01750000 0.01747870 79267.88060917 0 1140.51589027 0 1485.05342165 0 -6396.65920493 0 1464.31495727 0 297
0.01850000 0.01844180 74320.98732670 0 11761.13414561 0 2147.85385762 0 4156.20749485 0 16366.77837718 0 388
0.01950000 0.01947590 78473.21985694 0 -5138.10125977 0 4857.06351122 0 -940.36479622 0 27637.07636358 0 399
0.02050000 0.02045430 78120.67703471 0 -7335.18267353 0 11358.10152222 0 12722.43338637 0 12219.41766986 0 462
0.02150000 0.02154770 82209.68659024 0 1017.89100014 0 16970.77369604 0 8063.34304291 0 6632.90939958 0 571
0.02250000 0.02255340 74462.71308437 0 4793.75195791 0 15891.44347271 0 -2605.16301728 0 13492.84574725 0 510
0.02350000 0.02348930 77429.65324278 0 3589.58127226 0 21809.82253478 0 1884.55397343 0 9714.97959145 0 555
0.02450000 0.02439640 70779.17206371 0 -1304.61881641 0 26075.98928740 0 -1614.69927295 0 11755.59798320 0 592
0.02550000 0.02547300 71322.49104256 0 5829.34649820 0 24914.83458367 0 1157.77764466 0 1736.95988360 0 837
0.02650000 0.02652900 69331.57631692 0 6042.88735465 0 20795.04396515 0 -3883.66221944 0 9154.25491799 0 723
0.02750000 0.02749970 67993.70730908 0 -314.61568079 0 22359.56346202 0 5442.02550372 0 -1738.28856258 0 826
0.02850000 0.02848090 61637.52852369 0 4477.74780758 0 27564.33118952 0 -5427.44325193 0 2182.88669335 0 831
0.02950000 0.02946900 64546.00680705 0 1610.32570465 0 25214.23024677 0 2788.69787347 0 -6359.07973449 0 996
0.03050000 0.03053250 61144.14572977 0 -120.80349270 0 27043.48903005 0 1552.89355582 0 1338.69943220 0 1041
0.03150000 0.03150510 62977.39054999 0 3208.07324830 0 23426.38195830 0 1327.78211993 0 -2539.24946763 0 1036
0.03250000 0.03246190 61472.44016064 0 -1522.01284190 0 29323.16998697 0 2553.94244267 0 -7097.84739104 0 1059
0.03350000 0.03345080 59451.07654175 0 1563.50084299 0 20525.32213257 0 3740.86244625 0 -10735.61542091 0 1302
0.03450000 0.03451200 54810.22231726 0 4735.57796331 0 14292.48904565 0 -3907.70023662 0 -12860.72672335 0 1339
0.03550000 0.03553350 54503.85108953 0 3415.31395194 0 19643.07929102 0 -1828.25120173 0 -13069.44004619 0 1365
0.03650000 0.03647120 48209.56659988 0 3777.36790118 0 17441.23677758 0 -247.80305837 0 -7742.07953829 0 1308
0.03750000 0.03744890 46958.61534186 0 2437.92662322 0 18103.02963199 0 776.86752625 0 -10181.00267075 0 1579
0.03850000 0.03847530 46150.77852310 0 -1033.83736234 0 16469.75099799 0 9505.88980958 0 -2599.39433605 0 1662
0.03950000 0.03950240 49645.53640561 0 -3873.95179057 0 14337.99630066 0 8269.62045428 0 -5920.22814031 0 1683
0.04050000 0.04050350 49133.88427574 0 -1410.48131400 0 12728.96605801 0 3677.25194017 0 -348.82141385 0 1822
0.04150000 0.04152450 51113.28378357 0 2210.08032310 0 16428.67267291 0 2080.52305040 0 5478.29843982 0 1887
0.04250000 0.04250150 49027.92212722 0 1984.11631820 0 14372.43123084 0 -1855.12373406 0 6588.31007522 0 1920
0.04350000 0.04349210 47072.77101074 0 2749.63471151 0 13863.21501243 0 83.29001332 0 4760.53498345 0 2005
0.04450000 0.04448520 46405.10982418 0 1859.69660422 0 15995.85549575 0 -2721.89853784 0 6012.17272560 0 2151
0.04550000 0.04548030 43912.72950750 0 2804.08840497 0 16337.99033265 0 507.58637220 0 2367.51770970 0 2274
0.04650000 0.04648670 44402.79060398 0 -15.96197418 0 16731.83292645 0 -1298.03078314 0 4023.25101843 0 2311
0.04750000 0.04749250 42414.53323629 0 -74.28001972 0 18757.29330552 0 1323.13174350 0 4762.60550819 0 2568
0.04850000 0.04851840 43350.69829971 0 2068.07775730 0 16762.94615919 0 881.34376877 0 1972.63431737 0 2493
0.04950000 0.04949480 40765.19973131 0 1863.99266624 0 18233.57234160 0 3547.11890658 0 4091.32367141 0 2644
0.05050000 0.05050630 39063.82629967 0 1175.81446179 0 16065.05752587 0 453.03524228 0 5659.80706057 0 2829
0.05150000 0.05149060 38459.83098082 0 1928.85434503 0 18096.38623710 0 3185.69607985 0 4273.82880140 0 2784
0.05250000 0.05249300 35895.48055282 0 2200.22595401 0 16185.96731289 0 868.91729863 0 4569.93598402 0 3055
0.05350000 0.05348950 34662.57718426 0 668.54697255 0 15923.22104494 0 2480.78759259 0 5177.85090587 0 3009
0.05450000 0.05448610 35154.40985271 0 -1165.45076576 0 16560.76550800 0 223.69971447 0 1917.60486302 0 3336
0.05550000 0.05550870 34734.54729558 0 -180.39474488 0 15823.01650533 0 3412.39085818 0 2017.32222033 0 3349
0.05650000 0.05647670 35808.23063325 0 239.16775225 0 13653.06228738 0 -1026.13545320 0 1903.48764887 0 3324
0.05750000 0.05747970 35332.34211254 0 234.03130076 0 14168.92190068 0 1600.62634811 0 1510.91837243 0 3639
0.05850000 0.05849280 35353.26880645 0 523.21385145 0 12573.06772457 0 -862.63375430 0 1612.07513197 0 3846
0.05950000 0.05951020 34288.99694488 0 1290.19157717 0 14364.68060347 0 568.35793420 0 256.82368140 0 3787
0.06050000 0.06049470 32974.26909591 0 1171.16408537 0 12410.74744272 0 -218.47136269 0 901.07022267 0 3930
0.06150000 0.06148310 32676.86645129 0 410.72678192 0 11969.95819169 0 983.48485799 0 154.47332524 0 4083
0.06250000 0.06249100 32224.45125920 0 220.85523423 0 12053.77569057 0 -23.69909332 0 8.50055593 0 4303
0.06350000 0.06350600 31915.75484325 0 228.02567178 0 10841.72150965 0 1303.92125994 0 -122.30600718 0 4470
0.06450000 0.06451750 32443.01895112 0 -220.38355319 0 11495.73051971 0 2378.33537105 0 588.47856286 0 4479
0.06550000 0.06550280 32711.63355122 0 -956.03545754 0 10567.41573459 0 1109.50230845 0 -1608.93059172 0 4636
0.06650000 0.06648880 32974.71198891 0 554.28611658 0 10571.10281876 0 24.82847045 0 -119.39066405 0 4653
0.06750000 0.06749660 33158.62330414 0 863.18072714 0 10383.72586585 0 -677.20442333 0 2175.04748737 0 5220
0.06850000 0.06852730 32034.00727231 0 -153.17454154 0 11041.98664864 0 431.83838365 0 2685.95777148 0 5029
0.06950000 0.06949320 33065.39432917 0 533.94182696 0 12435.77089681 0 649.55239932 0 1948.97275923 0 5040
0.07050000 0.07048030 32153.58838036 0 1153.95769260 0 12403.55043159 0 307.72980199 0 2660.25890558 0 5475
0.07150000 0.07148790 30648.52726776 0 1592.41068309 0 12672.38647819 0 1215.37587837 0 3491.24795554 0 5509
0.07250000 0.07249820 29781.23206471 0 1564.58593082 0 12734.61294367 0 -305.08794529 0 4349.30883969 0 5916
0.07350000 0.07351270 29210.56444356 0 -248.30906362 0 12620.23582829 0 1810.95623036 0 3869.16854625 0 5721
0.07450000 0.07449140 29107.03820651 0 -66.87263442 0 12994.25896067 0 1373.86513582 0 2302.85533276 0 6028
0.07550000 0.07549160 29137.81926950 0 472.33651890 0 12408.53297776 0 -695.52801367 0 1192.78833574 0 6183
0.07650000 0.07648840 28704.78064584 0 1337.81364621 0 12620.23582829 0 -322.79148544 0 2012.89329041 0 6330
0.07750000 0.07749960 27158.97337791 0 1514.02969570 0 12110.68744014 0 -628.23706682 0 1013.37459884 0 6583
0.07850000 0.07848650 26040.77929448 0 1336.83928163 0 11054.02226572 0 1051.27627393 0 1970.69666052 0 6549
0.07950000 0.07947320 24882.94628819 0 455.30063994 0 12040.59962404 0 1227.34506150 0 -238.84333313 0 6828
0.08050000 0.08048110 24299.76693999 0 250.76047633 0 10051.10215597 0 2210.92181979 0 -1325.91089703 0 7147
0.08150000 0.08149960 24099.46858402 0 373.93233931 0 9486.84541089 0 694.89578392 0 -2025.92541672 0 7386
0.08250000 0.08250610 23485.06527984 0 873.55438826 0 8919.93130785 0 500.12583973 0 -1730.56007986 0 7227
0.08350000 0.08350160 22702.80553140 0 696.08827330 0 8775.90250661 0 -891.53584377 0 -2454.41331487 0 7798
0.08450000 0.08449610 22181.07758595 0 623.12165275 0 8456.86453928 0 140.41257996 0 -1316.87587998 0 7371
0.08550000 0.08548940 22255.70505522 0 11.04954905 0 9141.96463744 0 1139.77404451 0 -1723.99419124 0 8256
0.08650000 0.08650700 21747.48534605 0 150.14736794 0 8648.34932470 0 924.57344656 0 -534.78775258 0 8037
0.08750000 0.08749060 22128.15187331 0 544.73734366 0 9122.98667270 0 961.18519581 0 658.97716221 0 8155
0.08850000 0.08849210 21380.88067130 0 244.73602440 0 8576.29063478 0 1843.80781810 0 1055.27338319 0 8718
0.08950000 0.08949900 21230.07560727 0 136.03901165 0 7773.60244705 0 372.48629369 0 946.40807111 0 8571
0.09050000 0.09049190 21308.57839024 0 -13.45918588 0 8696.86825205 0 483.95913827 0 1716.60895058 0 8932
0.09150000 0.09150830 20948.94928013 0 18.43475648 0 8041.22053792 0 787.98746207 0 2023.03553994 0 9285
0.09250000 0.09250820 21456.61537306 0 64.89400998 0 8063.55341708 0 731.79541361 0 2115.19049941 0 9204
0.09350000 0.09350330 20344.06817528 0 473.46921773 0 7272.38044716 0 693.12089025 0 2179.22175383 0 9349
0.09450000 0.09448040 20776.88535245 0 550.89577072 0 6490.57466404 0 967.89391742 0 1771.42803076 0 9564
0.09550000 0.09549270 19885.56320454 0 669.92990592 0 6887.89396783 0 776.94835422 0 2331.04547174 0 10155
0.09650000 0.09649430 19321.31753179 0 470.48854789 0 6300.40748528 0 -96.46342250 0 2400.63503323 0 9913
0.09750000 0.09749140 19226.75987783 0 123.78194808 0 6881.06234342 0 -31.06207860 0 2183.28529704 0 10476
0.09850000 0.09850240 18932.34676091 0 334.26352118 0 6641.05863065 0 -172.48799772 0 1494.15487265 0 10575
0.09950000 0.09950330 18840.66791141 0 436.37914406 0 6739.67982781 0 -499.08947013 0 1029.16927020 0 10882
0.10050000 0.10051200 18142.00421535 0 366.69989674 0 6451.85474415 0 -94.43619055 0 879.82686027 0 10875
0.10150000 0.10150300 17966.72931347 0 220.15878500 0 6557.90547126 0 432.48722188 0 468.87420293 0 11118
0.10250000 0.10250800 17960.08591858 0 -23.54230920 0 6115.03462317 0 1070.25977483 0 372.64573517 0 11575
0.10350000 0.10349800 17828.32525324 0 168.84188116 0 5489.85794693 0 1323.89573392 0 32.78991489 0 11364
0.10450000 0.10450100 17502.90962682 0 506.07499986 0 5374.48432232 0 338.50422159 0 661.23259477 0 12093
0.10550000 0.10551000 17024.14230166 0 382.93081769 0 5803.20473930 0 479.09285151 0 1435.93658876 0 12067
0.10650000 0.10649700 16370.98586061 0 566.13793307 0 5679.37185853 0 -37.24298248 0 2312.87578672 0 12054
0.10750000 0.10749900 16421.91855478 0 276.81697833 0 5939.97009546 0 130.60028570 0 1903.84196327 0 12807
0.10850000 0.10850100 16292.92597064 0 168.65143717 0 7120.42386135 0 -534.67149317 0 1915.54541060 0 12736
0.10950000 0.10950300 15783.04541274 0 743.05375349 0 6988.67426833 0 -791.08992748 0 2180.00788889 0 12933
0.11050000 0.11050200 15466.26619968 0 703.49787307 0 7345.73459908 0 -387.72291987 0 2449.20932221 0 13428
0.11150000 0.11150900 15160.55931144 0 12.92815718 0 6947.05339934 0 -221.17743888 0 1694.51966257 0 13453
0.11250000 0.11250000 15126.12438125 0 -317.23207115 0 7420.05204327 0 342.66852295 0 1121.09503254 0 13668
0.11350000 0.11349100 15568.13158801 0 -64.83266930 0 6780.81351451 0 356.85770721 0 331.51758463 0 13791
0.11450000 0.11448600 15317.67560061 0 63.82043736 0 6268.12058611 0 620.63923752 0 271.78239223 0 14205
0.11550000 0.11549300 15446.66818475 0 198.56885883 0 5911.85746274 0 605.92190338 0 -172.80134451 0 14776
0.11650000 0.11649800 14962.91831342 0 293.11322599 0 5776.09968814 0 447.07500983 0 -173.84103582 0 14553
0.11750000 0.11747300 14791.74017173 0 396.39808637 0 5504.98274263 0 429.90515573 0 67.69741190 0 14568
0.11850000 0.11849100 14349.51151847 0 427.46813704 0 5461.24705960 0 948.66018197 0 517.37320010 0 16015
0.11950000 0.11950300 14132.71539852 0 145.87345056 0 4859.24475921 0 213.78334037 0 360.25248200 0 15270
0.12050000 0.12050700 13847.71375769 0 89.40647628 0 5132.14434902 0 8.17564963 0 289.98197254 0 15999
0.12150000 0.12150000 14003.61209113 0 184.33427805 0 4765.79433774 0 175.98020897 0 1033.17080839 0 15670
0.12250000 0.12250700 13911.71179514 0 -205.78469292 0 5160.77738100 0 357.90072021 0 1382.85586358 0 16887
0.12350000 0.12352200 14014.35224621 0 -114.66610305 0 4724.69386801 0 1058.47217783 0 1446.01240434 0 16407
0.12450000 0.12449800 14037.27195858 0 81.03856679 0 4528.84658662 0 1104.45222110 0 986.39245049 0 16306
0.12550000 0.12549900 13847.16014145 0 366.27139777 0 4162.09797165 0 11.58298044 0 1512.64565510 0 17523
0.12650000 0.12650100 13631.47125398 0 536.85606285 0 4589.68901150 0 2.53338114 0 1609.71672678 0 17154
0.12750000 0.12750600 13127.23758174 0 343.74253846 0 4247.98599527 0 -146.98621920 0 2019.61419157 0 18007
0.12850000 0.12850300 12926.16416303 0 139.91100364 0 4544.43641997 0 -6.87811711 0 1876.95835861 0 17496
0.12950000 0.12949900 12917.52774967 0 10.96487898 0 3965.47562752 0 491.86034926 0 1339.54092888 0 18405
0.13050000 0.13049000 12686.89122370 0 102.88393149 0 4121.08608053 0 284.18782496 0 312.97808395 0 18100
0.13150000 0.13148800 12649.24531932 0 260.51740896 0 3558.14694210 0 53.21458959 0 758.33245450 0 19059
0.13250000 0.13249300 12465.44472733 0 270.12818690 0 3885.94311835 0 -46.61260519 0 329.47141900 0 18957
0.13350000 0.13349100 11989.66692987 0 326.53282399 0 3399.34765955 0 -222.52936974 0 463.91047972 0 19468
0.13450000 0.13450700 11977.59809582 0 299.60603727 0 3498.73284712 0 -194.35805370 0 -106.39219761 0 19953
0.13550000 0.13551000 11702.00793108 0 -93.05624671 0 3235.70977105 0 418.70549918 0 -16.85739309 0 19956
0.13650000 0.13649900 11679.75255820 0 56.12627885 0 3549.20050364 0 309.08284008 0 -87.60888434 0 19723
0.13750000 0.13749600 11654.28621111 0 88.56652972 0 2853.43775669 0 518.43946498 0 -99.09121735 0 20946
0.13850000 0.13851100 11549.43129508 0 26.67633074 0 3164.86903686 0 450.20294159 0 440.28878195 0 20955
0.13950000 0.13949800 11547.32755337 0 65.01259457 0 2758.84688576 0 212.17674603 0 210.03535841 0 20506
0.14050000 0.14048300 11481.33649745 0 126.79694213 0 3045.39865207 0 -78.05125356 0 206.00724665 0 21447
0.14150000 0.14148400 11386.44667375 0 347.34104403 0 3068.21871352 0 -452.22031917 0 480.85667285 0 21771
0.14250000 0.14249400 11160.90341720 0 353.77295751 0 3184.55563039 0 -307.77741298 0 1032.88957133 0 22470
0.14350000 0.14350900 11025.28958282 0 208.85726305 0 3313.73644405 0 0.50308436 0 744.60277173 0 22519
0.14450000 0.14449900 11002.10413465 0 -15.81404792 0 3478.51478200 0 -8.64313426 0 357.90847083 0 22218
0.14550000 0.14550500 10764.01593407 0 155.73999920 0 3666.70001462 0 29.24987120 0 87.50037556 0 23559
0.14650000 0.14650700 10680.36452007 0 248.06879417 0 3491.65763156 0 86.26492556 0 269.79490993 0 23044
0.14750000 0.14750500 10509.66248834 0 63.11369087 0 3421.34836896 0 367.70526383 0 19.64861545 0 23649
0.14850000 0.14849900 10328.80713475 0 182.81847678 0 3166.17557119 0 301.93011825 0 280.94806272 0 23640
0.14950000 0.14949500 10325.40793103 0 38.28112366 0 3018.00572047 0 286.91936749 0 392.56152582 0 24457
0.15050000 0.15050000 10268.52939844 0 104.10365879 0 3013.35534404 0 451.59251836 0 708.47156138 0 24591
0.15150000 0.15149900 10094.47245229 0 172.18461602 0 2832.52213511 0 236.51703768 0 504.39311372 0 25020
0.15250000 0.15250500 9936.70289595 0 210.51811178 0 2809.69100133 0 115.61943022 0 487.45245675 0 25297
0.15350000 0.15350100 9736.55955252 0 304.00175022 0 2707.21663513 0 -69.36202521 0 829.93275018 0 25452
0.15450000 0.15450400 9595.45384504 0 187.97596568 0 2819.54537042 0 39.28128676 0 711.70246576 0 26061
0.15550000 0.15549900 9520.88173738 0 -101.70306805 0 2828.72432769 0 45.74586360 0 859.41613670 0 26128
0.15650000 0.15649500 9633.84159518 0 17.11593187 0 3074.08704567 0 0.84355060 0 504.06869460 0 26331
0.15750000 0.15749700 9552.23856127 0 83.86898519 0 2940.11191537 0 -93.16054801 0 411.37119122 0 27345
0.15850000 0.15849900 9483.87802784 0 210.10400683 0 2995.07493577 0 106.75780578 0 620.34692815 0 26980
0.15950000 0.15949700 9387.77024841 0 132.99855126 0 2932.42772194 0 -176.63126167 0 891.47162429 0 27777
0.16050000 0.16050000 9353.96644074 0 199.77574224 0 3015.40372414 0 198.71058459 0 173.73695596 0 28224
0.16150000 0.16150500 9167.90709449 0 144.98987904 0 3119.98183205 0 -26.68441354 0 740.31224586 0 28075
0.16250000 0.16249700 8994.59199410 0 211.09940883 0 2921.21145690 0 -94.08342628 0 655.70529023 0 28590
0.16350000 0.16349900 8844.76129466 0 166.83336144 0 3172.56430261 0 -75.43231657 0 345.69569656 0 29163
0.16450000 0.16449100 8849.38952643 0 -55.61661973 0 2930.21325698 0 455.47558267 0 477.78078102 0 28996
0.16550000 0.16550500 8786.00046684 0 -84.42503734 0 2645.98667889 0 491.62561597 0 712.83295013 0 30777
0.16650000 0.16650700 9041.27291554 0 -159.66956728 0 2623.28841301 0 407.22682004 0 778.43204575 0 29211
0.16750000 0.16749900 8956.53641370 0 -28.40948174 0 2479.56963686 0 264.87547601 0 205.90759572 0 30922
0.16850000 0.16850800 9019.68188214 0 283.75157536 0 2227.09848635 0 50.03284633 0 674.59024744 0 30867
0.16950000 0.16949900 8761.91816036 0 237.54122773 0 2295.95727439 0 -56.26844750 0 738.04684820 0 30852
0.17050000 0.17049200 8605.01224536 0 132.10944357 0 2338.76288214 0 -4.13095152 0 762.99501049 0 31257
0.17150000 0.17149500 8626.78043595 0 64.07742602 0 2396.82615349 0 55.21956617 0 403.23524694 0 32608
0.17250000 0.17250900 8376.09192973 0 217.76716284 0 2236.47674547 0 3.15444998 0 453.97306819 0 32361
0.17350000 0.17350400 8275.92060710 0 159.31857458 0 2100.18749928 0 -100.51788640 0 275.86586562 0 32508
0.17450000 0.17449800 8143.80562736 0 125.63656248 0 2037.25240501 0 110.64762421 0 215.92694245 0 32791
0.17550000 0.17549800 8096.73717456 0 93.45152870 0 2043.16502646 0 -10.32871856 0 107.92460737 0 33633
0.17650000 0.17650100 7954.26957112 0 102.93951456 0 1876.29401912 0 103.14844933 0 73.40663474 0 33984
0.17750000 0.17750300 8016.77284472 0 -8.90518297 0 1720.32925172 0 208.06005567 0 -41.01078390 0 34069
0.17850000 0.17849800 7962.05341546 0 49.61708053 0 1704.21901911 0 133.76143444 0 415.22768195 0 34536
