### header ###
fiducial parameters:
Omega_m = 0.31
Omega_nu = 0
Omega_de = 0.69
Omega_k = 0
H_0 = 100
w_de = -1
zeff = 0
beta = 0
fgrowth = 0
b_1 = 2
gamma = 0.55
Lx = 3500 Ly = 3500 Lz = 3500
nx = 700 ny = 700 nz = 700
xoffset = -685.467585 yoffset = -31.7331281 zoffset = 572.489161
bins = 400 dk = 0.001
kx_ny = 0.628318531 ky_ny = 0.628318531 kz_ny = 0.628318531
############################
A(data) = 8.05726545 (not used)
A(ran) = 8.05797926 (used)
Ngal = 479483
weighted Ngal = 0
Nran = 23820508
weighted Nran = 0
SN(data) = 3488.26146
SN(ran) = 70.1879217
SN(data+ran) = 3558.44938
############################
13 columns: k_central k_mean P_0(k) sigma^{lin}_{P_0(k)} P^img_1(k) sigma^{lin}_{P_1(k)} P_2(k) sigma^{lin}_{P_2(k)} P^img_3(k) sigma^{lin}_{P_3(k)} P_4(k) sigma^{lin}_{P_4(k)} N_modes
### header ###
0.00050000 0 0 0 0 0 0 0 0 0 0 0 0
0.00150000 0.00179520 3032.62118923 0 -14634.40243605 0 -9948.81601930 0 -30614.09233757 0 -7814.64755515 0 3
0.00250000 0.00253879 11216.59721103 0 -22379.49364670 0 -22299.77290800 0 -4032.58498825 0 -8910.99594172 0 6
0.00350000 0.00331552 20403.52655956 0 -20519.23235392 0 -22416.14304185 0 -7324.07713174 0 -21275.36141578 0 7
0.00450000 0.00420575 31973.22020906 0 -16879.09484654 0 -25719.12825850 0 -14261.70798266 0 5435.59248300 0 24
0.00550000 0.00557378 32271.95153267 0 2311.63568634 0 -22803.12079426 0 -28242.62180791 0 1603.71552673 0 45
0.00650000 0.00659388 31474.30125273 0 10702.71954388 0 -14405.75892855 0 -28496.95310900 0 17562.81090409 0 40
0.00750000 0.00754703 24848.28991151 0 -5780.11894205 0 -18475.72408539 0 -15019.83006299 0 -1315.56934565 0 57
0.00850000 0.00846663 31999.57234213 0 -13285.90399639 0 -15577.43234086 0 -1253.49789272 0 10730.24534337 0 75
0.00950000 0.00948925 46406.21705666 0 -14343.86463281 0 -20259.25416717 0 -4240.29072952 0 -15889.45045425 0 112
0.01050000 0.01054430 61469.22918645 0 -16851.74620424 0 -15441.02129909 0 -12774.03042002 0 -19676.40698872 0 105
0.01150000 0.01145670 67618.35549773 0 2387.11572463 0 -15231.86508327 0 -19642.63639802 0 -23029.21766705 0 144
0.01250000 0.01249090 63285.86551944 0 6817.96116428 0 -12852.20103324 0 -24817.61957176 0 -14070.37820979 0 169
0.01350000 0.01339930 61727.32507797 0 1929.41903360 0 930.65104566 0 -17162.98925489 0 -19095.10993574 0 180
0.01450000 0.01448870 63834.49921420 0 -6144.64201973 0 -9333.71515865 0 -14422.69958552 0 -37281.18200387 0 267
0.01550000 0.01550050 70671.10617348 0 -3027.62757074 0 -1308.89273379 0 -9590.50451584 0 -27921.19221843 0 238
0.01650000 0.01653350 72210.38076977 0 132.10722911 0 8545.24383599 0 -10631.18125322 0 -27064.41572396 0 315
0.01750000 0.01747870 65541.51953150 0 5523.28529556 0 12877.44593383 0 -11788.59351116 0 -14477.61831662 0 297
0.01850000 0.01844180 66694.14854512 0 92.80180468 0 13335.39728833 0 8609.21972879 0 -11179.83709264 0 388
0.01950000 0.01947590 69975.98562136 0 1377.13147164 0 19289.98285255 0 -56.72972055 0 -4472.10092193 0 399
0.02050000 0.02045430 71131.16126969 0 395.31410577 0 28009.21720074 0 -8691.46495754 0 -22185.39579263 0 462
0.02150000 0.02154770 72522.39888316 0 -463.03355159 0 31696.30136535 0 -11857.68481803 0 -11119.27147588 0 571
0.02250000 0.02255340 71160.72437696 0 1000.29596877 0 29412.30220176 0 -4293.95828792 0 -11878.16861895 0 510
0.02350000 0.02348930 76005.30937811 0 -1351.95300501 0 31951.51845242 0 -4233.01621212 0 -14673.93063566 0 555
0.02450000 0.02439640 76845.92027834 0 167.54420469 0 35714.00514904 0 14452.81630903 0 -11163.45005190 0 592
0.02550000 0.02547300 74395.39334948 0 4680.84746173 0 26335.85675089 0 9789.82850723 0 -17237.83817066 0 837
0.02650000 0.02652900 66250.81265938 0 4188.16222428 0 22063.93238936 0 6236.80805152 0 -16298.01924005 0 723
0.02750000 0.02749970 64402.95237039 0 4024.87865018 0 16738.58704459 0 9831.62653342 0 -18586.22588708 0 826
0.02850000 0.02848090 62903.20597371 0 1278.66528703 0 16323.48558714 0 5245.87926955 0 -14790.52221600 0 831
0.02950000 0.02946900 57879.47075699 0 4122.76907390 0 15125.01714877 0 6078.98313356 0 -12370.66562688 0 996
0.03050000 0.03053250 57089.79255093 0 1419.26166758 0 14275.43766543 0 1676.15067570 0 -10154.07477679 0 1041
0.03150000 0.03150510 54369.43306623 0 104.45387643 0 11936.51977074 0 367.96657070 0 -5739.14026790 0 1036
0.03250000 0.03246190 53489.73685939 0 3809.56622175 0 10176.55159617 0 -1476.99276918 0 -10977.29105473 0 1059
0.03350000 0.03345080 54780.99137974 0 1329.01114798 0 17719.26285378 0 -6817.50719896 0 -2834.19405615 0 1302
0.03450000 0.03451200 50183.42994530 0 2982.86216149 0 19394.17342909 0 -3573.13886990 0 24.77133725 0 1339
0.03550000 0.03553350 53857.78093636 0 2520.29364755 0 23964.27549799 0 -1389.97536843 0 -2534.11190892 0 1365
0.03650000 0.03647120 47241.51324098 0 767.31321716 0 21098.75783492 0 -13.74761994 0 -7179.08503824 0 1308
0.03750000 0.03744890 47838.86516495 0 2692.53473242 0 24587.75810853 0 4064.39577745 0 -4272.40047150 0 1579
0.03850000 0.03847530 46398.24498279 0 1011.90197964 0 22183.62422065 0 6418.75956527 0 751.59494485 0 1662
0.03950000 0.03950240 44727.20972116 0 254.37669762 0 19005.97772095 0 6782.83974995 0 1073.27698334 0 1683
0.04050000 0.04050350 44564.22509983 0 538.04080161 0 19550.62537878 0 5907.63890699 0 1518.02680496 0 1822
0.04150000 0.04152450 42628.89344478 0 1115.20455573 0 16093.84557040 0 3677.22979552 0 1824.23194782 0 1887
0.04250000 0.04250150 42114.25178721 0 1509.74470600 0 17414.22030502 0 1450.02058593 0 11279.04512301 0 1920
0.04350000 0.04349210 43473.04748895 0 -455.43904400 0 16922.71980632 0 1900.75278464 0 10824.50404456 0 2005
0.04450000 0.04448520 41975.73700373 0 -165.47810888 0 20051.31590708 0 -933.24972029 0 10976.89245103 0 2151
0.04550000 0.04548030 44078.92510303 0 2167.65117440 0 20824.27490267 0 14.91508587 0 5546.19393561 0 2274
0.04650000 0.04648670 40547.73927187 0 2715.17763668 0 21924.42109665 0 -1818.38576032 0 8169.53771024 0 2311
0.04750000 0.04749250 39852.72944300 0 2034.98257842 0 20904.43853436 0 -1027.06109955 0 8552.49620874 0 2568
0.04850000 0.04851840 38776.61019388 0 28.52651622 0 25441.65579854 0 2338.48607402 0 8192.52385656 0 2493
0.04950000 0.04949480 38052.70159723 0 1149.97165566 0 21377.00535762 0 2427.27504674 0 4884.51180445 0 2644
0.05050000 0.05050630 37669.59915851 0 662.00876474 0 22719.96763487 0 391.11105127 0 1735.02222676 0 2829
0.05150000 0.05149060 37305.31967198 0 1355.99440357 0 22153.39677390 0 177.10404994 0 3647.02449342 0 2784
0.05250000 0.05249300 36870.62019960 0 382.41927628 0 22963.22661114 0 -1004.83451471 0 4613.20662942 0 3055
0.05350000 0.05348950 36655.92782136 0 -310.31518983 0 22374.62182378 0 3205.46017965 0 5862.12057966 0 3009
0.05450000 0.05448610 37799.36680538 0 -1099.91256793 0 20001.60116864 0 3676.02291212 0 2875.37203215 0 3336
0.05550000 0.05550870 37699.16226578 0 -173.44907552 0 19414.76795326 0 2991.06675418 0 1392.69916034 0 3349
0.05650000 0.05647670 37204.89368587 0 911.88899125 0 17901.84549004 0 3279.64475593 0 2312.36645978 0 3324
0.05750000 0.05747970 36294.41641603 0 1613.94635487 0 18502.18694170 0 502.37019997 0 2043.56363015 0 3639
0.05850000 0.05849280 34434.15512325 0 1689.95786475 0 16191.39275205 0 1136.92845703 0 3766.27343171 0 3846
0.05950000 0.05951020 34299.51565346 0 470.15084198 0 15296.85962995 0 2656.05142215 0 4307.89834487 0 3787
0.06050000 0.06049470 33724.64054887 0 -969.87807802 0 14447.05870012 0 1540.53684132 0 2485.47118599 0 3930
0.06150000 0.06148310 34254.22984495 0 278.44461007 0 13732.00796333 0 3166.97277858 0 2731.91899180 0 4083
0.06250000 0.06249100 33561.87737404 0 576.13181345 0 12655.66726771 0 -39.02983426 0 87.35566027 0 4303
0.06350000 0.06350600 32839.29745637 0 860.76696033 0 11746.74012335 0 1931.82172808 0 873.66400428 0 4470
0.06450000 0.06451750 31699.73378604 0 525.64644121 0 10224.60548588 0 762.72263129 0 -91.76322061 0 4479
0.06550000 0.06550280 32326.42737078 0 293.98904689 0 9806.31519888 0 1078.76442752 0 -1591.21487201 0 4636
0.06650000 0.06648880 31144.56741963 0 153.03503025 0 10085.62566476 0 -70.81493567 0 -1841.59335314 0 4653
0.06750000 0.06749660 30005.33591904 0 1118.91378455 0 9598.01155207 0 866.58214533 0 -15.23695835 0 5220
0.06850000 0.06852730 29853.86651552 0 1455.26886789 0 8891.47543307 0 905.27216994 0 -1189.87631431 0 5029
0.06950000 0.06949320 28519.54065163 0 900.30069610 0 9482.84830163 0 1586.38733839 0 1515.39159165 0 5040
0.07050000 0.07048030 27792.42108079 0 104.56913933 0 8909.05828488 0 1614.32281391 0 1074.83818114 0 5475
0.07150000 0.07148790 28573.24142700 0 34.83895932 0 8788.00455764 0 2218.08561394 0 3251.90858226 0 5509
0.07250000 0.07249820 28224.24174871 0 -399.22374366 0 7059.98004016 0 1200.49467381 0 1576.89835602 0 5916
0.07350000 0.07351270 27833.16723612 0 520.12135112 0 7832.56257671 0 85.09413793 0 2816.94337409 0 5721
0.07450000 0.07449140 27829.29192243 0 775.31850801 0 7189.20514312 0 -427.43934900 0 2659.04094985 0 6028
0.07550000 0.07549160 26813.29539707 0 390.13115052 0 9197.25982758 0 -1080.60354068 0 2987.67862279 0 6183
0.07650000 0.07648840 27119.44517831 0 202.99114537 0 8778.82560036 0 -384.50087335 0 3152.65626259 0 6330
0.07750000 0.07749960 26515.89275245 0 574.68687506 0 10814.40608432 0 -304.70152115 0 3962.55253377 0 6583
0.07850000 0.07848650 26879.39717624 0 686.24386931 0 10765.22281748 0 228.47188647 0 5483.84567456 0 6549
0.07950000 0.07947320 26078.86809185 0 588.35676728 0 10577.17045276 0 918.20132363 0 4934.33726613 0 6828
0.08050000 0.08048110 25963.49446724 0 186.55317194 0 11495.39834997 0 190.71193714 0 5472.45225232 0 7147
0.08150000 0.08149960 26032.36432762 0 556.46736457 0 11455.64870387 0 438.77962408 0 4647.53083635 0 7386
0.08250000 0.08250610 24795.69636862 0 686.25826333 0 11062.45937723 0 -115.32822808 0 4279.90750772 0 7227
0.08350000 0.08350160 24634.59404251 0 581.37123756 0 10317.92303945 0 1214.46794773 0 3129.61475464 0 7798
0.08450000 0.08449610 24421.34106650 0 7.67338684 0 10475.67045114 0 422.61070814 0 1167.13375913 0 7371
0.08550000 0.08548940 23580.61944302 0 836.82748684 0 9686.77838014 0 573.97935351 0 1848.89001519 0 8256
0.08650000 0.08650700 22860.80760656 0 784.70562499 0 9668.19901909 0 858.69422113 0 620.39896808 0 8037
0.08750000 0.08749060 22227.24918044 0 782.99716527 0 8615.58631556 0 809.19207133 0 2841.63465843 0 8155
0.08850000 0.08849210 21283.77638264 0 562.51285392 0 8829.51470338 0 1401.97776854 0 2217.89738442 0 8718
0.08950000 0.08949900 21363.60784459 0 173.96836755 0 7794.44056236 0 1490.35706524 0 3106.19678765 0 8571
0.09050000 0.09049190 20926.58318399 0 314.74965592 0 7184.67656227 0 890.40093048 0 3468.87078708 0 8932
0.09150000 0.09150830 20784.41453332 0 659.32483321 0 7730.64182675 0 -237.31203061 0 2829.78727088 0 9285
0.09250000 0.09250820 20589.76306301 0 247.99350236 0 7802.64515505 0 -980.27277656 0 1883.53531955 0 9204
0.09350000 0.09350330 19971.70589163 0 297.50451002 0 7609.87597996 0 -722.62199250 0 1431.13119978 0 9349
0.09450000 0.09448040 20040.24358226 0 385.95466960 0 7811.03797726 0 -385.94138281 0 925.70060923 0 9564
0.09550000 0.09549270 19555.71864820 0 -81.47725230 0 7515.81658062 0 916.95679432 0 -587.30268196 0 10155
0.09650000 0.09649430 19505.67174002 0 117.48622419 0 6299.82065207 0 1008.97445696 0 -1449.32302946 0 9913
0.09750000 0.09749140 19262.85565674 0 527.20431731 0 5944.57618258 0 502.82748699 0 -2764.12838470 0 10476
0.09850000 0.09850240 18485.35700798 0 721.49704430 0 6051.53484033 0 -573.56746302 0 -2239.16732040 0 10575
0.09950000 0.09950330 17808.39506857 0 1108.67188409 0 5629.12564850 0 -429.88744001 0 -1494.91886306 0 10882
0.10050000 0.10051200 17301.61476162 0 526.16794771 0 6145.82675849 0 -174.51866209 0 -2067.51306874 0 10875
0.10150000 0.10150300 16899.24647771 0 58.26611634 0 5984.83515562 0 379.70434224 0 -1412.29717527 0 11118
0.10250000 0.10250800 16787.52672029 0 -4.79643146 0 6077.00118741 0 891.85472672 0 -1095.99296494 0 11575
0.10350000 0.10349800 17056.69493663 0 126.97409932 0 5822.89133283 0 838.50605128 0 -1243.47743876 0 11364
0.10450000 0.10450100 16744.12320700 0 42.58205751 0 5421.48634118 0 522.19741203 0 -468.71033253 0 12093
0.10550000 0.10551000 16737.92270510 0 329.40277059 0 5711.18264773 0 257.31972155 0 -917.22695905 0 12067
0.10650000 0.10649700 16175.33788106 0 462.76670856 0 5318.84589011 0 256.25013498 0 -347.67099931 0 12054
0.10750000 0.10749900 15814.93370822 0 419.56360435 0 5223.93392176 0 631.53329791 0 -654.26810246 0 12807
0.10850000 0.10850100 15389.86715843 0 239.64164775 0 5176.59973316 0 -438.25922481 0 -1239.30317230 0 12736
0.10950000 0.10950300 15363.07213237 0 269.98867561 0 5273.59329857 0 107.64248453 0 -473.86339250 0 12933
0.11050000 0.11050200 15186.35782826 0 360.19269144 0 5211.27825449 0 -185.65520640 0 -25.25774448 0 13428
0.11150000 0.11150900 14911.65344951 0 61.24346448 0 5174.40741285 0 80.36990910 0 389.83773391 0 13453
0.11250000 0.11250000 15131.77126691 0 20.02186352 0 5764.03085409 0 243.85134564 0 -411.38004908 0 13668
0.11350000 0.11349100 14969.67243156 0 13.19710395 0 5526.30804023 0 645.16332977 0 31.86305058 0 13791
0.11450000 0.11448600 14800.81947808 0 -76.14869598 0 5012.67396422 0 689.25221996 0 993.07570575 0 14205
0.11550000 0.11549300 15244.81970330 0 -93.23772211 0 5196.44133924 0 1126.29902520 0 778.67452966 0 14776
0.11650000 0.11649800 15107.63359880 0 -84.39182037 0 4247.91956132 0 1165.65006761 0 1751.59749701 0 14553
0.11750000 0.11747300 14971.22255704 0 189.07434030 0 3924.65196592 0 622.59461009 0 1136.04267104 0 14568
0.11850000 0.11849100 14764.61297592 0 298.12345297 0 3505.43160363 0 139.20569655 0 1706.21203758 0 16015
0.11950000 0.11950300 14618.45828831 0 251.95739464 0 3894.02591547 0 -186.84769578 0 1202.37696903 0 15270
0.12050000 0.12050700 14138.47300743 0 379.40649670 0 3755.50005966 0 -394.26998554 0 857.06105321 0 15999
0.12150000 0.12150000 14175.23312582 0 345.93928770 0 3608.06098238 0 -203.43071666 0 1283.39316973 0 15670
0.12250000 0.12250700 13582.64230153 0 214.47314620 0 3989.04860706 0 482.84747685 0 664.91857171 0 16887
0.12350000 0.12352200 13513.77244116 0 84.20635892 0 3094.33832777 0 641.78073453 0 455.21538304 0 16407
0.12450000 0.12449800 13517.09413860 0 -225.44249840 0 2934.29894484 0 757.84527221 0 441.77025901 0 16306
0.12550000 0.12549900 13672.21740931 0 114.07484091 0 3009.54646431 0 147.15673300 0 -82.64648980 0 17523
0.12650000 0.12650100 13460.95745177 0 390.57072182 0 2892.31268913 0 -427.39395246 0 202.16404270 0 17154
0.12750000 0.12750600 13170.75181828 0 345.21515766 0 3294.78062396 0 -624.55662605 0 217.43277863 0 18007
0.12850000 0.12850300 13022.93628195 0 219.88640581 0 3573.07243595 0 -423.04363604 0 491.62450874 0 17496
0.12950000 0.12949900 13114.72585469 0 -11.06819484 0 3669.94420579 0 161.94050110 0 125.33096632 0 18405
0.13050000 0.13049000 12907.89482708 0 -92.18109015 0 3654.27686617 0 238.57095394 0 266.67805049 0 18100
0.13150000 0.13148800 13213.15882233 0 -10.83692719 0 3421.86876823 0 282.90232805 0 -682.56453577 0 19059
0.13250000 0.13249300 12920.29583088 0 223.48380414 0 4077.73792886 0 -830.76096007 0 -66.81306531 0 18957
0.13350000 0.13349100 12838.91424346 0 706.57930107 0 4512.55919681 0 -762.17787291 0 -241.24049145 0 19468
0.13450000 0.13450700 12382.73446093 0 384.51969630 0 4711.38493358 0 -312.66252269 0 -77.99976725 0 19953
0.13550000 0.13551000 12147.77972828 0 138.62772119 0 5100.66572956 0 -172.55775337 0 181.89504489 0 19956
0.13650000 0.13649900 12278.98677738 0 35.21785427 0 4969.95693507 0 363.86427435 0 -27.71956518 0 19723
0.13750000 0.13749600 12168.37425244 0 -21.37966272 0 5135.68749296 0 509.19960992 0 656.11718071 0 20946
0.13850000 0.13851100 12181.99321197 0 214.20630317 0 4757.12470741 0 613.31378742 0 422.20878275 0 20955
0.13950000 0.13949800 12019.34076039 0 181.24842112 0 4562.45109245 0 389.94292100 0 1030.60756519 0 20506
0.14050000 0.14048300 11654.28621111 0 234.02355013 0 4175.71693118 0 706.62248314 0 889.88496014 0 21447
0.14150000 0.14148400 11612.98643954 0 152.98631202 0 3689.74152257 0 690.61411591 0 883.87822393 0 21771
0.14250000 0.14249400 11313.25860670 0 23.33492456 0 3511.89784133 0 566.19218746 0 666.56613364 0 22470
0.14350000 0.14350900 11202.31391202 0 242.41969404 0 3122.88278115 0 499.72723604 0 453.77819528 0 22519
0.14450000 0.14449900 11029.31990905 0 165.15479699 0 2806.92292013 0 -87.06722621 0 537.31888603 0 22218
0.14550000 0.14550500 10879.86566865 0 173.49115035 0 2928.45275733 0 -610.15153146 0 67.83703391 0 23559
0.14650000 0.14650700 10777.62382127 0 247.91821055 0 3332.90263831 0 -648.45070300 0 -26.80676273 0 23044
0.14750000 0.14750500 10543.11198161 0 279.11891466 0 3509.01903688 0 -637.10046283 0 -247.76651970 0 23649
0.14850000 0.14849900 10566.34171908 0 117.79957098 0 3539.01396481 0 127.60965077 0 -84.78123403 0 23640
0.14950000 0.14949500 10429.73137547 0 18.86447341 0 3819.44273549 0 567.22744983 0 53.11482794 0 24457
0.15050000 0.15050000 10481.80451909 0 -55.12224043 0 3353.07641413 0 633.09449571 0 -200.91619169 0 24591
0.15150000 0.15149900 10516.37231718 0 125.14384403 0 3361.59103192 0 765.90481745 0 -358.76325431 0 25020
0.15250000 0.15250500 10154.08584911 0 375.38945726 0 2910.63738670 0 136.03015379 0 146.96739625 0 25297
0.15350000 0.15350100 9780.37274183 0 245.17338123 0 2862.98210068 0 33.94132595 0 411.42876731 0 25452
0.15450000 0.15450400 9827.28618209 0 28.93397777 0 2698.80166827 0 97.38486137 0 388.10823678 0 26061
0.15550000 0.15549900 9709.72023716 0 34.40138104 0 2740.02393357 0 -55.26119811 0 67.39469454 0 26128
0.15650000 0.15649500 9735.87306839 0 162.59487550 0 2774.94604605 0 -128.68145181 0 -402.19887734 0 26331
0.15750000 0.15749700 9379.52136642 0 307.88149284 0 2679.96764375 0 -131.34323870 0 107.24498807 0 27345
0.15850000 0.15849900 9307.62876138 0 195.60147578 0 2788.16640188 0 -359.59921483 0 -250.53349367 0 26980
0.15950000 0.15949700 9142.58468763 0 154.12897594 0 3033.44054127 0 204.62542051 0 -178.04630478 0 27777
0.16050000 0.16050000 9129.79615246 0 7.78302500 0 2948.80369035 0 340.86705570 0 40.70153386 0 28224
0.16150000 0.16150500 9041.91511038 0 78.01925454 0 2554.91680725 0 690.35391628 0 393.49381557 0 28075
0.16250000 0.16249700 9193.63917737 0 -82.41197796 0 2502.05752857 0 545.73606736 0 445.16503380 0 28590
0.16350000 0.16349900 9011.39978318 0 61.51185764 0 2227.72960886 0 310.70715013 0 337.81441575 0 29163
0.16450000 0.16449100 9022.94821796 0 164.80269707 0 2143.81245906 0 178.04187585 0 401.21676213 0 28996
0.16550000 0.16550500 8811.64397112 0 48.86571257 0 2203.02725219 0 -234.12320106 0 486.13595733 0 30777
0.16650000 0.16650700 8796.60775402 0 44.99549215 0 2136.52686933 0 -152.98963372 0 -12.52756047 0 29211
0.16750000 0.16749900 8684.54475453 0 184.64208868 0 2338.61894192 0 -192.65513015 0 157.82713243 0 30922
0.16850000 0.16850800 8656.89715946 0 211.52347887 0 2231.94816462 0 -218.70498875 0 196.02333136 0 30867
0.16950000 0.16949900 8506.14745705 0 155.48533573 0 2402.18515870 0 39.82383068 0 -232.17890082 0 30852
0.17050000 0.17049200 8331.75834116 0 327.30456503 0 2589.71712416 0 10.40967940 0 -184.68084181 0 31257
0.17150000 0.17149500 7998.02739880 0 340.22264640 0 2335.23081053 0 70.76234213 0 145.46045284 0 32608
0.17250000 0.17250900 7916.31364164 0 88.85297076 0 2367.73915619 0 192.76806786 0 -124.75077650 0 32361
0.17350000 0.17350400 7798.21622512 0 -84.68966590 0 2315.48885537 0 171.79487019 0 11.20054234 0 32508
0.17450000 0.17449800 7892.07632261 0 -17.36738437 0 2186.11981219 0 51.31158912 0 -289.36524404 0 32791
0.17550000 0.17549800 7859.59012159 0 -19.30504121 0 2082.67108141 0 20.17477233 0 35.56951131 0 33633
0.17650000 0.17650100 7990.45392862 0 -65.96691825 0 2027.17658942 0 133.33514993 0 113.78696046 0 33984
0.17750000 0.17750300 8054.03121773 0 -31.17833801 0 2012.51683136 0 363.75355110 0 -160.99824626 0 34069
