### header ###
fiducial parameters:
Omega_m = 0.31
Omega_nu = 0
Omega_de = 0.69
Omega_k = 0
H_0 = 100
w_de = -1
zeff = 0
beta = 0
fgrowth = 0
b_1 = 2
gamma = 0.55
Lx = 3500 Ly = 3500 Lz = 3500
nx = 700 ny = 700 nz = 700
xoffset = -685.467585 yoffset = -31.7331281 zoffset = 572.489161
bins = 400 dk = 0.001
kx_ny = 0.628318531 ky_ny = 0.628318531 kz_ny = 0.628318531
############################
A(data) = 8.02847634 (not used)
A(ran) = 8.02188752 (used)
Ngal = 476752
weighted Ngal = 0
Nran = 23820508
weighted Nran = 0
SN(data) = 3496.41952
SN(ran) = 69.8735496
SN(data+ran) = 3566.29307
############################
13 columns: k_central k_mean P_0(k) sigma^{lin}_{P_0(k)} P^img_1(k) sigma^{lin}_{P_1(k)} P_2(k) sigma^{lin}_{P_2(k)} P^img_3(k) sigma^{lin}_{P_3(k)} P_4(k) sigma^{lin}_{P_4(k)} N_modes
### header ###
0.00050000 0 0 0 0 0 0 0 0 0 0 0 0
0.00150000 0.00179520 30313.58944199 0 -22589.20347876 0 -9209.89335020 0 -7956.05221541 0 -70522.29412791 0 3
0.00250000 0.00253879 45559.18420804 0 -8267.62743581 0 10109.37580149 0 10812.05875146 0 66260.99919821 0 6
0.00350000 0.00331552 43452.34224154 0 3751.13756369 0 22729.15766447 0 -52356.48441420 0 53773.52054449 0 7
0.00450000 0.00420575 37087.85921254 0 10098.54706782 0 12573.95351055 0 10851.50944479 0 40625.68843859 0 24
0.00550000 0.00557378 45326.00104736 0 -22021.74683181 0 7414.15049414 0 25040.83764011 0 -4895.05265767 0 45
0.00650000 0.00659388 70808.07083148 0 -29328.70614937 0 7771.62050091 0 13720.49274552 0 -19982.77821645 0 40
0.00750000 0.00754703 73591.54256764 0 1015.33993650 0 14046.12981844 0 -12650.46327505 0 -19216.90550875 0 57
0.00850000 0.00846663 82588.80299203 0 12410.52599623 0 24031.26306314 0 -40748.03762784 0 -10427.53905516 0 75
0.00950000 0.00948925 65520.92500733 0 10409.38044245 0 22759.49583447 0 -36001.66414783 0 -1295.71666725 0 112
0.01050000 0.01054430 67296.70446175 0 5593.53919653 0 40229.96354957 0 -19283.11801116 0 -5451.92416210 0 105
0.01150000 0.01145670 70801.42743659 0 -2163.13366587 0 48932.58941053 0 -2575.45596979 0 -12008.60060531 0 144
0.01250000 0.01249090 71770.69875122 0 -1701.72774603 0 50171.47183449 0 3349.02394325 0 -18394.23177472 0 169
0.01350000 0.01339930 88944.31743793 0 -8653.02184577 0 50249.64244771 0 6764.27146123 0 -39155.83731892 0 180
0.01450000 0.01448870 84945.21515993 0 -6281.03091685 0 44929.83326534 0 4334.42763513 0 -34212.70862688 0 267
0.01550000 0.01550050 96104.34700516 0 8556.41581173 0 54439.18871259 0 -3200.34476558 0 -31251.63680063 0 238
0.01650000 0.01653350 83299.31407564 0 10561.80206591 0 49281.03547258 0 -10633.10783774 0 -18793.61053093 0 315
0.01750000 0.01747870 78518.17349570 0 6337.25618228 0 48796.62126176 0 19992.74330879 0 -14945.53476346 0 297
0.01850000 0.01844180 71445.72601779 0 -5964.19634216 0 30547.65838866 0 28882.38073594 0 -17611.86130304 0 388
0.01950000 0.01947590 78667.64988075 0 -7079.79950159 0 30618.52126750 0 25152.11450453 0 -37833.02667283 0 399
0.02050000 0.02045430 76980.22757839 0 1436.74486847 0 19666.88478938 0 6405.28454596 0 -33718.10787723 0 462
0.02150000 0.02154770 71789.30025691 0 7787.42070842 0 13101.88195790 0 -13501.37143736 0 -25136.28108004 0 571
0.02250000 0.02255340 69423.25516642 0 3454.62070504 0 11256.34685713 0 -13875.83746273 0 -23034.42165972 0 510
0.02350000 0.02348930 71030.40311384 0 801.18124432 0 25506.98251497 0 -18127.38874659 0 -33776.34830578 0 555
0.02450000 0.02439640 69459.35094532 0 -1214.41258611 0 20795.37613489 0 -10082.41469056 0 -24932.10741039 0 592
0.02550000 0.02547300 73178.21268216 0 -957.67416161 0 23910.35327612 0 3731.31810226 0 -22549.23238617 0 837
0.02650000 0.02652900 78846.80009632 0 -3951.94524660 0 22106.33939342 0 8563.60175054 0 -22304.75545417 0 723
0.02750000 0.02749970 75674.35758928 0 -1401.91133459 0 22323.46768311 0 10159.99847056 0 -37321.70671271 0 826
0.02850000 0.02848090 77561.74607787 0 8139.38776976 0 15504.24427381 0 2547.73086845 0 -23370.90961096 0 831
0.02950000 0.02946900 68245.71342195 0 7314.77637889 0 18024.96974202 0 -1721.23718236 0 -21098.86855817 0 996
0.03050000 0.03053250 60307.96375947 0 5773.96272945 0 20860.37068158 0 -6216.20245503 0 -18808.00455319 0 1041
0.03150000 0.03150510 58696.27615886 0 3600.24392106 0 21271.92899509 0 3228.60133852 0 -13160.34383295 0 1036
0.03250000 0.03246190 55714.49908520 0 590.40625461 0 16294.47609611 0 -1681.96364623 0 -13650.07275968 0 1059
0.03350000 0.03345080 56391.35030137 0 -798.95792150 0 15232.64014600 0 -3755.43362571 0 -16204.79026508 0 1302
0.03450000 0.03451200 55993.74311713 0 3167.79213061 0 23146.36286364 0 299.27054583 0 -15502.14053209 0 1339
0.03550000 0.03553350 53580.30847641 0 3150.54144855 0 18185.73989839 0 40.74637678 0 -5377.87245372 0 1365
0.03650000 0.03647120 48754.21425770 0 1936.54961078 0 18687.75910566 0 10004.73125963 0 -7085.55711050 0 1308
0.03750000 0.03744890 49099.00645256 0 387.81814187 0 17935.06246449 0 9530.58109392 0 -2617.96262477 0 1579
0.03850000 0.03847530 48961.26673181 0 828.82441046 0 14480.71856757 0 11196.00268687 0 -1967.76249445 0 1662
0.03950000 0.03950240 46958.39389537 0 1579.05745936 0 12673.27226417 0 3410.48641831 0 8837.13246286 0 1683
0.04050000 0.04050350 44661.10794200 0 1149.47340105 0 10404.37575164 0 4468.91209238 0 13012.52829662 0 1822
0.04150000 0.04152450 45472.15573496 0 -81.08241320 0 7693.04021167 0 -1994.30285704 0 7126.70186952 0 1887
0.04250000 0.04250150 45114.29819682 0 316.73492376 0 11166.21813311 0 166.88650860 0 9551.08703949 0 1920
0.04350000 0.04349210 43875.30504962 0 2094.10879295 0 9951.09691821 0 -5547.50046994 0 854.92077283 0 2005
0.04450000 0.04448520 43989.57144174 0 1392.88738986 0 10872.13718593 0 -5648.19219184 0 2036.78736736 0 2151
0.04550000 0.04548030 42783.02020626 0 -1254.69370380 0 14406.64471453 0 -3805.74626969 0 -2640.59445670 0 2274
0.04650000 0.04648670 45033.91311864 0 -392.12195452 0 14326.70252934 0 -380.66431280 0 -8908.20571587 0 2311
0.04750000 0.04749250 43410.48885373 0 1524.29374081 0 13968.40209821 0 2270.66808451 0 -6119.58534867 0 2568
0.04850000 0.04851840 43794.03418545 0 1900.94101416 0 15348.34594036 0 412.91135160 0 -9239.43431282 0 2493
0.04950000 0.04949480 39066.81582737 0 2521.76626675 0 13157.57575174 0 -909.66123950 0 -7391.58509616 0 2644
0.05050000 0.05050630 39058.73303026 0 3233.76104188 0 16029.07247021 0 1594.75801595 0 -2020.94287055 0 2829
0.05150000 0.05149060 35364.45185452 0 1458.82308416 0 14633.18448032 0 1412.64041734 0 2783.77068893 0 2784
0.05250000 0.05249300 35760.61963653 0 -237.19355673 0 15482.54251716 0 3448.48663709 0 2307.17353944 0 3055
0.05350000 0.05348950 34521.51576607 0 -278.83103421 0 15319.44717258 0 3979.51533539 0 4199.40063397 0 3009
0.05450000 0.05448610 36962.40977234 0 -404.45430991 0 15118.81664687 0 3248.23257042 0 3147.31940203 0 3336
0.05550000 0.05550870 35131.71158683 0 263.45821843 0 14504.96695892 0 2625.70217982 0 5732.41936673 0 3349
0.05650000 0.05647670 36053.59335123 0 622.67986699 0 13680.85382267 0 -1084.83538322 0 4654.30709914 0 3324
0.05750000 0.05747970 34862.21120074 0 1220.15912269 0 14007.04451183 0 -811.31352876 0 6656.69275329 0 3639
0.05850000 0.05849280 35257.38247352 0 50.24875666 0 13937.17814222 0 -666.15867209 0 4494.63310293 0 3846
0.05950000 0.05951020 34405.14563223 0 689.25664889 0 13870.19057707 0 -600.20194037 0 1100.85371554 0 3787
0.06050000 0.06049470 34895.20672870 0 798.43641500 0 14891.72326484 0 -218.88436041 0 492.92772137 0 3930
0.06150000 0.06148310 33149.21182805 0 1476.49451457 0 14898.36665973 0 -1263.24153856 0 -113.02961345 0 4083
0.06250000 0.06249100 32393.85782892 0 1198.28020885 0 15105.86202683 0 3036.64044314 0 704.91291618 0 4303
0.06350000 0.06350600 31069.82922711 0 421.33517632 0 13269.40623241 0 1182.28069949 0 -160.32615614 0 4470
0.06450000 0.06451750 31398.89872072 0 1135.02401716 0 12956.28088654 0 4107.94323097 0 -1530.64925525 0 4479
0.06550000 0.06550280 29756.87295011 0 -241.91811773 0 11796.56558503 0 2547.17725220 0 402.71927661 0 4636
0.06650000 0.06648880 29910.55681859 0 -478.91126538 0 10275.15064868 0 879.10826639 0 1029.69409839 0 4653
0.06750000 0.06749660 30272.28967042 0 153.46463645 0 10698.36812022 0 1034.14960190 0 1932.17604248 0 5220
0.06850000 0.06852730 30024.49104098 0 315.75834471 0 10455.07592698 0 2026.97728758 0 1228.21977516 0 5029
0.06950000 0.06949320 29223.96195659 0 402.64952096 0 9631.20638188 0 -53.28722404 0 3664.39697106 0 5040
0.07050000 0.07048030 29383.95705022 0 461.45685254 0 8995.52206939 0 2685.76954196 0 2520.86940844 0 5475
0.07150000 0.07148790 28726.26095599 0 -80.82442803 0 9380.87219005 0 1184.89376814 0 4292.92856171 0 5509
0.07250000 0.07249820 29325.16300543 0 -114.25199811 0 6866.30293444 0 1695.68225668 0 2729.12876595 0 5916
0.07350000 0.07351270 29256.62531481 0 50.91486772 0 7447.53355347 0 -190.23582717 0 2485.21652252 0 5721
0.07450000 0.07449140 28417.78598654 0 1606.26216144 0 7517.03453635 0 -1889.80225540 0 2935.46153895 0 6028
0.07550000 0.07549160 27332.47670782 0 1646.75365330 0 7776.53661313 0 -2152.57066799 0 1232.87015158 0 6183
0.07650000 0.07648840 25882.00215658 0 1246.87664248 0 7989.56814264 0 28.53371323 0 2036.57699319 0 6330
0.07750000 0.07749960 25786.44799339 0 432.38314203 0 7265.62632902 0 26.73390683 0 -901.44225279 0 6583
0.07850000 0.07848650 25082.13741168 0 49.88912755 0 7478.92359433 0 1471.22408795 0 -698.92389569 0 6549
0.07950000 0.07947320 25142.03868895 0 -249.90901455 0 7283.27561478 0 1009.25790847 0 -963.81598019 0 6828
0.08050000 0.08048110 24804.99712147 0 571.25334714 0 7545.36861556 0 490.69332622 0 -525.06071523 0 7147
0.08150000 0.08149960 24429.86675661 0 1079.32690162 0 6749.24631645 0 611.98843014 0 650.24663409 0 7386
0.08250000 0.08250610 23184.00876802 0 386.37541794 0 7445.71769220 0 731.86074033 0 1028.32445181 0 7227
0.08350000 0.08350160 23353.74750749 0 489.81307640 0 6882.78962609 0 2059.12024652 0 1846.59804395 0 7798
0.08450000 0.08449610 23013.27351932 0 -170.93565778 0 7262.13854670 0 378.39116451 0 1996.96021499 0 7371
0.08550000 0.08548940 22834.56619674 0 305.02594027 0 6331.94146636 0 267.15969662 0 1896.92176026 0 8256
0.08650000 0.08650700 22921.70539307 0 708.60442928 0 6815.74669931 0 30.64376617 0 1002.60344126 0 8037
0.08750000 0.08749060 22360.89214100 0 603.13389199 0 7532.15933206 0 -1239.97858412 0 1817.46675736 0 8155
0.08850000 0.08849210 21281.78336418 0 1127.00765399 0 6389.97152074 0 102.17087377 0 375.51457453 0 8718
0.08950000 0.08949900 20959.02509571 0 364.20530196 0 7525.15055045 0 -61.70351958 0 367.93667542 0 8571
0.09050000 0.09049190 20430.54303212 0 -2.88413024 0 7287.89277423 0 395.13805580 0 -1018.70703047 0 8932
0.09150000 0.09150830 20480.47921705 0 487.73480103 0 6570.30647506 0 -380.74846247 0 -1075.11831096 0 9285
0.09250000 0.09250820 20027.06751573 0 254.41987968 0 7324.94077307 0 -686.21840296 0 -923.98218442 0 9204
0.09350000 0.09350330 19931.73479904 0 44.32074468 0 7270.25456080 0 -526.62855642 0 -712.27711942 0 9349
0.09450000 0.09448040 20021.64207657 0 97.98874597 0 7742.65529918 0 603.58564284 0 -345.56836482 0 9564
0.09550000 0.09549270 19569.00543798 0 366.24703865 0 7284.52678749 0 458.37542454 0 -1109.07048778 0 10155
0.09650000 0.09649430 19794.32724804 0 525.71066069 0 7215.73443339 0 846.02969600 0 -29.41363088 0 9913
0.09750000 0.09749140 19092.45257778 0 405.20833523 0 7140.43155230 0 429.72689130 0 538.11830788 0 10476
0.09850000 0.09850240 18487.68219619 0 346.70992151 0 6846.40596674 0 1010.53233306 0 1034.78404611 0 10575
0.09950000 0.09950330 18419.25522881 0 387.23463035 0 6664.16657255 0 1628.34037713 0 1335.08985431 0 10882
0.10050000 0.10051200 18154.18377265 0 -84.42736253 0 5401.36792698 0 737.39468827 0 1146.80497077 0 10875
0.10150000 0.10150300 18000.27845767 0 60.97706435 0 5869.99300261 0 -101.43622502 0 582.19834022 0 11118
0.10250000 0.10250800 17890.55171872 0 685.96263226 0 5433.32265641 0 -515.05797698 0 -230.60109453 0 11575
0.10350000 0.10349800 17374.69210542 0 281.83274147 0 6018.07427473 0 -1041.87476293 0 387.09179736 0 11364
0.10450000 0.10450100 17076.29295156 0 133.67839200 0 4970.35553877 0 -337.87088461 0 -49.41456771 0 12093
0.10550000 0.10551000 17123.79322503 0 96.25847377 0 5353.81229188 0 531.90341196 0 -1760.00139155 0 12067
0.10650000 0.10649700 16906.22204234 0 177.53587061 0 4213.97181343 0 861.92623274 0 -1743.58113384 0 12054
0.10750000 0.10749900 16430.33352164 0 363.21875782 0 4202.19085982 0 1349.77175702 0 -2161.41745552 0 12807
0.10850000 0.10850100 16130.27351905 0 377.96488001 0 3646.59267275 0 840.16136384 0 -2111.66950011 0 12736
0.10950000 0.10950300 15707.86432722 0 478.95112575 0 3665.95816886 0 87.00942868 0 -1661.19196487 0 12933
0.11050000 0.11050200 15317.56487736 0 377.95380768 0 3408.85878657 0 -101.81069105 0 -695.86682681 0 13428
0.11150000 0.11150900 15184.14336330 0 218.05282882 0 4142.34494418 0 135.52525578 0 159.34182647 0 13453
0.11250000 0.11250000 15176.06056618 0 -53.59304165 0 4383.62197430 0 43.69150446 0 142.81305998 0 13668
0.11350000 0.11349100 15180.04660312 0 190.70307928 0 4563.18186588 0 -167.46116225 0 311.28623272 0 13791
0.11450000 0.11448600 15086.26401190 0 544.50261037 0 4923.32030294 0 -336.10041987 0 753.99542487 0 14205
0.11550000 0.11549300 14584.13408138 0 315.51807526 0 5410.75725843 0 -504.45844043 0 564.52026641 0 14776
0.11650000 0.11649800 14692.97503434 0 163.90362429 0 5676.44876478 0 -201.17417686 0 462.20423446 0 14553
0.11750000 0.11747300 14129.61514757 0 90.91220173 0 4824.26728511 0 337.23644040 0 -389.66722011 0 14568
0.11850000 0.11849100 14450.49112082 0 63.42604115 0 5045.80236008 0 468.51656684 0 -685.10231262 0 16015
0.11950000 0.11950300 14195.49548024 0 99.92363473 0 4357.21447961 0 30.56936015 0 -1054.31673432 0 15270
0.12050000 0.12050700 14328.58482456 0 275.77617979 0 4157.07113619 0 -171.53909949 0 -1273.90418736 0 15999
0.12150000 0.12150000 13769.87531421 0 377.92169794 0 4222.74109469 0 -123.40106010 0 -866.10271366 0 15670
0.12250000 0.12250700 13735.88327702 0 349.85114006 0 4314.99570507 0 252.87196867 0 -363.46013450 0 16887
0.12350000 0.12352200 13466.93650717 0 8.36707906 0 4352.32051204 0 716.59754057 0 -187.31605512 0 16407
0.12450000 0.12449800 13375.36838092 0 17.83840107 0 4522.34713195 0 952.27418880 0 111.70979233 0 16306
0.12550000 0.12549900 13543.00337868 0 61.09166291 0 4377.67613587 0 623.20690965 0 154.57408340 0 17523
0.12650000 0.12650100 13067.77919746 0 386.34330820 0 3930.27670693 0 528.43555983 0 212.30961393 0 17154
0.12750000 0.12750600 13047.40611980 0 122.43776784 0 3578.49787511 0 -115.32490638 0 480.58761536 0 18007
0.12850000 0.12850300 12999.46295333 0 17.18004064 0 3697.06032927 0 60.19867991 0 1097.14780842 0 17496
0.12950000 0.12949900 13130.55927918 0 -61.54994643 0 3540.30942681 0 -225.65508704 0 109.39047245 0 18405
0.13050000 0.13049000 12996.80559538 0 100.93232352 0 3805.09300253 0 97.48860905 0 282.69195387 0 18100
0.13150000 0.13148800 12945.87290121 0 211.65523954 0 3631.16892428 0 231.81240687 0 293.02464740 0 19059
0.13250000 0.13249300 12707.37502462 0 233.50425810 0 3657.43247874 0 330.60854676 0 284.07710171 0 18957
0.13350000 0.13349100 12468.65570153 0 159.37947237 0 3466.49023725 0 637.32855272 0 658.34936139 0 19468
0.13450000 0.13450700 12324.27258589 0 49.36330285 0 3371.97687260 0 437.18410207 0 579.30735621 0 19953
0.13550000 0.13551000 12305.11746395 0 260.52294512 0 3156.21047885 0 205.11592450 0 829.51089460 0 19956
0.13650000 0.13649900 12040.71034729 0 111.44737823 0 3270.70938980 0 -175.15089184 0 436.50093963 0 19723
0.13750000 0.13749600 12121.98121145 0 -30.67809038 0 3293.25264313 0 -150.03443022 0 863.52396921 0 20946
0.13850000 0.13851100 12079.35276090 0 98.65851089 0 3309.92756431 0 -25.02323264 0 621.11424026 0 20955
0.13950000 0.13949800 12121.98121145 0 195.36009910 0 3087.50670335 0 8.44904748 0 686.55500163 0 20506
0.14050000 0.14048300 11900.75616158 0 52.63163169 0 2946.13526007 0 397.39570283 0 474.09258962 0 21447
0.14150000 0.14148400 11666.68721491 0 206.64169086 0 2919.57275283 0 451.49176020 0 612.89968248 0 21771
0.14250000 0.14249400 11509.57092573 0 134.16668152 0 2694.59418484 0 183.99989384 0 4.04071207 0 22470
0.14350000 0.14350900 11382.01774382 0 285.94389567 0 2755.97915363 0 80.29373150 0 544.26898432 0 22519
0.14450000 0.14449900 11193.01315917 0 147.73803006 0 2600.09189251 0 -166.54990992 0 264.19120634 0 22218
0.14550000 0.14550500 11112.84952748 0 91.74218320 0 2336.49305556 0 -5.66785664 0 554.81537371 0 23559
0.14650000 0.14650700 11112.84952748 0 -1.48247357 0 2693.23228889 0 -234.24167493 0 203.81935526 0 23044
0.14750000 0.14750500 11149.16675289 0 283.19020849 0 2781.22405422 0 -102.64986254 0 -129.69456953 0 23649
0.14850000 0.14849900 10778.94142793 0 290.02736907 0 2580.72639641 0 105.14910770 0 263.25338042 0 23640
0.14950000 0.14949500 10575.93035238 0 187.87631476 0 2489.18041480 0 0.73852517 0 199.27638039 0 24457
0.15050000 0.15050000 10384.48985626 0 217.83802571 0 2874.92913916 0 293.24055773 0 242.24253685 0 24591
0.15150000 0.15149900 10396.78013681 0 169.25598611 0 2919.43988493 0 108.33439411 0 225.03614408 0 25020
0.15250000 0.15250500 10089.76671424 0 174.90730070 0 2805.48351790 0 -142.89499518 0 547.71801350 0 25297
0.15350000 0.15350100 10013.71091506 0 157.64222461 0 3128.44108821 0 -54.85750114 0 512.73832493 0 25452
0.15450000 0.15450400 9860.12669750 0 80.73396714 0 3140.04488462 0 -173.11026238 0 629.98427967 0 26061
0.15550000 0.15549900 9851.12489742 0 206.22758591 0 3366.93896480 0 144.88690641 0 -71.49898390 0 26128
0.15650000 0.15649500 9755.03926265 0 243.48928062 0 3313.52606988 0 -47.83078237 0 267.97904866 0 26331
0.15750000 0.15749700 9620.83161352 0 175.64361030 0 3346.90912921 0 74.20439575 0 195.05228847 0 27345
0.15850000 0.15849900 9424.44178821 0 162.50629690 0 3170.39412695 0 -254.81959061 0 61.53200927 0 26980
0.15950000 0.15949700 9425.75939487 0 21.10174736 0 3100.05164737 0 154.93282672 0 -43.88648810 0 27777
0.16050000 0.16050000 9382.59947272 0 62.30718273 0 3256.88005611 0 158.18587575 0 -177.27677821 0 28224
0.16150000 0.16150500 9314.62647066 0 90.01135738 0 3236.60662936 0 39.38193419 0 -119.08506789 0 28075
0.16250000 0.16249700 9273.78066440 0 63.12387741 0 2818.94746488 0 188.89939757 0 -306.41883873 0 28590
0.16350000 0.16349900 9170.03298085 0 177.04979555 0 3228.92243594 0 38.73763561 0 -473.26659419 0 29163
0.16450000 0.16449100 8996.05354098 0 284.26643846 0 2915.84137937 0 -18.36367216 0 -292.12889632 0 28996
0.16550000 0.16550500 8824.46572326 0 172.07167831 0 3097.02890270 0 153.86434738 0 42.45151480 0 30777
0.16650000 0.16650700 8657.28469083 0 -4.29880797 0 2850.34857806 0 263.70402404 0 53.36096572 0 29211
0.16750000 0.16749900 8803.64975260 0 -108.96839543 0 2874.02120853 0 554.44777253 0 -275.90461876 0 30922
0.16850000 0.16850800 8757.54459206 0 82.05157379 0 2550.56538360 0 243.89231325 0 -108.95743382 0 30867
0.16950000 0.16949900 8653.77476386 0 306.08002559 0 2400.04820001 0 19.66356309 0 -35.52843299 0 30852
0.17050000 0.17049200 8431.92966379 0 160.50884950 0 2270.73451846 0 271.96287113 0 588.01795414 0 31257
0.17150000 0.17149500 8451.43910012 0 -66.02017613 0 2136.31649516 0 337.28626586 0 266.07239432 0 32608
0.17250000 0.17250900 8425.46342610 0 -119.91992118 0 2175.37965712 0 277.51121309 0 63.59766219 0 32361
0.17350000 0.17350400 8382.79068625 0 214.01696642 0 2109.62112002 0 55.27824949 0 -148.30936202 0 32508
0.17450000 0.17449800 8229.91509748 0 264.12366515 0 1899.93343261 0 -224.21900651 0 17.96484702 0 32791
0.17550000 0.17549800 8106.56939900 0 191.12272039 0 1944.30023815 0 -120.74038045 0 -25.38717996 0 33633
0.17650000 0.17650100 7883.36240298 0 98.12803581 0 1808.78605470 0 -44.53145102 0 -357.11237068 0 33984
0.17750000 0.17750300 7872.68868185 0 69.57095998 0 1709.96555569 0 241.30581817 0 -320.38436202 0 34069
