### header ###
fiducial parameters:
Omega_m = 0.31
Omega_nu = 0
Omega_de = 0.69
Omega_k = 0
H_0 = 100
w_de = -1
zeff = 0
beta = 0
fgrowth = 0
b_1 = 2
gamma = 0.55
Lx = 3500 Ly = 3500 Lz = 3500
nx = 700 ny = 700 nz = 700
xoffset = -685.467585 yoffset = -31.7331281 zoffset = 572.489161
bins = 400 dk = 0.001
kx_ny = 0.628318531 ky_ny = 0.628318531 kz_ny = 0.628318531
############################
A(data) = 7.99873555 (not used)
A(ran) = 7.99576827 (used)
Ngal = 474912
weighted Ngal = 0
Nran = 23820508
weighted Nran = 0
SN(data) = 3490.37858
SN(ran) = 69.6460414
SN(data+ran) = 3560.02462
############################
13 columns: k_central k_mean P_0(k) sigma^{lin}_{P_0(k)} P^img_1(k) sigma^{lin}_{P_1(k)} P_2(k) sigma^{lin}_{P_2(k)} P^img_3(k) sigma^{lin}_{P_3(k)} P_4(k) sigma^{lin}_{P_4(k)} N_modes
### header ###
0.00050000 0 0 0 0 0 0 0 0 0 0 0 0
0.00150000 0.00179520 13284.02170117 0 -19067.53984694 0 -7764.24633258 0 -27218.76393193 0 -1472.26488649 0 3
0.00250000 0.00253879 13603.34754894 0 -12171.58522664 0 4101.96417556 0 -19758.78508537 0 24947.60866513 0 6
0.00350000 0.00331552 22011.89246272 0 -4126.71082153 0 17268.72995691 0 2344.35440618 0 -18476.49914812 0 7
0.00450000 0.00420575 37499.52824929 0 -16404.97789780 0 47909.28515079 0 -6463.46961288 0 22317.15645797 0 24
0.00550000 0.00557378 61357.39870578 0 -10302.16712124 0 61692.11508504 0 8551.94259250 0 884.09524149 0 45
0.00650000 0.00659388 83919.69643523 0 5910.19661402 0 55166.75117642 0 33628.53276945 0 40837.16984263 0 40
0.00750000 0.00754703 77024.40615442 0 -8546.97111866 0 63275.90042710 0 3814.78128674 0 4196.06786420 0 57
0.00850000 0.00846663 84942.77924847 0 12326.70849735 0 58484.35186183 0 27341.55601417 0 14049.89440888 0 75
0.00950000 0.00948925 83315.14750013 0 10761.10391264 0 44052.01935372 0 48529.77823363 0 -4150.83741731 0 112
0.01050000 0.01054430 80125.54288962 0 -8500.23483560 0 31858.84309368 0 21166.40973957 0 2516.38511688 0 105
0.01150000 0.01145670 78257.19879972 0 -5931.79871974 0 -1710.90670330 0 27576.06785383 0 -24476.92413709 0 144
0.01250000 0.01249090 88040.59428623 0 -4312.77016779 0 1854.14936948 0 -11603.24279370 0 -37406.85289056 0 169
0.01350000 0.01339930 86361.47622748 0 -7596.21273113 0 -6636.25324168 0 -9623.89864750 0 -23680.82398263 0 180
0.01450000 0.01448870 90746.00613242 0 -215.52169536 0 -5183.67494872 0 -29985.73790411 0 -38098.98391498 0 267
0.01550000 0.01550050 87751.93877821 0 13609.43732759 0 9707.80472497 0 -14510.61384458 0 -16925.82005727 0 238
0.01650000 0.01653350 85165.55442382 0 5558.81638590 0 20517.57150519 0 475.41130351 0 -33043.91401902 0 315
0.01750000 0.01747870 70971.38762256 0 8103.74595617 0 28611.88384062 0 -2056.68433506 0 -3812.24572436 0 297
0.01850000 0.01844180 72748.16358621 0 7167.29301231 0 25766.51780872 0 7033.67219640 0 -2159.47979868 0 388
0.01950000 0.01947590 70088.03754853 0 3476.92036723 0 32811.61664433 0 11852.70227186 0 -98.30873615 0 399
0.02050000 0.02045430 72544.65425604 0 -2294.51787217 0 33492.78606717 0 4329.56688454 0 207.65148688 0 462
0.02150000 0.02154770 68497.49808833 0 2782.59702250 0 35778.99969573 0 3185.88430937 0 3481.96934734 0 571
0.02250000 0.02255340 67418.05714176 0 6612.86849166 0 27588.91175062 0 5126.37566779 0 -2193.78186097 0 510
0.02350000 0.02348930 59846.24781453 0 1611.57687735 0 25884.99168428 0 8833.42323404 0 4715.47062144 0 555
0.02450000 0.02439640 62467.06709910 0 -2846.29610718 0 24215.61727137 0 12987.39411928 0 -3111.36756334 0 592
0.02550000 0.02547300 61295.94730303 0 -1849.93081372 0 18801.69332805 0 10006.34781906 0 -5564.05359554 0 837
0.02650000 0.02652900 64720.61736944 0 505.92995240 0 15508.89465023 0 2422.58038102 0 -798.33897854 0 723
0.02750000 0.02749970 62614.21829594 0 783.18760926 0 18834.46740951 0 -1434.30895701 0 4335.96668828 0 826
0.02850000 0.02848090 63509.74792727 0 3461.44125713 0 19076.28698355 0 -1479.03007695 0 5018.29870523 0 831
0.02950000 0.02946900 60767.79740918 0 1027.63686044 0 25042.16631908 0 -1120.39747607 0 4410.23984316 0 996
0.03050000 0.03053250 60086.96015609 0 1625.88232102 0 21465.03033992 0 -1145.40985784 0 -66.35544613 0 1041
0.03150000 0.03150510 61125.32277758 0 333.07103180 0 17575.43335438 0 1532.29903165 0 -1369.97874981 0 1036
0.03250000 0.03246190 58888.60244096 0 -428.58422738 0 21566.67428176 0 -6329.67163978 0 -9577.00735189 0 1059
0.03350000 0.03345080 61007.51324151 0 -456.78765316 0 16986.60712053 0 -110.30715022 0 -7859.85585739 0 1302
0.03450000 0.03451200 57699.21330894 0 1474.35755588 0 18396.88913268 0 149.56164195 0 -18096.82913009 0 1339
0.03550000 0.03553350 55878.03732277 0 5306.43381399 0 15698.12068138 0 2005.50804975 0 -13147.05704316 0 1365
0.03650000 0.03647120 52912.09367360 0 3118.34312797 0 19305.81627704 0 173.25752430 0 -14111.56725812 0 1308
0.03750000 0.03744890 47814.28460385 0 4725.00389311 0 12072.37719627 0 7243.09414802 0 -9088.61817646 0 1579
0.03850000 0.03847530 46201.93266376 0 -111.60017631 0 11279.82018575 0 5131.86754090 0 -4514.38613041 0 1662
0.03950000 0.03950240 47787.60030104 0 -2484.85113580 0 9767.99388268 0 7534.62846049 0 -2768.16978326 0 1683
0.04050000 0.04050350 47661.70796785 0 -1346.52756585 0 6975.38747855 0 5353.91194281 0 -3522.20617573 0 1822
0.04150000 0.04152450 48045.36402281 0 2207.78835186 0 3044.71216793 0 -906.75586147 0 -6727.56670446 0 1887
0.04250000 0.04250150 46076.37250031 0 3545.75701062 0 5203.95944779 0 -4639.60305178 0 -4888.83001113 0 1920
0.04350000 0.04349210 42320.30775209 0 4098.39888697 0 11718.28424857 0 -6077.23370624 0 -7180.13690910 0 2005
0.04450000 0.04448520 39623.64304250 0 2247.30547914 0 9346.26010267 0 -4806.31904658 0 -2665.35217499 0 2151
0.04550000 0.04548030 40304.59101885 0 61.15200708 0 15737.31671124 0 -412.67108215 0 -5237.92934033 0 2274
0.04650000 0.04648670 41499.95920627 0 -1567.03291461 0 17964.18267876 0 -1573.88668367 0 -1622.32810475 0 2311
0.04750000 0.04749250 43772.88604504 0 -31.88109847 0 19306.59133978 0 3442.12005032 0 -5060.22959932 0 2568
0.04850000 0.04851840 42182.01441510 0 1555.89415584 0 18643.13763664 0 -113.68620231 0 2428.99125709 0 2493
0.04950000 0.04949480 40928.73796888 0 1922.07808224 0 19124.89448950 0 176.21383502 0 -1398.31282902 0 2644
0.05050000 0.05050630 40439.89482813 0 341.71851748 0 19611.52316528 0 467.74261134 0 -585.48792792 0 2829
0.05150000 0.05149060 38362.17307592 0 2016.04890298 0 18143.44361758 0 2306.35418740 0 -2230.40911147 0 2784
0.05250000 0.05249300 38508.32776352 0 393.57796524 0 16380.17589021 0 2883.03408093 0 -2439.43245939 0 3055
0.05350000 0.05348950 35979.07660520 0 1186.94214823 0 13472.91556258 0 2902.96426560 0 -3880.59518546 0 3009
0.05450000 0.05448610 36885.78928460 0 331.56519562 0 11229.99472406 0 3642.80593766 0 -2144.53216017 0 3336
0.05550000 0.05550870 35899.79875950 0 -1071.49433905 0 9935.54030184 0 2812.64731206 0 -2143.70173581 0 3349
0.05650000 0.05647670 36677.40813151 0 -1142.88536778 0 10432.39980575 0 3415.92292980 0 -540.60625927 0 3324
0.05750000 0.05747970 38306.47928208 0 108.76078934 0 10189.21833576 0 492.25341679 0 -1319.14570657 0 3639
0.05850000 0.05849280 37284.50370132 0 1034.02559186 0 11479.45420223 0 -965.40596603 0 1600.30525069 0 3846
0.05950000 0.05951020 36484.74967967 0 1335.04556501 0 12283.19426081 0 -685.94159484 0 2350.64348667 0 3787
0.06050000 0.06049470 35294.14259192 0 927.77888460 0 14438.53301001 0 -1507.99527868 0 2289.91178504 0 3930
0.06150000 0.06148310 35037.59682587 0 715.66746528 0 14326.37035960 0 1298.99407540 0 1770.78583592 0 4083
0.06250000 0.06249100 33761.51139052 0 1828.77160100 0 13652.17650139 0 2013.80122104 0 2998.42985019 0 4303
0.06350000 0.06350600 33231.47920145 0 1033.50740706 0 11386.00378076 0 2473.92275120 0 3137.28787574 0 4470
0.06450000 0.06451750 32543.99855346 0 -453.59328745 0 10107.98068857 0 1934.60088161 0 4861.86890019 0 4479
0.06550000 0.06550280 32798.21913130 0 -482.94380608 0 8609.80656200 0 2558.80319326 0 2284.05452521 0 4636
0.06650000 0.06648880 32692.58915253 0 -8.95891696 0 7657.29874716 0 1029.53576415 0 1409.17477967 0 4653
0.06750000 0.06749660 31506.96461095 0 1212.30884439 0 7593.16784181 0 -794.97631349 0 894.49769066 0 5220
0.06850000 0.06852730 31035.17285042 0 1375.80279267 0 8148.03525544 0 -350.71699586 0 -198.62975662 0 5029
0.06950000 0.06949320 29540.40899991 0 1026.29378744 0 7640.46881343 0 -371.17533043 0 623.21466028 0 5040
0.07050000 0.07048030 29100.06264187 0 1167.97525582 0 7754.30338489 0 -1022.09294740 0 -827.64631510 0 5475
0.07150000 0.07148790 27557.68779463 0 769.08589637 0 8131.06138150 0 2213.50167147 0 791.36341390 0 5509
0.07250000 0.07249820 27658.77812023 0 -22.99478274 0 8215.95289588 0 523.04444488 0 -90.89670047 0 5916
0.07350000 0.07351270 27382.30216951 0 -345.22733722 0 7194.45342509 0 747.79381574 0 -651.40147757 0 5721
0.07450000 0.07449140 28299.09066449 0 -656.70290669 0 7290.88230193 0 1864.95595850 0 -524.02434562 0 6028
0.07550000 0.07549160 28536.92420159 0 -241.25488547 0 6871.28548061 0 -404.82634002 0 -1963.02353942 0 6183
0.07650000 0.07648840 27773.48740535 0 1411.30066603 0 7192.53791289 0 -1717.15149450 0 -481.87643397 0 6330
0.07750000 0.07749960 27275.12206526 0 1343.60447209 0 7667.15311624 0 -1164.55390745 0 71.12761813 0 6583
0.07850000 0.07848650 25478.96953318 0 615.93349948 0 8496.55882376 0 875.39571588 0 463.68571152 0 6549
0.07950000 0.07947320 25495.68874366 0 1097.29064141 0 7822.97394342 0 596.26572890 0 -489.77985942 0 6828
0.08050000 0.08048110 24531.17852870 0 945.48685368 0 8670.04000902 0 1323.68535974 0 -801.37501000 0 7147
0.08150000 0.08149960 23531.56904408 0 630.36516765 0 6712.81836780 0 -568.85397435 0 286.83632505 0 7386
0.08250000 0.08250610 23459.82037925 0 222.65227255 0 7660.96368667 0 508.85636785 0 250.60989271 0 7227
0.08350000 0.08350160 23456.16651206 0 -512.37625991 0 6354.87225106 0 -267.57601603 0 397.01592209 0 7798
0.08450000 0.08449610 24391.66723599 0 61.62745271 0 8734.60273504 0 797.83186606 0 -1237.05549036 0 7371
0.08550000 0.08548940 23440.77598056 0 322.51910625 0 6582.79605746 0 464.46188149 0 -2006.30525714 0 8256
0.08650000 0.08650700 23367.58791351 0 512.39176117 0 7182.10778291 0 213.68590391 0 -1265.00203821 0 8037
0.08750000 0.08749060 23024.34584413 0 968.32352362 0 8081.99991022 0 -932.78800435 0 -651.71039543 0 8155
0.08850000 0.08849210 22235.11053106 0 888.26729348 0 8688.37577892 0 495.68251578 0 -369.79682599 0 8718
0.08950000 0.08949900 21374.01582991 0 900.51107027 0 7642.60577212 0 422.37265316 0 472.87684835 0 8571
0.09050000 0.09049190 20823.83200968 0 456.71014689 0 8296.93587960 0 685.45219808 0 831.90916016 0 8932
0.09150000 0.09150830 20643.13166864 0 501.11459834 0 7951.96652755 0 714.26681619 0 408.34955378 0 9285
0.09250000 0.09250820 19954.65451141 0 719.09656428 0 8742.96234027 0 373.81165097 0 1347.14761604 0 9204
0.09350000 0.09350330 19489.28469928 0 123.12978815 0 7492.22145643 0 1052.64149158 0 1592.35532147 0 9349
0.09450000 0.09448040 19366.27117055 0 -264.05944567 0 7238.55449484 0 1157.70013839 0 1633.00182588 0 9564
0.09550000 0.09549270 19074.18324183 0 351.56181425 0 6278.42892052 0 1115.60315943 0 1185.40309508 0 10155
0.09650000 0.09649430 19000.10938880 0 543.37212601 0 6310.45008389 0 264.73264302 0 1275.42109586 0 9913
0.09750000 0.09749140 18414.82629888 0 611.60754217 0 6358.20502083 0 -95.55981007 0 567.53083153 0 10476
0.09850000 0.09850240 17634.00595267 0 888.57953304 0 6433.09822591 0 -517.75630254 0 1349.93784189 0 10575
0.09950000 0.09950330 17328.40978768 0 496.58269579 0 6854.28946201 0 -342.25884693 0 1573.13376558 0 10882
0.10050000 0.10051200 16916.29785793 0 57.94645832 0 7379.12873074 0 280.74543917 0 1329.02222031 0 10875
0.10150000 0.10150300 17139.62664952 0 195.81627888 0 7269.90024640 0 375.23776641 0 1492.07327559 0 11118
0.10250000 0.10250800 17138.29797054 0 -68.27926257 0 7032.50960229 0 339.79414743 0 891.25460672 0 11575
0.10350000 0.10349800 17153.90994854 0 -25.41297848 0 6902.56479822 0 693.01791763 0 1957.95241466 0 11364
0.10450000 0.10450100 16986.49639728 0 -54.09317856 0 6464.15609702 0 500.68942107 0 299.85516458 0 12093
0.10550000 0.10551000 17026.68893637 0 359.69554406 0 5990.53740291 0 568.49190933 0 -110.04683986 0 12067
0.10650000 0.10649700 16318.94593396 0 309.05294480 0 4993.28632346 0 65.38628554 0 -488.56522539 0 12054
0.10750000 0.10749900 15770.20151595 0 616.90675683 0 5103.51131703 0 155.45654769 0 -696.56659774 0 12807
0.10850000 0.10850100 15920.89585673 0 183.84709575 0 4569.88062240 0 -143.37331961 0 -722.54559346 0 12736
0.10950000 0.10950300 15257.77432334 0 109.68078880 0 4529.73237261 0 504.38093416 0 -149.87720321 0 12933
0.11050000 0.11050200 15499.92606713 0 0.23295064 0 4291.51130413 0 482.07795028 0 -512.12934707 0 13428
0.11150000 0.11150900 15209.72043363 0 150.90803665 0 4731.07152711 0 308.30445565 0 -397.83970306 0 13453
0.11250000 0.11250000 15181.59672859 0 569.61353583 0 4575.63823131 0 43.37727188 0 -753.95777897 0 13668
0.11350000 0.11349100 14515.15349776 0 548.49750517 0 4706.87849738 0 -221.04457098 0 561.20189067 0 13791
0.11450000 0.11448600 14663.85482007 0 141.69364794 0 5056.90790187 0 -364.69137702 0 832.77723042 0 14205
0.11550000 0.11549300 14481.05073731 0 -311.18990349 0 5034.54180574 0 532.87334762 0 337.96167767 0 14776
0.11650000 0.11649800 14535.96946842 0 -5.76564741 0 5107.25376282 0 439.03539478 0 82.66785939 0 14553
0.11750000 0.11747300 14460.78838290 0 597.33420825 0 4743.27322906 0 265.89412989 0 109.79416941 0 14568
0.11850000 0.11849100 13988.11083639 0 556.77074627 0 4184.61908034 0 564.88233144 0 1167.02303589 0 16015
0.11950000 0.11950300 13388.32300096 0 184.00875170 0 4033.64793143 0 475.04702402 0 1152.57365200 0 15270
0.12050000 0.12050700 13653.83735011 0 -134.23975887 0 4071.16096792 0 609.18823920 0 866.94199588 0 15999
0.12150000 0.12150000 13688.60445004 0 -48.20668780 0 3856.29143249 0 103.76152396 0 337.60957774 0 15670
0.12250000 0.12250700 13492.62430075 0 317.63067484 0 4209.89719790 0 -469.73895150 0 1017.75813224 0 16887
0.12350000 0.12352200 13511.77942269 0 57.30260263 0 4440.93232756 0 -442.51321200 0 786.13949105 0 16407
0.12450000 0.12449800 13317.01722913 0 -65.61725423 0 4623.98000146 0 -102.78416984 0 641.73312354 0 16306
0.12550000 0.12549900 13899.08934485 0 -90.44528179 0 5125.04698881 0 -240.98693521 0 -210.12282978 0 17523
0.12650000 0.12650100 13524.73404273 0 158.60108793 0 4947.20330757 0 -251.40267117 0 -190.09963758 0 17154
0.12750000 0.12750600 13482.54848517 0 464.68554245 0 5016.48284396 0 -176.40870794 0 -295.60007015 0 18007
0.12850000 0.12850300 13254.90148690 0 332.97138088 0 4866.69643381 0 -8.55453352 0 -544.47825126 0 17496
0.12950000 0.12949900 12904.24095989 0 165.00753507 0 5105.71470967 0 310.90313028 0 -723.88755923 0 18405
0.13050000 0.13049000 12953.73425183 0 85.43151167 0 4662.11308814 0 290.82457645 0 -850.34790268 0 18100
0.13150000 0.13148800 12760.19001400 0 -43.00668117 0 4533.81806047 0 388.09162829 0 -1027.08656590 0 19059
0.13250000 0.13249300 12855.96562368 0 147.08144119 0 4424.58957613 0 415.55542277 0 -652.18429093 0 18957
0.13350000 0.13349100 12611.26724519 0 81.98613635 0 4190.18845972 0 351.08570428 0 -561.52188085 0 19468
0.13450000 0.13450700 12561.22033701 0 138.68419005 0 4120.05635432 0 450.11214853 0 -657.44475245 0 19953
0.13550000 0.13551000 12643.48771041 0 98.86678132 0 4115.10702512 0 282.53915579 0 -878.51589702 0 19956
0.13650000 0.13649900 12312.86809133 0 243.59336048 0 3504.78940880 0 53.08448977 0 -588.82623386 0 19723
0.13750000 0.13749600 12292.60573691 0 198.86559714 0 3331.51859771 0 10.70000682 0 -590.94658406 0 20946
0.13850000 0.13851100 12202.91990588 0 14.78310376 0 3344.63930262 0 -45.91405222 0 -472.70965625 0 20955
0.13950000 0.13949800 11874.07185876 0 204.23013851 0 3235.52154153 0 385.13753203 0 -1107.29891581 0 20506
0.14050000 0.14048300 11701.45431484 0 257.03516281 0 3225.85540196 0 428.02950391 0 -854.23539592 0 21447
0.14150000 0.14148400 11556.18541322 0 278.15119347 0 2698.79059595 0 561.87730248 0 -776.64497252 0 21771
0.14250000 0.14249400 11172.30791176 0 338.99915451 0 2856.73730948 0 191.39842128 0 -542.61588622 0 22470
0.14350000 0.14350900 11025.11242562 0 188.26606059 0 2696.93044538 0 278.44350284 0 -223.18374414 0 22519
0.14450000 0.14449900 10746.55487783 0 275.26796008 0 2830.98308196 0 -93.61672779 0 -41.89944869 0 22218
0.14550000 0.14550500 10558.18141569 0 216.02548614 0 2720.32626772 0 -79.90941111 0 314.43409466 0 23559
0.14650000 0.14650700 10415.76917388 0 163.98445226 0 2683.36684747 0 -60.38646654 0 -70.22323063 0 23044
0.14750000 0.14750500 10381.05743557 0 74.03244254 0 2492.85642664 0 118.32218471 0 219.14234558 0 23649
0.14850000 0.14849900 10249.62893997 0 -0.83754054 0 2596.59303787 0 264.67949586 0 578.94086226 0 23640
0.14950000 0.14949500 10332.18419382 0 54.63361874 0 2289.88964039 0 405.17290379 0 301.75296105 0 24457
0.15050000 0.15050000 10283.16701185 0 -114.13020253 0 2396.81508117 0 392.94462826 0 98.68707749 0 24591
0.15150000 0.15149900 10310.26099068 0 25.29716196 0 2176.34294938 0 282.79160480 0 115.47991893 0 25020
0.15250000 0.15250500 10188.83080439 0 132.03193730 0 2237.14108496 0 -101.70572541 0 196.20381025 0 25297
0.15350000 0.15350100 10149.04794132 0 313.41876248 0 2382.97467514 0 -293.20623352 0 243.61993405 0 25452
0.15450000 0.15450400 10014.31989293 0 201.09113443 0 2714.77903298 0 -332.41887187 0 409.54093593 0 26061
0.15550000 0.15549900 9670.55742428 0 184.87571473 0 2577.92509823 0 -128.67813011 0 396.93952305 0 26128
0.15650000 0.15649500 9629.83341360 0 77.84320457 0 2588.82026585 0 119.17143202 0 182.83508527 0 26331
0.15750000 0.15749700 9766.57662511 0 -11.37448856 0 2826.01160811 0 304.78345635 0 -127.50557091 0 27345
0.15850000 0.15849900 9596.97075354 0 130.91806142 0 2747.55311445 0 -37.59508241 0 -383.93507755 0 26980
0.15950000 0.15949700 9384.39318934 0 458.75741975 0 2661.77581408 0 18.49665078 0 306.90269932 0 27777
0.16050000 0.16050000 9108.26048069 0 370.21425264 0 2793.16002038 0 -76.71238804 0 458.15065635 0 28224
0.16150000 0.16150500 8798.11359020 0 221.90599785 0 2733.24767078 0 497.90251691 0 365.45758189 0 28075
0.16250000 0.16249700 8761.85172641 0 51.80475047 0 2537.85435471 0 268.68435575 0 792.21930461 0 28590
0.16350000 0.16349900 8758.79576476 0 -19.88401308 0 2588.26664961 0 99.83140226 0 442.70919215 0 29163
0.16450000 0.16449100 8840.86383632 0 -42.41054720 0 2551.57296516 0 70.46914697 0 684.58080612 0 28996
0.16550000 0.16550500 8914.39514544 0 4.69537435 0 2635.96622493 0 -173.55758430 0 555.20290508 0 30777
0.16650000 0.16650700 8729.97450326 0 244.40053295 0 2750.03331521 0 -350.24531483 0 524.00884437 0 29211
0.16750000 0.16749900 8630.87719613 0 204.42833313 0 2862.88244976 0 -337.15671966 0 294.34114682 0 30922
0.16850000 0.16850800 8422.99429766 0 265.90188052 0 2968.78923665 0 106.80785268 0 121.63723876 0 30867
0.16950000 0.16949900 8409.86252043 0 86.37675604 0 2876.30210744 0 50.75952301 0 -79.86401458 0 30852
0.17050000 0.17049200 8162.88324303 0 76.05524556 0 2990.70136747 0 132.51136896 0 -164.82927065 0 31257
0.17150000 0.17149500 8158.05570940 0 136.43650811 0 2804.86346771 0 -3.08757314 0 -385.01241476 0 32608
0.17250000 0.17250900 8024.65633999 0 201.39783782 0 2786.59413176 0 188.24170147 0 -72.29154091 0 32361
0.17350000 0.17350400 7972.86000449 0 27.54107931 0 2477.35517190 0 273.18082686 0 342.03518597 0 32508
0.17450000 0.17449800 8015.51059969 0 -174.72239287 0 2399.98176607 0 594.14205700 0 324.93398029 0 32791
0.17550000 0.17549800 8148.85460748 0 -62.07953573 0 2049.45410696 0 608.70659307 0 317.91080466 0 33633
0.17650000 0.17650100 8109.14925068 0 14.97033677 0 1828.93768587 0 614.57935415 0 476.82413215 0 33984
0.17750000 0.17750300 7946.19784632 0 133.31079082 0 1548.11031149 0 479.17257225 0 910.20267618 0 34069
0.17850000 0.17849800 7905.17488287 0 51.46870541 0 1232.52690951 0 401.17690176 0 753.49606302 0 34536
