### header ###
fiducial parameters:
Omega_m = 0.31
Omega_nu = 0
Omega_de = 0.69
Omega_k = 0
H_0 = 100
w_de = -1
zeff = 0
beta = 0
fgrowth = 0
b_1 = 2
gamma = 0.55
Lx = 3500 Ly = 3500 Lz = 3500
nx = 700 ny = 700 nz = 700
xoffset = -685.467585 yoffset = -31.7331281 zoffset = 572.489161
bins = 400 dk = 0.001
kx_ny = 0.628318531 ky_ny = 0.628318531 kz_ny = 0.628318531
############################
A(data) = 7.99265807 (not used)
A(ran) = 7.98084555 (used)
Ngal = 474669
weighted Ngal = 0
Nran = 23820508
weighted Nran = 0
SN(data) = 3501.21727
SN(ran) = 69.5160591
SN(data+ran) = 3570.73333
############################
13 columns: k_central k_mean P_0(k) sigma^{lin}_{P_0(k)} P^img_1(k) sigma^{lin}_{P_1(k)} P_2(k) sigma^{lin}_{P_2(k)} P^img_3(k) sigma^{lin}_{P_3(k)} P_4(k) sigma^{lin}_{P_4(k)} N_modes
### header ###
0.00050000 0 0 0 0 0 0 0 0 0 0 0 0
0.00150000 0.00179520 20067.26005482 0 -25980.76729396 0 -14382.83921617 0 -11030.11711644 0 95975.02225127 0 3
0.00250000 0.00253879 41607.02858727 0 -38553.39212553 0 -20712.99803824 0 -27400.12861246 0 -58818.84679461 0 6
0.00350000 0.00331552 64331.75732181 0 -42313.00001771 0 -52996.13261898 0 27827.96324346 0 -12917.08485668 0 7
0.00450000 0.00420575 84976.43911592 0 -25986.63562611 0 -46385.40108600 0 -13393.85916337 0 3292.82082247 0 24
0.00550000 0.00557378 84299.69862300 0 6277.32168803 0 -33671.05049675 0 -35967.00777115 0 -4357.20340728 0 45
0.00650000 0.00659388 79654.19402209 0 15208.94537089 0 -48969.68169868 0 16208.22268578 0 36332.72665991 0 40
0.00750000 0.00754703 62012.76961179 0 -294.94458852 0 -30814.05852380 0 -14493.34101786 0 -10996.59011689 0 57
0.00850000 0.00846663 71215.31093831 0 -8030.83469724 0 -48308.99607675 0 11123.92185230 0 28555.41498404 0 75
0.00950000 0.00948925 87630.03248196 0 -16277.09254615 0 -20246.74244013 0 -25209.02625410 0 -31994.58979596 0 112
0.01050000 0.01054430 88426.24335967 0 -3252.38469223 0 -20388.57892106 0 -55110.06087335 0 -12886.96813317 0 105
0.01150000 0.01145670 98150.18046190 0 2544.39809868 0 4692.79450021 0 -39677.78671087 0 -19194.09651962 0 144
0.01250000 0.01249090 94161.26472273 0 -1703.52146265 0 20547.79895195 0 -38432.03944552 0 -20222.82621852 0 169
0.01350000 0.01339930 96528.85993870 0 4934.70265285 0 52443.62361053 0 -16739.25138408 0 -32331.63136344 0 180
0.01450000 0.01448870 95935.27260518 0 4960.41259108 0 37507.27887667 0 -393.35098258 0 -44978.10860155 0 267
0.01550000 0.01550050 92228.36897914 0 1488.80693976 0 24513.57353224 0 5898.68139621 0 -22857.70735561 0 238
0.01650000 0.01653350 89553.07385646 0 5941.17697886 0 33291.38047872 0 3046.39516130 0 -27439.65681207 0 315
0.01750000 0.01747870 83685.84893506 0 -871.99097600 0 32566.80754259 0 10382.07608945 0 -8138.12552473 0 297
0.01850000 0.01844180 84970.34933727 0 6946.75444657 0 20296.56790181 0 10071.43094434 0 -18532.96800470 0 388
0.01950000 0.01947590 79305.19434381 0 5895.64757921 0 23816.45996166 0 -6604.56424805 0 -3127.34492805 0 399
0.02050000 0.02045430 77903.21657527 0 574.80977787 0 29376.87076234 0 9286.60241654 0 -10637.53676767 0 462
0.02150000 0.02154770 72960.75222273 0 1281.25621104 0 29992.93491525 0 -1501.73941515 0 -21317.54697334 0 571
0.02250000 0.02255340 74165.53188624 0 3470.84166090 0 31943.21420880 0 -717.67930670 0 -22416.36448834 0 510
0.02350000 0.02348930 68668.34406028 0 1555.47340750 0 24792.15322468 0 4911.20717958 0 -14757.08379504 0 555
0.02450000 0.02439640 70916.69033796 0 1545.06542217 0 23685.58508230 0 -1263.38547878 0 -23120.56434681 0 592
0.02550000 0.02547300 70426.85068798 0 -542.29921774 0 17010.96623513 0 -2038.90218140 0 -24193.69406823 0 837
0.02650000 0.02652900 70528.38390657 0 2908.97653798 0 12233.47952238 0 10.84372560 0 -30666.68588046 0 723
0.02750000 0.02749970 66652.62732705 0 4740.53836483 0 16868.35469146 0 -8125.76881023 0 -22339.30110760 0 826
0.02850000 0.02848090 60649.21281038 0 3403.97589132 0 16806.01750273 0 1109.85662285 0 -17964.51484851 0 831
0.02950000 0.02946900 62005.46187741 0 844.95235879 0 17690.80697899 0 6867.80877061 0 -14885.41203969 0 996
0.03050000 0.03053250 60214.07044500 0 -98.85615189 0 17345.46116790 0 8295.45218808 0 -10574.56845642 0 1041
0.03150000 0.03150510 60821.16601481 0 -1610.59144045 0 16876.21604208 0 11658.49369455 0 -6770.26158896 0 1036
0.03250000 0.03246190 61141.48837181 0 -905.60212522 0 11596.04578257 0 4719.23521188 0 2539.72557760 0 1059
0.03350000 0.03345080 63891.63241027 0 1977.26254914 0 8646.68847598 0 6444.55808209 0 -1612.38515707 0 1302
0.03450000 0.03451200 60499.84714857 0 1181.71601092 0 9637.27401588 0 1889.11577126 0 6840.98052758 0 1339
0.03550000 0.03553350 60846.30019215 0 3208.98117894 0 8008.87827712 0 -802.19546927 0 2396.89258744 0 1365
0.03650000 0.03647120 55446.65954784 0 518.79045768 0 9338.75306644 0 -714.38861176 0 284.17675263 0 1308
0.03750000 0.03744890 52901.35351853 0 4636.51387316 0 9229.34742491 0 -817.71333251 0 310.73704541 0 1579
0.03850000 0.03847530 52357.81309318 0 6.07113286 0 10099.75395123 0 6510.20589594 0 1884.94150480 0 1662
0.03950000 0.03950240 51266.08186606 0 -2315.03489006 0 6368.41370432 0 4273.21982353 0 2187.32669560 0 1683
0.04050000 0.04050350 54839.45325478 0 -498.63771928 0 9328.63296156 0 741.28771768 0 549.40765027 0 1822
0.04150000 0.04152450 52601.07206945 0 2392.55223611 0 8390.76276012 0 -4346.88400055 0 2655.27635941 0 1887
0.04250000 0.04250150 51660.14590636 0 3461.90629477 0 13348.46263162 0 -6324.43443014 0 5438.85881882 0 1920
0.04350000 0.04349210 48101.83287939 0 2450.19475912 0 12979.20059891 0 -1559.29335956 0 3210.50915977 0 2005
0.04450000 0.04448520 47508.35626911 0 2490.29871961 0 15777.73069683 0 920.62062660 0 -258.05492392 0 2151
0.04550000 0.04548030 46080.13709075 0 3571.93198650 0 15193.77628589 0 1343.09514515 0 -1453.48622359 0 2274
0.04650000 0.04648670 42087.01386816 0 3179.48450562 0 17589.27376041 0 560.03154593 0 -1110.98599998 0 2311
0.04750000 0.04749250 40761.98875711 0 1271.30219103 0 15713.06831989 0 2029.53499461 0 3836.59376664 0 2568
0.04850000 0.04851840 39283.61194732 0 805.62567550 0 17044.07248634 0 1085.28491961 0 3018.02786512 0 2493
0.04950000 0.04949480 39987.14746630 0 363.50442380 0 17793.00453707 0 2169.56668659 0 6315.59871493 0 2644
0.05050000 0.05050630 40446.42749978 0 -541.97147692 0 18311.30006183 0 2144.41036460 0 9231.09685223 0 2829
0.05150000 0.05149060 40605.75825392 0 -829.86742346 0 17806.40205010 0 5811.56434454 0 11799.55511274 0 2784
0.05250000 0.05249300 40295.95460549 0 -1114.66201182 0 12721.76904688 0 7088.82344632 0 9664.76659840 0 3055
0.05350000 0.05348950 40838.71996810 0 -559.68941110 0 13205.74036470 0 5299.00428403 0 9257.27182810 0 3009
0.05450000 0.05448610 41358.12272535 0 1642.69011009 0 10315.79715309 0 1223.99014708 0 4420.14957388 0 3336
0.05550000 0.05550870 39126.27421165 0 2161.10743043 0 9741.79676216 0 -3184.81029386 0 7318.17558261 0 3349
0.05650000 0.05647670 37109.67169243 0 2304.20615638 0 9585.64376525 0 -4114.99630188 0 7098.32350101 0 3324
0.05750000 0.05747970 35991.36688575 0 863.40992427 0 11173.41514424 0 -883.49512149 0 8079.94045781 0 3639
0.05850000 0.05849280 35685.88144400 0 214.60822856 0 10703.19565384 0 686.06117595 0 4449.85662137 0 3846
0.05950000 0.05951020 35349.39349276 0 832.90566939 0 12198.04808296 0 737.64049388 0 3379.48390882 0 3787
0.06050000 0.06049470 33383.28077472 0 2045.55664862 0 13939.06043744 0 1194.77028188 0 4187.36501689 0 3930
0.06150000 0.06148310 32598.03149858 0 1160.05854357 0 12666.85031578 0 555.60483047 0 4454.28555129 0 4083
0.06250000 0.06249100 32213.60038087 0 311.38809811 0 14035.16821687 0 740.98212151 0 3355.76698906 0 4303
0.06350000 0.06350600 31431.22990919 0 881.87302590 0 13267.96683018 0 677.91637381 0 5467.79080357 0 4470
0.06450000 0.06451750 31755.20613338 0 239.03820604 0 12146.34032606 0 495.79213180 0 2934.60896993 0 4479
0.06550000 0.06550280 30642.76965885 0 813.74058236 0 11678.75604896 0 -739.85938778 0 4445.00694310 0 4636
0.06650000 0.06648880 30289.56249714 0 929.24818210 0 12041.15324028 0 1264.84702566 0 667.49510169 0 4653
0.06750000 0.06749660 28963.87304660 0 1050.63186462 0 11188.91639899 0 615.09421726 0 -478.84593866 0 5220
0.06850000 0.06852730 28561.06186970 0 649.01539157 0 10584.97644175 0 569.32011922 0 -1336.76177536 0 5029
0.06950000 0.06949320 27683.80157432 0 90.52932074 0 10902.06567991 0 1766.36797832 0 1329.94122327 0 5040
0.07050000 0.07048030 27941.45457285 0 -153.36166383 0 9835.85616150 0 721.68305935 0 912.80135082 0 5475
0.07150000 0.07148790 28274.73154989 0 -173.84657198 0 10831.86714056 0 1427.69877909 0 2674.70828947 0 5509
0.07250000 0.07249820 28426.31167666 0 -252.71584889 0 10131.94119947 0 474.37050497 0 2716.89384702 0 5916
0.07350000 0.07351270 28629.93173007 0 421.73378002 0 11742.42191667 0 665.45557946 0 3643.90209782 0 5721
0.07450000 0.07449140 27718.45795100 0 538.64535055 0 10530.20165088 0 816.36250888 0 5407.53521190 0 6028
0.07550000 0.07549160 27791.20312506 0 642.37088945 0 10733.24594340 0 1932.97324986 0 3415.14786706 0 6183
0.07650000 0.07648840 26887.59069661 0 675.61333025 0 10276.99972692 0 515.36689485 0 5583.45230862 0 6330
0.07750000 0.07749960 26354.12608685 0 657.57540589 0 10051.93258033 0 380.06640726 0 3477.99438273 0 6583
0.07850000 0.07848650 26195.90256519 0 294.96008977 0 9969.31089254 0 -915.38009527 0 3910.90013849 0 6549
0.07950000 0.07947320 25629.44242747 0 410.78103631 0 10391.38791462 0 -788.98507853 0 3524.70852114 0 6828
0.08050000 0.08048110 25540.86382892 0 732.08440129 0 11378.14243014 0 -654.70767376 0 3205.00621433 0 7147
0.08150000 0.08149960 24981.37925583 0 605.35832204 0 11190.57724771 0 -220.19310920 0 2071.26658685 0 7386
0.08250000 0.08250610 24894.24005951 0 804.58376974 0 10936.91028611 0 -264.43369025 0 1115.50350850 0 7227
0.08350000 0.08350160 23961.61814003 0 668.43624930 0 10974.25723773 0 155.23510119 0 61.34953736 0 7798
0.08450000 0.08449610 23426.93557454 0 517.25251176 0 10354.48385600 0 1428.62885438 0 -218.37281900 0 7371
0.08550000 0.08548940 23139.49802225 0 -80.47996801 0 8473.71661766 0 2333.44816623 0 -1031.57528638 0 8256
0.08650000 0.08650700 22414.15002338 0 328.48819656 0 7446.60347818 0 1829.93419510 0 -1954.83001906 0 8037
0.08750000 0.08749060 22598.06133862 0 623.19473009 0 7547.00731964 0 -18.71300401 0 -2358.06194430 0 8155
0.08850000 0.08849210 21374.01582991 0 829.65815652 0 6666.83500283 0 -7.40654381 0 -1175.21655625 0 8718
0.08950000 0.08949900 21538.32913022 0 247.77205586 0 7533.65409591 0 -110.59314837 0 -25.71492078 0 8571
0.09050000 0.09049190 20719.75215638 0 -168.40784603 0 7176.39446331 0 380.50376409 0 -980.64148498 0 8932
0.09150000 0.09150830 21175.15687617 0 424.45425023 0 8100.23602920 0 -237.84903836 0 -1734.20287472 0 9285
0.09250000 0.09250820 20477.71113585 0 943.44954591 0 7815.22331604 0 -640.72222028 0 -786.89573084 0 9204
0.09350000 0.09350330 19843.15620049 0 837.36781629 0 7564.68982237 0 -601.62916304 0 -1403.40609844 0 9349
0.09450000 0.09448040 18992.02659168 0 479.46266716 0 7494.08160700 0 877.66000631 0 -1276.96014901 0 9564
0.09550000 0.09549270 19003.54180949 0 43.19856456 0 7510.86725143 0 897.73080951 0 -1902.82330938 0 10155
0.09650000 0.09649430 18560.09520050 0 189.76746783 0 6997.15566914 0 1211.17946726 0 -2105.15897312 0 9913
0.09750000 0.09749140 18649.78103154 0 212.99831254 0 6944.19673954 0 934.31266347 0 -2017.13399081 0 10476
0.09850000 0.09850240 18403.53252757 0 394.46596569 0 6586.70458812 0 252.22091597 0 -682.13714403 0 10575
0.09950000 0.09950330 17850.02700988 0 322.46706632 0 6401.71925737 0 244.59983480 0 -187.74344686 0 10882
0.10050000 0.10051200 17944.25249409 0 94.33122491 0 6753.50916151 0 1280.78010107 0 1109.31407893 0 10875
0.10150000 0.10150300 17656.59349530 0 242.16613781 0 6554.60591847 0 709.85006582 0 276.27332718 0 11118
0.10250000 0.10250800 17155.57079726 0 876.37450940 0 6184.90099277 0 410.66145520 0 1480.62449172 0 11575
0.10350000 0.10349800 16954.94027154 0 578.88217894 0 6171.39275649 0 -131.25908903 0 1368.41755201 0 11364
0.10450000 0.10450100 16173.67703234 0 285.64272844 0 6762.65490181 0 -358.29932390 0 1315.80186447 0 12093
0.10550000 0.10551000 16254.72645001 0 237.12933725 0 6165.44691807 0 -66.20796276 0 986.42788193 0 12067
0.10650000 0.10649700 15959.09537736 0 20.82084248 0 6504.01646637 0 -143.71766891 0 843.29704623 0 12054
0.10750000 0.10749900 15905.83749498 0 92.40851570 0 6282.96857369 0 212.62296072 0 706.66677244 0 12807
0.10850000 0.10850100 15998.62357696 0 -137.18721174 0 6160.81868629 0 163.28135964 0 -488.82763949 0 12736
0.10950000 0.10950300 15910.70931790 0 313.49737599 0 5985.46627814 0 104.60822464 0 -204.51359003 0 12933
0.11050000 0.11050200 15397.94995555 0 465.40302910 0 5758.19573891 0 -386.33555757 0 -556.72756421 0 13428
0.11150000 0.11150900 15334.83770408 0 231.83676598 0 5951.20850515 0 227.92380639 0 -225.19447832 0 13453
0.11250000 0.11250000 15175.72839644 0 41.65773983 0 5623.96594514 0 -243.42616837 0 -623.68301962 0 13668
0.11350000 0.11349100 14931.14074119 0 398.60369347 0 5843.27548282 0 617.47587432 0 -865.71628953 0 13791
0.11450000 0.11448600 14732.72468044 0 214.21516103 0 5757.02207248 0 210.20476498 0 -117.67002478 0 14205
0.11550000 0.11549300 14600.63184536 0 -166.44693730 0 5518.53526821 0 804.03458243 0 -3.36640749 0 14776
0.11650000 0.11649800 14954.83551630 0 -202.38106027 0 5862.08736268 0 896.30580130 0 196.70649380 0 14553
0.11750000 0.11747300 14733.49974318 0 468.66050706 0 5325.61108057 0 573.10463985 0 -383.46450375 0 14568
0.11850000 0.11849100 14152.64558319 0 661.46400636 0 4950.55822199 0 819.59894942 0 1366.61276307 0 16015
0.11950000 0.11950300 13898.42500536 0 238.23546250 0 4462.57872258 0 404.87948718 0 1756.17036716 0 15270
0.12050000 0.12050700 13590.50365215 0 -189.95126843 0 4466.02221560 0 955.21167657 0 1703.53253497 0 15999
0.12150000 0.12150000 13800.10276097 0 139.63087382 0 4391.17329983 0 631.44471932 0 1152.07539738 0 15670
0.12250000 0.12250700 13622.50267088 0 222.83385867 0 3924.91770171 0 -31.11024321 0 831.92798311 0 16887
0.12350000 0.12352200 13515.21184338 0 38.33559950 0 3896.19609113 0 -805.14181491 0 1458.98916903 0 16407
0.12450000 0.12449800 13555.40438248 0 -21.06830894 0 4185.82596374 0 105.54826501 0 1207.45916612 0 16306
0.12550000 0.12549900 13827.45140327 0 -96.51933774 0 4363.19353501 0 -201.10109952 0 807.40389087 0 17523
0.12650000 0.12650100 13882.14868787 0 181.36357330 0 4720.90713293 0 -189.06658967 0 447.34738902 0 17154
0.12750000 0.12750600 13531.37743762 0 328.10620135 0 4429.54997765 0 -12.20889896 0 438.70876120 0 18007
0.12850000 0.12850300 13316.02071990 0 189.55045027 0 4652.83447994 0 29.76085899 0 553.29071458 0 17496
0.12950000 0.12949900 13136.20616484 0 318.58621647 0 4552.25348129 0 379.51389825 0 289.64426663 0 18405
0.13050000 0.13049000 12728.19099527 0 266.53189580 0 4180.17907808 0 760.58677984 0 610.46155655 0 18100
0.13150000 0.13148800 12615.03183563 0 193.55198846 0 3703.96945996 0 643.67078038 0 327.23813109 0 19059
0.13250000 0.13249300 12292.60573691 0 234.25717619 0 3560.36140706 0 115.73458240 0 658.25856833 0 18957
0.13350000 0.13349100 12099.61511532 0 318.85859566 0 3062.87078063 0 310.62853662 0 346.61248505 0 19468
0.13450000 0.13450700 12039.38166831 0 138.31215994 0 3410.79644341 0 -156.58260312 0 985.19442495 0 19953
0.13550000 0.13551000 11671.00542159 0 261.76636720 0 3256.61432031 0 -20.08652590 0 578.37838816 0 19956
0.13650000 0.13649900 11624.61238060 0 97.60542208 0 3525.66074108 0 14.63207725 0 864.58691239 0 19723
0.13750000 0.13749600 11478.78986274 0 225.06382489 0 3531.28548209 0 472.15493278 0 772.21825706 0 20946
0.13850000 0.13851100 11316.58030415 0 119.50803070 0 3326.94572756 0 461.25644346 0 678.99260378 0 20955
0.13950000 0.13949800 11240.07053965 0 48.65212742 0 3095.23518608 0 354.49819479 0 366.97006146 0 20506
0.14050000 0.14048300 11211.28249512 0 -90.50186137 0 2817.61878590 0 -139.42492858 0 686.41438311 0 21447
0.14150000 0.14148400 11275.05908608 0 86.86172386 0 3195.26256849 0 -241.83839699 0 242.14731485 0 21771
0.14250000 0.14249400 11294.10348476 0 125.94880204 0 3255.25242436 0 -308.66098450 0 828.45238035 0 22470
0.14350000 0.14350900 11388.88258521 0 -29.26326871 0 3309.62861154 0 48.29050529 0 751.56837127 0 22519
0.14450000 0.14449900 11165.55379362 0 117.48290249 0 3286.29922315 0 36.54941206 0 631.37274920 0 22218
0.14550000 0.14550500 11271.07304914 0 325.15653402 0 3810.38557379 0 -20.92580812 0 362.59649316 0 23559
0.14650000 0.14650700 10850.62365880 0 365.09994580 0 3453.94529323 0 -1.01226626 0 1013.08893286 0 23044
0.14750000 0.14750500 10655.62894642 0 277.36284394 0 3684.05034761 0 274.93025418 0 1063.86993618 0 23649
0.14850000 0.14849900 10353.46520212 0 12.94321554 0 3346.13406647 0 443.64480360 0 922.32797909 0 23640
0.14950000 0.14949500 10328.53032663 0 -38.90482772 0 3021.15026072 0 708.24568595 0 270.77370344 0 24457
0.15050000 0.15050000 10170.14072010 0 110.83729313 0 2635.67834448 0 433.48926728 0 523.39322311 0 24591
0.15150000 0.15149900 10192.61753948 0 79.93476673 0 2302.94391136 0 334.54143654 0 246.18982065 0 25020
0.15250000 0.15250500 10117.09321189 0 69.07979165 0 2038.53679469 0 17.99197421 0 294.55152099 0 25297
0.15350000 0.15350100 9926.82638221 0 339.48190787 0 2312.49932767 0 -237.23895326 0 377.40683484 0 25452
0.15450000 0.15450400 9777.25034623 0 338.15212166 0 2253.62777661 0 -211.16252108 0 497.86819270 0 26061
0.15550000 0.15549900 9577.56096813 0 155.93265765 0 2537.09036429 0 134.74465688 0 865.29997011 0 26128
0.15650000 0.15649500 9599.38452035 0 196.83493277 0 2445.53331037 0 -63.24689094 0 432.97772587 0 26331
0.15750000 0.15749700 9268.73168429 0 145.73283203 0 2812.14905744 0 -76.15533938 0 583.51816134 0 27345
0.15850000 0.15849900 9368.71477740 0 176.47846359 0 2569.76479483 0 -137.24478782 0 509.61371487 0 26980
0.15950000 0.15949700 9090.75513515 0 14.50895300 0 2655.44244428 0 72.02192980 0 236.32105753 0 27777
0.16050000 0.16050000 9236.14583235 0 9.66788899 0 2492.52425690 0 -34.25101887 0 -13.08394479 0 28224
0.16150000 0.16150500 9197.10481504 0 4.14186883 0 2507.99229467 0 163.06987823 0 8.36917173 0 28075
0.16250000 0.16249700 9187.01792713 0 68.24416330 0 2460.65810607 0 82.36857445 0 -367.85252575 0 28590
0.16350000 0.16349900 9164.58539704 0 75.12218075 0 2244.44881934 0 193.27960927 0 -604.69066086 0 29163
0.16450000 0.16449100 8960.48923366 0 141.45891465 0 2323.21733810 0 -42.16618099 0 -433.52580595 0 28996
0.16550000 0.16550500 8863.38494500 0 269.59007192 0 2398.53129151 0 7.93870188 0 -476.07121406 0 30777
0.16650000 0.16650700 8800.16197029 0 163.98223780 0 2501.61463558 0 2.11224526 0 177.47497282 0 29211
0.16750000 0.16749900 8620.62422335 0 50.64248853 0 2645.74308774 0 172.42820717 0 -75.41371506 0 30922
0.16850000 0.16850800 8616.30601667 0 49.78704072 0 2657.90050039 0 1.55145415 0 320.69549435 0 30867
0.16950000 0.16949900 8560.59007819 0 123.19843656 0 2983.54864563 0 -80.40002582 0 36.00498585 0 30852
0.17050000 0.17049200 8471.85646709 0 203.93561467 0 2857.98848219 0 -33.83979273 0 333.38991475 0 31257
0.17150000 0.17149500 8302.13987227 0 149.48967184 0 2982.16460503 0 1.86025022 0 564.46047586 0 32608
0.17250000 0.17250900 8216.92726046 0 144.42076154 0 2887.88375920 0 -22.45866077 0 306.14867400 0 32361
0.17350000 0.17350400 8255.71361430 0 66.04054921 0 2812.92412018 0 179.79905380 0 282.73402871 0 32508
0.17450000 0.17449800 8062.87800526 0 59.69965023 0 2538.55191117 0 188.54840487 0 13.55883680 0 32791
0.17550000 0.17549800 8099.64919599 0 76.17560173 0 2431.85898922 0 78.01582212 0 -68.08505399 0 33633
0.17650000 0.17650100 7980.74349976 0 77.30774695 0 2351.31889849 0 25.35573456 0 -273.06013852 0 33984
0.17750000 0.17750300 7907.01288879 0 103.42392877 0 2302.04705304 0 164.19371920 0 -88.01169552 0 34069
0.17850000 0.17849800 7898.84151307 0 -4.77517260 0 2119.12117472 0 126.46477238 0 -204.19027814 0 34536
