### header ###
fiducial parameters:
Omega_m = 0.31
Omega_nu = 0
Omega_de = 0.69
Omega_k = 0
H_0 = 100
w_de = -1
zeff = 0
beta = 0
fgrowth = 0
b_1 = 2
gamma = 0.55
Lx = 3500 Ly = 3500 Lz = 3500
nx = 700 ny = 700 nz = 700
xoffset = -685.467585 yoffset = -31.7331281 zoffset = 572.489161
bins = 400 dk = 0.001
kx_ny = 0.628318531 ky_ny = 0.628318531 kz_ny = 0.628318531
############################
A(data) = 7.97891323 (not used)
A(ran) = 7.97414923 (used)
Ngal = 473624
weighted Ngal = 0
Nran = 23820508
weighted Nran = 0
SN(data) = 3487.49822
SN(ran) = 69.4577317
SN(data+ran) = 3556.95595
############################
13 columns: k_central k_mean P_0(k) sigma^{lin}_{P_0(k)} P^img_1(k) sigma^{lin}_{P_1(k)} P_2(k) sigma^{lin}_{P_2(k)} P^img_3(k) sigma^{lin}_{P_3(k)} P_4(k) sigma^{lin}_{P_4(k)} N_modes
### header ###
0.00050000 0 0 0 0 0 0 0 0 0 0 0 0
0.00150000 0.00179520 -2144.19999043 0 -3352.98783553 0 -1185.18164859 0 -7579.75925645 0 -130.43973699 0 3
0.00250000 0.00253879 14365.56638946 0 -25536.65634548 0 -24492.42539184 0 -12597.42683917 0 -12073.70587524 0 6
0.00350000 0.00331552 23461.59195122 0 -22423.89366922 0 -23876.80413192 0 6921.00021904 0 21926.63556161 0 7
0.00450000 0.00420575 37716.43509249 0 -12157.63409737 0 -18193.04763277 0 -21970.14979815 0 6592.17431658 0 24
0.00550000 0.00557378 35306.43287247 0 -3845.50698811 0 -16229.81371917 0 -2385.93098587 0 10161.16106467 0 45
0.00650000 0.00659388 39818.95885231 0 -13256.89450537 0 -12676.04034538 0 -4530.76209882 0 12605.62035953 0 40
0.00750000 0.00754703 48809.90805154 0 -5990.44882431 0 4847.27557608 0 -8009.01114502 0 836.17311244 0 57
0.00850000 0.00846663 54962.13461377 0 -188.62591115 0 16733.38305192 0 -14714.45534449 0 16751.76311112 0 75
0.00950000 0.00948925 55179.48434996 0 708.32540669 0 9429.81186575 0 -20964.33981162 0 -276.07402533 0 112
0.01050000 0.01054430 70365.17783874 0 3101.11459056 0 54706.69608021 0 -29187.20183819 0 29908.56380013 0 105
0.01150000 0.01145670 64097.68837514 0 574.84963824 0 42280.11521299 0 630.16143687 0 -4271.14929879 0 144
0.01250000 0.01249090 70668.78098527 0 1057.23097022 0 56329.45600563 0 -6867.86413224 0 -7447.52248114 0 169
0.01350000 0.01339930 72548.64029298 0 -7825.52057813 0 25642.72921725 0 17242.26710059 0 3119.52786673 0 180
0.01450000 0.01448870 79652.20100363 0 -7538.04980886 0 47348.91479172 0 21005.63958320 0 -22333.76494520 0 267
0.01550000 0.01550050 74470.46371175 0 -9269.84998909 0 12169.70293142 0 20984.60216604 0 -13398.17737005 0 238
0.01650000 0.01653350 87185.58936374 0 1061.54585520 0 18906.65896733 0 13497.71757017 0 -26925.12587774 0 315
0.01750000 0.01747870 82778.13974643 0 2628.51455032 0 708.14382057 0 -6311.60160567 0 -8444.77356058 0 297
0.01850000 0.01844180 78948.11186841 0 3055.78449275 0 10227.45107336 0 3791.28581348 0 -7579.09491696 0 388
0.01950000 0.01947590 83837.31833858 0 -964.51907281 0 192.85111030 0 -6933.61159701 0 2594.21248803 0 399
0.02050000 0.02045430 81312.60683343 0 4070.70700260 0 5240.28774552 0 -304.11579517 0 -9993.95788758 0 462
0.02150000 0.02154770 79215.17634303 0 2933.39101420 0 6265.11998608 0 -172.02296008 0 -9991.12337243 0 571
0.02250000 0.02255340 74894.64447555 0 4514.62972155 0 2973.19602193 0 -2074.59935662 0 -9734.69940196 0 510
0.02350000 0.02348930 70527.83029032 0 7019.00136601 0 10711.84313953 0 -3879.86441203 0 -7643.14831604 0 555
0.02450000 0.02439640 67971.34121295 0 3123.21495089 0 10013.54483019 0 -11101.00213993 0 -11646.64630699 0 592
0.02550000 0.02547300 62659.39338120 0 3590.83244496 0 17049.71937199 0 -5612.68324614 0 -16973.65250049 0 837
0.02650000 0.02652900 61643.28613259 0 1198.84489741 0 17046.84056754 0 -7183.17072610 0 -13861.99705670 0 723
0.02750000 0.02749970 59981.10873082 0 787.38844929 0 21290.75194728 0 3040.00642988 0 -8537.06138795 0 826
0.02850000 0.02848090 62810.64133822 0 -4058.56066227 0 15028.90936934 0 1765.20538421 0 -7684.08270089 0 831
0.02950000 0.02946900 65725.32012348 0 531.46384067 0 20466.19591803 0 9439.86553668 0 -10231.55890587 0 996
0.03050000 0.03053250 65120.32829539 0 2153.76647907 0 12466.21979007 0 5071.50122598 0 -8628.35270608 0 1041
0.03150000 0.03150510 62712.31909383 0 2107.60595690 0 13558.94752642 0 -522.18633970 0 -12267.36083632 0 1036
0.03250000 0.03246190 60924.36008212 0 4198.72522215 0 17923.10435369 0 -8073.30813524 0 -10172.67628248 0 1059
0.03350000 0.03345080 60397.09597426 0 961.48525581 0 22711.44194476 0 -477.71434707 0 -12966.57814862 0 1302
0.03450000 0.03451200 54544.92941461 0 3952.04489752 0 20772.01352953 0 -4031.82099784 0 -11770.98851470 0 1339
0.03550000 0.03553350 56484.68999959 0 3769.00829594 0 22183.07060441 0 2004.10186450 0 -7996.69871982 0 1365
0.03650000 0.03647120 51392.97070848 0 -464.07767182 0 20238.99181276 0 6455.42003274 0 -5855.83149916 0 1308
0.03750000 0.03744890 51437.37073101 0 1028.21151410 0 17553.95304423 0 7292.39921043 0 -7176.78199468 0 1579
0.03850000 0.03847530 50320.39460330 0 2307.17353944 0 17533.13707357 0 6065.69634377 0 -2725.66312828 0 1662
0.03950000 0.03950240 49212.82995169 0 1133.24137286 0 16075.02261821 0 1693.78888913 0 1544.58931220 0 1683
0.04050000 0.04050350 45849.50056478 0 807.20901795 0 14956.49636503 0 1492.56045788 0 5308.36039850 0 1822
0.04150000 0.04152450 49255.01550925 0 -89.59913473 0 17580.63734705 0 2384.33657110 0 1089.57433824 0 1887
0.04250000 0.04250150 46307.23047278 0 340.46180862 0 17956.98566763 0 3047.66847866 0 8631.77405445 0 1920
0.04350000 0.04349210 46218.43042774 0 1919.74182171 0 14506.84925414 0 3308.65424696 0 6082.99131514 0 2005
0.04450000 0.04448520 44937.91606246 0 765.37223862 0 12630.42236713 0 4492.99439886 0 8799.42012452 0 2151
0.04550000 0.04548030 43920.70158137 0 1400.70445118 0 9653.61676731 0 5600.24902537 0 3189.06206659 0 2274
0.04650000 0.04648670 40831.19078723 0 2440.13001586 0 9625.96917224 0 3020.54128285 0 7093.62883529 0 2311
0.04750000 0.04749250 38861.09203224 0 2301.84775120 0 7293.18534549 0 1661.64593018 0 6809.02579815 0 2568
0.04850000 0.04851840 37122.29414272 0 1574.48458921 0 8950.59057527 0 579.08590971 0 7670.25336719 0 2493
0.04950000 0.04949480 35107.68464197 0 1901.52784738 0 8481.96549965 0 153.81230745 0 8069.90893152 0 2644
0.05050000 0.05050630 34708.19516251 0 1205.58794323 0 11178.95130665 0 -930.46503060 0 11197.22064260 0 2829
0.05150000 0.05149060 34170.52306932 0 357.98486987 0 9902.66656945 0 1614.65498365 0 13247.04013628 0 2784
0.05250000 0.05249300 35449.15513938 0 -889.70005232 0 12195.39072500 0 404.04906282 0 10002.42821607 0 3055
0.05350000 0.05348950 34618.62005473 0 334.44178561 0 10138.92783643 0 -207.12887315 0 12003.50733589 0 3009
0.05450000 0.05448610 35508.28135391 0 1625.30656013 0 12759.96856750 0 -228.70551252 0 8608.71040185 0 3336
0.05550000 0.05550870 33360.69323208 0 858.19043035 0 10295.74517284 0 -846.50137704 0 8245.73744964 0 3349
0.05650000 0.05647670 33601.07340390 0 199.25645020 0 10329.69292073 0 1196.11003318 0 4596.64243149 0 3324
0.05750000 0.05747970 32875.28251204 0 -725.51408374 0 9839.64289659 0 98.72882016 0 2241.57001489 0 3639
0.05850000 0.05849280 34219.24129852 0 809.67925362 0 10961.16974979 0 -946.11686896 0 1246.67734063 0 3846
0.05950000 0.05951020 32865.53886620 0 578.69948558 0 11242.28500461 0 -1187.25217333 0 -520.61739128 0 3787
0.06050000 0.06049470 33441.74264976 0 -56.27165847 0 11266.42267272 0 1052.75996545 0 2569.29975719 0 3930
0.06150000 0.06148310 32613.31130683 0 472.04531676 0 12288.28753023 0 540.43353100 0 499.67298165 0 4083
0.06250000 0.06249100 32828.22513156 0 545.16694986 0 11865.87833840 0 1631.96102735 0 1924.23718558 0 4303
0.06350000 0.06350600 32297.52860300 0 794.50020352 0 11987.89535790 0 2082.74858769 0 3787.23334259 0 4470
0.06450000 0.06451750 31686.66844275 0 719.97792133 0 10873.01189959 0 2034.89399982 0 5082.57355080 0 4479
0.06550000 0.06550280 30336.61987762 0 415.76579694 0 9424.56358379 0 2679.81263121 0 4451.24066197 0 4636
0.06650000 0.06648880 30207.73801673 0 454.17126281 0 7599.68944112 0 3399.77948021 0 2308.92296676 0 4653
0.06750000 0.06749660 29723.76669890 0 -730.59738807 0 5715.77766253 0 767.32871842 0 737.10237890 0 5220
0.06850000 0.06852730 30124.14196435 0 -267.03125765 0 5692.37076786 0 147.74688792 0 -322.35745031 0 5029
0.06950000 0.06949320 30113.51253252 0 -108.48198820 0 5848.31339061 0 -1585.55691403 0 208.55609582 0 5040
0.07050000 0.07048030 30700.23502466 0 60.39621019 0 5833.62041558 0 -398.07997251 0 -1265.41171422 0 5475
0.07150000 0.07148790 29649.13922963 0 738.38898304 0 7858.11750239 0 -1262.15645073 0 -196.74856863 0 5509
0.07250000 0.07249820 30096.23970580 0 1079.86390938 0 7193.76694095 0 -1061.65990014 0 142.79423702 0 5916
0.07350000 0.07351270 28879.39120823 0 702.52572295 0 8855.95541505 0 1168.39600416 0 2969.96290308 0 5721
0.07450000 0.07449140 28500.93914593 0 545.22895488 0 8840.74204075 0 -292.23851233 0 2450.96982186 0 6028
0.07550000 0.07549160 28082.29454454 0 741.27775259 0 9113.65270288 0 840.20454591 0 -350.53540974 0 6183
0.07650000 0.07648840 26899.65953066 0 1652.38946664 0 9132.48672739 0 -1046.40334378 0 1927.59210000 0 6330
0.07750000 0.07749960 25961.50144878 0 928.04129870 0 9308.99065733 0 -1506.56694877 0 -692.58166803 0 6583
0.07850000 0.07848650 24881.39616272 0 388.05287515 0 9376.91937009 0 -738.48863396 0 -433.43833458 0 6549
0.07950000 0.07947320 25299.70859437 0 115.89402388 0 9408.74123162 0 -371.95260763 0 -3292.97583501 0 6828
0.08050000 0.08048110 24610.45637441 0 348.83691511 0 9071.51143462 0 -20.02485305 0 -3317.32387729 0 7147
0.08150000 0.08149960 24641.56960715 0 -96.69505553 0 9036.07999520 0 563.66548294 0 -3286.16635525 0 7386
0.08250000 0.08250610 24441.38197442 0 356.71598145 0 8117.11025222 0 895.22292793 0 -3016.17878687 0 7227
0.08350000 0.08350160 24701.47088441 0 473.65634002 0 8927.44941640 0 154.74791890 0 -3457.92025784 0 7798
0.08450000 0.08449610 23629.78056522 0 856.02689808 0 7697.23662278 0 7.32670127 0 -3512.51789152 0 7371
0.08550000 0.08548940 23006.51940118 0 886.70720292 0 8342.70887040 0 16.32603222 0 -1956.47979545 0 8256
0.08650000 0.08650700 21765.20106576 0 533.58861980 0 7326.84521294 0 1082.98962667 0 -1776.66524040 0 8037
0.08750000 0.08749060 22028.83311969 0 -140.48897900 0 6759.80931433 0 3029.46557666 0 -1318.86889845 0 8155
0.08850000 0.08849210 22055.96031550 0 -571.17251916 0 5480.24716899 0 2143.84567604 0 -1450.65170844 0 8718
0.08950000 0.08949900 21729.32673335 0 423.49760136 0 4749.58445421 0 2174.77067925 0 -833.87117611 0 8571
0.09050000 0.09049190 21440.33905558 0 677.11916642 0 4245.05182920 0 370.75458209 0 633.73226162 0 8932
0.09150000 0.09150830 20721.85589810 0 753.83376893 0 4324.72827859 0 593.60062032 0 1309.55707328 0 9285
0.09250000 0.09250820 19908.92580991 0 900.27855145 0 4916.72119734 0 -493.90872935 0 2400.74575648 0 9204
0.09350000 0.09350330 19761.99605957 0 487.46574354 0 4729.42175071 0 53.21071427 0 1520.37413782 0 9349
0.09450000 0.09448040 19313.01328817 0 52.59088553 0 5153.97897356 0 30.01829054 0 1810.08151670 0 9564
0.09550000 0.09549270 19006.53133719 0 84.38329468 0 5123.13147661 0 -857.24374657 0 695.64205861 0 10155
0.09650000 0.09649430 19193.10001039 0 439.55800851 0 5115.29227064 0 25.85941461 0 -113.86557397 0 9913
0.09750000 0.09749140 18209.54539675 0 687.90693250 0 4668.41324096 0 -418.63463630 0 -1174.69615698 0 10476
0.09850000 0.09850240 18077.34183841 0 739.32680895 0 4994.70358104 0 -383.65384050 0 -870.13193266 0 10575
0.09950000 0.09950330 17721.25587224 0 142.56061097 0 5415.14189906 0 351.99252768 0 -1282.75097489 0 10882
0.10050000 0.10051200 17585.06627697 0 102.23310024 0 5354.29947418 0 110.48109644 0 -938.50464565 0 10875
0.10150000 0.10150300 17197.86707807 0 231.18349882 0 5311.82603617 0 463.75214547 0 -468.58964418 0 11118
0.10250000 0.10250800 17100.98423590 0 268.30678947 0 5596.08583124 0 362.55995449 0 -1560.42273669 0 11575
0.10350000 0.10349800 16877.43399781 0 421.61309168 0 5319.77596539 0 -67.15232135 0 -553.05044513 0 11364
0.10450000 0.10450100 16392.57689401 0 700.50280921 0 5199.70767506 0 -503.22055452 0 -1274.23635710 0 12093
0.10550000 0.10551000 16267.45962356 0 274.84278281 0 5041.74988920 0 -525.25558814 0 -604.08611192 0 12067
0.10650000 0.10649700 15762.00799558 0 101.28619502 0 5049.84375864 0 259.68698460 0 -1775.85696069 0 12054
0.10750000 0.10749900 15900.07988607 0 73.90965046 0 5062.02331594 0 -65.37543466 0 -1838.00591990 0 12807
0.10850000 0.10850100 15767.87632774 0 243.31433789 0 5189.05609858 0 319.76431183 0 -1436.88880869 0 12736
0.10950000 0.10950300 15544.43681290 0 289.07736360 0 5294.80787293 0 838.51712361 0 -651.16674428 0 12933
0.11050000 0.11050200 15316.78981463 0 33.41871221 0 4732.23412122 0 1299.94629533 0 -12.78820300 0 13428
0.11150000 0.11150900 15297.41324619 0 19.90870436 0 4719.57845395 0 1333.72795835 0 35.00316190 0 13453
0.11250000 0.11250000 15346.35292189 0 185.68731614 0 4596.49849126 0 818.55040026 0 1310.19926812 0 13668
0.11350000 0.11349100 15204.62716421 0 93.51740903 0 4499.02881589 0 -309.74164341 0 699.34353680 0 13791
0.11450000 0.11448600 14852.85940472 0 522.99351218 0 4549.36360451 0 -416.29062514 0 1230.69997592 0 14205
0.11550000 0.11549300 14695.30022256 0 439.36977899 0 4808.84353664 0 -855.45999505 0 510.44303200 0 14776
0.11650000 0.11649800 14280.42021160 0 162.56940915 0 4950.41428177 0 -436.34592708 0 389.59746446 0 14553
0.11750000 0.11747300 14403.98735658 0 -129.38897337 0 4893.60218312 0 66.09458216 0 -183.58468166 0 14568
0.11850000 0.11849100 14355.82274362 0 29.89428050 0 4661.50411027 0 -23.20737137 0 -753.40084103 0 16015
0.11950000 0.11950300 14661.52963186 0 35.43520401 0 5133.66125752 0 -400.82701629 0 -664.04053635 0 15270
0.12050000 0.12050700 14263.81172437 0 80.36714102 0 5116.89775774 0 131.16054534 0 -331.30610322 0 15999
0.12150000 0.12150000 14493.89463410 0 393.49492280 0 5540.92350900 0 102.60269444 0 148.26507272 0 15670
0.12250000 0.12250700 14001.50834942 0 340.63896581 0 5162.41608507 0 318.10678481 0 367.22140324 0 16887
0.12350000 0.12352200 13816.26835520 0 332.40890678 0 5648.74580808 0 800.22459546 0 591.75486377 0 16407
0.12450000 0.12449800 13395.63073534 0 161.28944840 0 5009.46299002 0 572.81786663 0 743.44682102 0 16306
0.12550000 0.12549900 13234.97130222 0 159.12480890 0 4921.81446676 0 521.74233948 0 163.51498569 0 17523
0.12650000 0.12650100 13102.98919039 0 63.95396960 0 4813.56034701 0 512.83908309 0 363.93735170 0 17154
0.12750000 0.12750600 13203.63662299 0 -220.18314411 0 4206.18796908 0 43.84308458 0 167.42019465 0 18007
0.12850000 0.12850300 13098.22809071 0 103.80370951 0 3936.37755790 0 31.97200225 0 105.62444261 0 17496
0.12950000 0.12949900 13167.87301382 0 425.22820573 0 4330.61875539 0 -211.02633149 0 -145.12828310 0 18405
0.13050000 0.13049000 12940.00456906 0 219.31175215 0 4401.41520028 0 -182.90484091 0 501.02269804 0 18100
0.13150000 0.13148800 12721.54760038 0 218.72159724 0 4439.43756371 0 189.60249019 0 -55.23772478 0 19059
0.13250000 0.13249300 12661.86776961 0 37.01068511 0 3739.05765731 0 535.72890019 0 437.12320428 0 18957
0.13350000 0.13349100 12671.16852246 0 -24.09592544 0 3629.31984603 0 649.64872855 0 -92.58866243 0 19468
0.13450000 0.13450700 12434.66366433 0 81.46518347 0 3285.16984602 0 792.75299067 0 -50.94276998 0 19953
0.13550000 0.13551000 12600.30564362 0 -43.31814566 0 2916.23998306 0 408.40823710 0 -410.51197881 0 19956
0.13650000 0.13649900 12331.13742728 0 185.33853791 0 2872.29392585 0 -183.35659176 0 -837.24491349 0 19723
0.13750000 0.13749600 12270.68253377 0 256.37193055 0 2551.87191793 0 -408.97624736 0 -672.09233096 0 20946
0.13850000 0.13851100 12011.03651677 0 217.94764173 0 3009.65718755 0 -307.42863475 0 -747.25127183 0 20955
0.13950000 0.13949800 11889.13022052 0 317.41365727 0 3157.93776153 0 -680.89482919 0 -367.42845571 0 20506
0.14050000 0.14048300 11596.71012206 0 380.85475679 0 3629.18697813 0 130.63571714 0 -465.09632570 0 21447
0.14150000 0.14148400 11356.88356649 0 100.66393037 0 3504.65654090 0 489.52851765 0 -150.24148270 0 21771
0.14250000 0.14249400 11327.65262896 0 26.99975335 0 3246.25062428 0 693.12531918 0 -658.40915195 0 22470
0.14350000 0.14350900 11190.24507796 0 134.19768403 0 3279.85513010 0 430.51191913 0 -74.04772235 0 22519
0.14450000 0.14449900 11018.05935471 0 274.75974037 0 2839.15445767 0 329.94310004 0 -203.45175408 0 22218
0.14550000 0.14550500 10794.59769522 0 325.95706310 0 2882.56904329 0 -114.36825752 0 264.25985475 0 23559
0.14650000 0.14650700 10670.45478935 0 79.14553142 0 2542.39400788 0 144.48608826 0 77.19768804 0 23044
0.14750000 0.14750500 10585.08716500 0 40.91733347 0 2621.36182849 0 -23.67229829 0 -224.40502156 0 23649
0.14850000 0.14849900 10362.12376013 0 211.32528426 0 2588.58774703 0 35.06804572 0 -143.40985828 0 23640
0.14950000 0.14949500 10349.78919028 0 269.76390742 0 2783.10634944 0 -84.61725290 0 -364.07686299 0 24457
0.15050000 0.15050000 9980.53822990 0 399.62345459 0 2837.75934475 0 -33.16338440 0 148.56070379 0 24591
0.15150000 0.15149900 9762.10340588 0 292.32266200 0 2785.24330813 0 -8.36877312 0 100.59738569 0 25020
0.15250000 0.15250500 9705.26916259 0 -70.32952495 0 2703.85064839 0 269.92999229 0 378.50631669 0 25297
0.15350000 0.15350100 9667.22465451 0 -40.14182784 0 3034.69171397 0 57.20118014 0 56.68089160 0 25452
0.15450000 0.15450400 9886.23523942 0 35.07003874 0 2786.78236128 0 133.45583827 0 -78.55836603 0 26061
0.15550000 0.15549900 9740.40164924 0 8.71118477 0 2984.68909509 0 -166.68056335 0 99.64472287 0 26128
0.15650000 0.15649500 9634.36199445 0 292.37027300 0 2587.03762155 0 91.37923239 0 -39.64534480 0 26331
0.15750000 0.15749700 9504.89330034 0 28.46539698 0 2586.72759646 0 216.09634902 0 66.47270205 0 27345
0.15850000 0.15849900 9438.32648353 0 -63.82741293 0 2375.68908541 0 593.93721899 0 -203.43846729 0 26980
0.15950000 0.15949700 9486.43573487 0 66.39807458 0 2341.90742239 0 300.06110982 0 -84.23359684 0 27777
0.16050000 0.16050000 9358.02998395 0 195.49850316 0 2036.74307807 0 -233.01818304 0 -284.94185028 0 28224
0.16150000 0.16150500 9230.38822344 0 295.14942653 0 2510.08496406 0 -256.38853904 0 160.93845570 0 28075
0.16250000 0.16249700 9014.86542085 0 249.98319913 0 2524.88866234 0 -158.78599576 0 482.64153161 0 28590
0.16350000 0.16349900 8861.00439517 0 136.47969018 0 2579.61916392 0 5.48558403 0 374.22686315 0 29163
0.16450000 0.16449100 8708.42775916 0 151.66538367 0 2813.74347221 0 207.61162651 0 661.89693426 0 28996
0.16550000 0.16550500 8795.61124479 0 103.53288045 0 2821.04013427 0 170.06205135 0 400.73511600 0 30777
0.16650000 0.16650700 8606.98311918 0 10.46211793 0 2484.93971440 0 260.02136881 0 827.36507805 0 29211
0.16750000 0.16749900 8662.00150120 0 -21.16153792 0 2562.83351950 0 243.98642801 0 435.26526818 0 30922
0.16850000 0.16850800 8728.24722059 0 32.04674045 0 2519.78432060 0 79.52630867 0 834.13691191 0 30867
0.16950000 0.16949900 8627.37834149 0 143.36556898 0 2418.97080313 0 68.30716482 0 396.46119862 0 30852
0.17050000 0.17049200 8496.09378612 0 288.43627599 0 2216.01508920 0 14.44683725 0 904.74512728 0 31257
0.17150000 0.17149500 8257.25266745 0 166.34175022 0 2364.99321964 0 222.53933483 0 738.27715256 0 32608
0.17250000 0.17250900 8102.53907276 0 0.92366884 0 2063.03984951 0 433.26892801 0 537.07308042 0 32361
0.17350000 0.17350400 8148.23455729 0 26.19158436 0 1891.98350339 0 180.64276495 0 389.92520528 0 32508
0.17450000 0.17449800 8048.96009297 0 75.11454085 0 1729.24247320 0 195.15858279 0 518.94214853 0 32791
0.17550000 0.17549800 7958.11166783 0 132.10058571 0 1680.85641374 0 -61.30236925 0 529.31691689 0 33633
0.17650000 0.17650100 7868.73586189 0 103.85541727 0 1570.22174416 0 145.16925070 0 403.78554149 0 33984
0.17750000 0.17750300 7739.68791613 0 125.67420839 0 1448.49260510 0 38.18213707 0 323.56876264 0 34069
0.17850000 0.17849800 7620.37254389 0 210.23798196 0 1659.79685194 0 78.32761879 0 211.88554389 0 34536
