### header ###
fiducial parameters:
Omega_m = 0.31
Omega_nu = 0
Omega_de = 0.69
Omega_k = 0
H_0 = 100
w_de = -1
zeff = 0
beta = 0
fgrowth = 0
b_1 = 2
gamma = 0.55
Lx = 3500 Ly = 3500 Lz = 3500
nx = 700 ny = 700 nz = 700
xoffset = -685.467585 yoffset = -31.7331281 zoffset = 572.489161
bins = 400 dk = 0.001
kx_ny = 0.628318531 ky_ny = 0.628318531 kz_ny = 0.628318531
############################
A(data) = 8.0426147 (not used)
A(ran) = 8.03979838 (used)
Ngal = 477602
weighted Ngal = 0
Nran = 23820508
weighted Nran = 0
SN(data) = 3489.66414
SN(ran) = 70.0295597
SN(data+ran) = 3559.6937
############################
13 columns: k_central k_mean P_0(k) sigma^{lin}_{P_0(k)} P^img_1(k) sigma^{lin}_{P_1(k)} P_2(k) sigma^{lin}_{P_2(k)} P^img_3(k) sigma^{lin}_{P_3(k)} P_4(k) sigma^{lin}_{P_4(k)} N_modes
### header ###
0.00050000 0 0 0 0 0 0 0 0 0 0 0 0
0.00150000 0.00179520 683.34956360 0 -5534.97767057 0 6774.38049379 0 -23207.14992689 0 -3633.95915013 0 3
0.00250000 0.00253879 7525.05089952 0 -7809.29962227 0 2929.94752119 0 20252.27860254 0 24742.10631650 0 6
0.00350000 0.00331552 20350.71157018 0 -18681.55860376 0 5143.59313288 0 4067.03099076 0 -15307.71050827 0 7
0.00450000 0.00420575 33276.10067047 0 -17568.78995949 0 1370.89775277 0 58.34074381 0 -10714.54478678 0 24
0.00550000 0.00557378 52803.36344388 0 -13420.65418943 0 5431.51786746 0 3479.53343588 0 8188.42709638 0 45
0.00650000 0.00659388 59244.57768388 0 1526.71857994 0 15778.83792931 0 -11756.37304594 0 -7988.91487547 0 40
0.00750000 0.00754703 63468.22670920 0 9104.52910723 0 5864.42362322 0 16991.36822020 0 9291.58496271 0 57
0.00850000 0.00846663 57820.45526571 0 5901.18374162 0 29643.04945098 0 -3427.43814761 0 12876.22797810 0 75
0.00950000 0.00948925 58377.06103434 0 -838.81275468 0 2354.83989778 0 20922.26497731 0 350.02608279 0 112
0.01050000 0.01054430 61346.21565771 0 -10377.73573812 0 25300.04076411 0 2095.10530218 0 8208.78910172 0 105
0.01150000 0.01145670 72618.06376959 0 -1314.12994343 0 34328.63586773 0 4738.35711684 0 15549.19791257 0 144
0.01250000 0.01249090 71540.17294849 0 2409.27144659 0 29199.60284199 0 8406.69583553 0 27842.91088196 0 169
0.01350000 0.01339930 67837.03391290 0 2250.08463267 0 27634.64045212 0 10933.27856357 0 41953.81380059 0 180
0.01450000 0.01448870 73891.71329348 0 1705.51448112 0 32885.24760437 0 6699.02225108 0 10310.47136485 0 267
0.01550000 0.01550050 75220.17082522 0 311.53536003 0 39771.23713234 0 -791.24936896 0 -2332.77275442 0 238
0.01650000 0.01653350 71148.65554291 0 6169.08971293 0 38741.51092420 0 -17263.85813399 0 1227.15683198 0 315
0.01750000 0.01747870 72945.80458422 0 3752.34444709 0 46529.45203189 0 -14758.74464377 0 -3241.56703088 0 297
0.01850000 0.01844180 68911.82448304 0 -6181.61251230 0 38965.61477853 0 9076.19502802 0 -16339.31901163 0 388
0.01950000 0.01947590 74847.58709507 0 -1270.98109361 0 35766.82013843 0 15403.48611796 0 -32703.44003085 0 399
0.02050000 0.02045430 77320.14795032 0 1872.46299473 0 30594.38359939 0 12877.66738033 0 -36244.92312409 0 462
0.02150000 0.02154770 66418.55838038 0 8322.15863554 0 21550.95158052 0 17687.81745129 0 -23916.66450127 0 571
0.02250000 0.02255340 62686.63130026 0 6147.78655998 0 14377.52450026 0 11976.38014009 0 1744.41155820 0 510
0.02350000 0.02348930 58118.96514282 0 -3042.85201736 0 10840.79143436 0 21541.42938117 0 6268.76278095 0 555
0.02450000 0.02439640 59796.75452259 0 -6109.94135375 0 21319.20782206 0 12066.50886411 0 7758.98697829 0 592
0.02550000 0.02547300 65581.71207059 0 -2280.54459825 0 14477.72903987 0 1327.85962620 0 5626.65652007 0 837
0.02650000 0.02652900 66124.03454020 0 4837.35477304 0 21925.63905238 0 -5869.53903729 0 14578.93008871 0 723
0.02750000 0.02749970 64268.97724009 0 6624.50550505 0 25321.29962776 0 -11559.17494092 0 25176.80578888 0 826
0.02850000 0.02848090 59965.38602958 0 4870.53853053 0 28842.52036659 0 3289.85343942 0 17843.71578474 0 831
0.02950000 0.02946900 59247.12431859 0 186.34169054 0 26679.43099002 0 1682.07436947 0 8380.21083457 0 996
0.03050000 0.03053250 58193.03899586 0 -513.98063978 0 23126.54340221 0 2488.53821997 0 4901.05385773 0 1041
0.03150000 0.03150510 59414.87003959 0 -1206.62874176 0 18439.40685998 0 11998.63551297 0 2123.21793490 0 1036
0.03250000 0.03246190 56350.60414603 0 -339.20952868 0 12398.23571568 0 1912.66660615 0 -4138.74643861 0 1059
0.03350000 0.03345080 57322.64354186 0 1024.64843997 0 10919.96962914 0 2677.55387694 0 -5373.99714003 0 1302
0.03450000 0.03451200 54993.46929301 0 2471.92973274 0 11667.24083115 0 -2980.35981608 0 -9790.76965484 0 1339
0.03550000 0.03553350 53075.96408092 0 2181.91232876 0 12271.90048950 0 -3718.99460474 0 -3934.05236969 0 1365
0.03650000 0.03647120 52129.28030892 0 2126.65035559 0 12531.21433675 0 -2969.37606986 0 -6613.42210790 0 1308
0.03750000 0.03744890 51484.31738824 0 2022.71444252 0 18292.36638639 0 -381.74940063 0 -388.47473073 0 1579
0.03850000 0.03847530 49443.90937066 0 437.08555838 0 13676.53561599 0 4611.43505744 0 179.69718841 0 1662
0.03950000 0.03950240 49276.60654265 0 -236.00660351 0 15697.01344890 0 4133.59780757 0 3815.02487789 0 1683
0.04050000 0.04050350 51984.89719329 0 827.08494823 0 15235.07605746 0 4373.51294174 0 1547.37953806 0 1822
0.04150000 0.04152450 46525.35527171 0 3096.38670786 0 17056.91638312 0 -3001.88441553 0 -2678.81612197 0 1887
0.04250000 0.04250150 47189.58403758 0 5370.77509351 0 18317.50056373 0 -6735.72700785 0 5373.62068099 0 1920
0.04350000 0.04349210 41820.94590276 0 2788.86395835 0 21279.56889921 0 -6016.12554556 0 3320.95559983 0 2005
0.04450000 0.04448520 40150.90715037 0 2110.60655693 0 23913.45352707 0 928.37679014 0 4854.24006839 0 2151
0.04550000 0.04548030 40183.57050858 0 1036.90107462 0 22203.00078909 0 3788.94955294 0 -1001.54160531 0 2274
0.04650000 0.04648670 38494.93025049 0 -763.52758931 0 19222.22022466 0 5808.05441757 0 653.90825191 0 2311
0.04750000 0.04749250 38924.86862320 0 -314.60460847 0 18482.81037327 0 4973.33399414 0 -2388.48869290 0 2568
0.04850000 0.04851840 39817.07655709 0 198.33744724 0 16001.28093491 0 -728.13490303 0 -6700.97098024 0 2493
0.04950000 0.04949480 38194.75952466 0 1613.65847442 0 14699.06481299 0 -2253.55027034 0 -4928.31392143 0 2644
0.05050000 0.05050630 37628.52083343 0 1209.45218459 0 16042.58070649 0 -3238.22318879 0 -7551.28123702 0 2829
0.05150000 0.05149060 35786.41815335 0 590.02315217 0 17624.81592307 0 517.39423752 0 -4247.86419970 0 2784
0.05250000 0.05249300 36452.52921444 0 199.45464482 0 16310.53096710 0 2358.12837825 0 -9961.58240981 0 3055
0.05350000 0.05348950 36606.43452942 0 138.03535182 0 16435.86968405 0 3650.29082924 0 -6879.32398842 0 3009
0.05450000 0.05448610 36733.54481834 0 -292.10896613 0 15088.14630712 0 1363.27999330 0 -6335.59533355 0 3336
0.05550000 0.05550870 36435.36711097 0 789.48001145 0 15315.23968915 0 980.30599354 0 -5394.13769887 0 3349
0.05650000 0.05647670 36169.96348507 0 239.54974745 0 15251.79526794 0 -1281.95376750 0 -5143.57098823 0 3324
0.05750000 0.05747970 36222.77847446 0 1405.73128665 0 15643.42339678 0 314.73526190 0 -2070.21471599 0 3639
0.05850000 0.05849280 35807.67701701 0 1278.17810474 0 16030.29042594 0 -206.10800480 0 511.01104226 0 3846
0.05950000 0.05951020 33616.46393540 0 1168.59530601 0 15475.23478278 0 3738.27152225 0 -1365.00727597 0 3787
0.06050000 0.06049470 33582.36117495 0 659.42226967 0 14437.64722403 0 2276.78000781 0 -551.91663907 0 3930
0.06150000 0.06148310 33449.82544688 0 -235.03002446 0 13787.25886418 0 3928.72658145 0 -1820.61129761 0 4083
0.06250000 0.06249100 32005.10850454 0 691.44121858 0 13276.38179705 0 2929.47141122 0 1679.20663735 0 4303
0.06350000 0.06350600 32584.63398555 0 972.83660322 0 12943.10482000 0 235.09202948 0 2366.36618792 0 4470
0.06450000 0.06451750 31205.02231314 0 366.40980183 0 12705.27128290 0 627.63694681 0 3389.79224323 0 4479
0.06550000 0.06550280 31181.10609153 0 1521.00526034 0 13120.48346360 0 -153.70158420 0 3437.12643183 0 4636
0.06650000 0.06648880 29825.29991749 0 1248.80322700 0 14163.38573827 0 -1566.23570722 0 3133.30183880 0 4653
0.06750000 0.06749660 28728.03252796 0 1070.51665277 0 16571.83783282 0 -1378.62623549 0 1457.06258451 0 5220
0.06850000 0.06852730 28540.91023853 0 76.60122190 0 16414.94299014 0 -410.88622339 0 2364.87142407 0 5029
0.06950000 0.06949320 28649.97263799 0 -1306.55647325 0 16683.00397400 0 1483.35935595 0 898.51694457 0 5040
0.07050000 0.07048030 29764.62357749 0 -67.22130193 0 16831.04095682 0 1293.44684066 0 -1399.73008660 0 5475
0.07150000 0.07148790 28973.72741569 0 631.25095363 0 13798.33118900 0 1852.87605213 0 -830.73660096 0 5509
0.07250000 0.07249820 28830.67297903 0 415.23764705 0 12518.70260971 0 1560.53345994 0 -1229.02805487 0 5916
0.07350000 0.07351270 28368.07124811 0 256.62880848 0 10901.47884669 0 2514.80177444 0 -1120.33104213 0 5721
0.07450000 0.07449140 28258.67667890 0 587.64149510 0 11260.22217082 0 1358.07600063 0 -3000.47823028 0 6028
0.07550000 0.07549160 26700.57913042 0 1073.27587611 0 9646.58584105 0 1073.41760187 0 -1759.91281295 0 6183
0.07650000 0.07648840 25751.68089346 0 1101.50919717 0 9243.66394090 0 1209.97258386 0 494.96170744 0 6330
0.07750000 0.07749960 24953.69844378 0 747.03646872 0 9174.37333218 0 1565.80388655 0 901.32156444 0 6583
0.07850000 0.07848650 24704.23896562 0 -29.09674094 0 8704.15384178 0 2644.08223902 0 1236.04790880 0 6549
0.07950000 0.07947320 24950.26602309 0 -247.70451468 0 8498.71792710 0 733.96669651 0 1589.76439746 0 6828
0.08050000 0.08048110 24397.97846114 0 815.28074274 0 9379.51029410 0 -436.18648560 0 3350.67371964 0 7147
0.08150000 0.08149960 24146.08307151 0 893.53329117 0 9203.11708741 0 -872.58334538 0 3511.44387601 0 7386
0.08250000 0.08250610 23358.73005366 0 316.70835018 0 9288.14146969 0 359.64128967 0 3667.92904267 0 7227
0.08350000 0.08350160 23361.71958136 0 -139.76263449 0 9147.53401682 0 697.28740608 0 2329.12995955 0 7798
0.08450000 0.08449610 23474.32512476 0 -9.99597305 0 9484.03304039 0 525.43938873 0 929.97341938 0 7371
0.08550000 0.08548940 22447.80989083 0 704.51874142 0 7693.69347883 0 817.79083878 0 875.76663876 0 8256
0.08650000 0.08650700 22002.25954012 0 730.52320349 0 7591.38519751 0 633.56174782 0 636.28221803 0 8037
0.08750000 0.08749060 21731.54119831 0 173.19884098 0 6327.56789806 0 1281.15656012 0 294.34114682 0 8155
0.08850000 0.08849210 21051.25756145 0 353.51054341 0 6587.95576082 0 684.71256679 0 692.85183276 0 8718
0.08950000 0.08949900 20719.75215638 0 792.89028750 0 5133.16300290 0 902.86947545 0 178.26664405 0 8571
0.09050000 0.09049190 20094.05508088 0 450.75655783 0 5998.25481330 0 -514.57411639 0 400.57678175 0 8932
0.09150000 0.09150830 20023.85654153 0 664.09036181 0 6159.22427152 0 -448.85765413 0 1017.29973799 0 9285
0.09250000 0.09250820 19505.33957027 0 426.80933371 0 6925.06376225 0 -815.99047876 0 1986.54115734 0 9204
0.09350000 0.09350330 19194.42868936 0 381.73389938 0 6844.61225012 0 154.30281144 0 1412.00929482 0 9349
0.09450000 0.09448040 19160.32592892 0 428.32181328 0 6907.84629716 0 569.63014432 0 2387.37038810 0 9564
0.09550000 0.09549270 18606.48824149 0 320.83722011 0 6380.87006974 0 855.90842420 0 2344.38762315 0 10155
0.09650000 0.09649430 18384.70957538 0 174.78218342 0 6388.78678198 0 725.28045769 0 2517.33733682 0 9913
0.09750000 0.09749140 18484.91411499 0 83.69836066 0 6327.33537924 0 1189.10125157 0 1503.93173547 0 10476
0.09850000 0.09850240 17885.01555631 0 126.92648833 0 5891.57296368 0 71.76914863 0 2189.17577384 0 10575
0.09950000 0.09950330 17691.36059523 0 410.21081158 0 6032.88904534 0 199.30406120 0 1949.50423082 0 10882
0.10050000 0.10051200 17454.52356736 0 530.46511697 0 5529.54115908 0 88.38549720 0 2419.20332195 0 10875
0.10150000 0.10150300 16890.38861785 0 231.12924443 0 6095.30374034 0 190.79719404 0 1584.88150222 0 11118
0.10250000 0.10250800 16927.70235249 0 298.82876007 0 5544.14555552 0 -221.74655638 0 1445.53629437 0 11575
0.10350000 0.10349800 16703.93066791 0 85.15558933 0 5490.11261040 0 -28.20187565 0 1201.74584652 0 11364
0.10450000 0.10450100 16672.59598867 0 414.81579147 0 5826.02480075 0 -890.70874111 0 886.76367177 0 12093
0.10550000 0.10551000 16016.11785017 0 559.00624865 0 5800.04912673 0 -94.48369082 0 264.10152050 0 12067
0.10650000 0.10649700 15606.33110863 0 634.80849159 0 5798.15575918 0 299.45877535 0 659.90945196 0 12054
0.10750000 0.10749900 15300.29205065 0 110.45629444 0 5588.67844594 0 1049.44823310 0 833.87117611 0 12807
0.10850000 0.10850100 15090.02860234 0 -4.34775871 0 5120.44090168 0 958.48797748 0 321.48495111 0 12736
0.10950000 0.10950300 15078.18121478 0 104.16898551 0 4898.80617579 0 593.26623611 0 93.72756176 0 12933
0.11050000 0.11050200 14872.34669641 0 214.11440288 0 4527.44040137 0 -83.32378391 0 716.92749584 0 13428
0.11150000 0.11150900 14884.96914670 0 -53.81083428 0 4866.51927662 0 -229.51489947 0 1042.88898788 0 13453
0.11250000 0.11250000 14741.25037055 0 228.71326315 0 4623.81391659 0 419.02770383 0 915.20183084 0 13668
0.11350000 0.11349100 15092.02162081 0 5.20548743 0 5046.66600142 0 21.84625048 0 569.69325657 0 13791
0.11450000 0.11448600 14463.00284786 0 330.91857185 0 5170.21100174 0 349.87771364 0 633.77987262 0 14205
0.11550000 0.11549300 14322.16287617 0 495.55850575 0 4915.19321652 0 -153.43584841 0 500.16127117 0 14776
0.11650000 0.11649800 14038.04702132 0 178.54123770 0 4785.79095636 0 76.84824547 0 530.00229379 0 14553
0.11750000 0.11747300 13912.37613463 0 130.19393138 0 4722.09187168 0 83.84517969 0 1050.36834329 0 14568
0.11850000 0.11849100 13789.14115940 0 125.67642285 0 4318.52777669 0 -67.84943492 0 40.47410831 0 16015
0.11950000 0.11950300 13703.44136530 0 406.98433613 0 4610.30568031 0 24.70147088 0 879.08833621 0 15270
0.12050000 0.12050700 13556.73306145 0 252.47115051 0 4827.38968071 0 -236.19483303 0 79.45588868 0 15999
0.12150000 0.12150000 13150.04657087 0 227.16313768 0 4654.92714933 0 -13.82457260 0 781.88993279 0 15670
0.12250000 0.12250700 13260.76981905 0 -51.76300780 0 4600.94956584 0 390.08243229 0 326.92921322 0 16887
0.12350000 0.12352200 13250.02966398 0 -38.81890647 0 5019.74917978 0 420.59443779 0 389.19332461 0 16407
0.12450000 0.12449800 13333.51499311 0 -56.00647629 0 4487.69075527 0 703.90754909 0 71.76471970 0 16306
0.12550000 0.12549900 13473.35845557 0 -110.29873525 0 4376.35852922 0 333.33676760 0 719.38444472 0 17523
0.12650000 0.12650100 13246.37579679 0 91.30482637 0 3847.84324865 0 496.85286052 0 880.13245644 0 17154
0.12750000 0.12750600 13433.83025597 0 193.75350477 0 4019.15425825 0 627.00582430 0 1064.76900895 0 18007
0.12850000 0.12850300 13111.29343400 0 119.91992118 0 3608.31564585 0 601.63912814 0 1443.08931059 0 17496
0.12950000 0.12949900 12853.75115872 0 325.52081351 0 3615.06976399 0 383.09025917 0 1111.74999039 0 18405
0.13050000 0.13049000 12725.53363732 0 323.06497186 0 3477.49612812 0 -262.49492617 0 1583.66354649 0 18100
0.13150000 0.13148800 12663.19644859 0 298.96937859 0 3748.46913340 0 -263.44050271 0 1161.21006536 0 19059
0.13250000 0.13249300 12152.87299770 0 133.38165370 0 3469.28046310 0 -238.17124301 0 1141.49025485 0 18957
0.13350000 0.13349100 12295.37381811 0 25.36437097 0 3623.45151388 0 82.18278084 0 650.88440000 0 19468
0.13450000 0.13450700 12018.01208141 0 104.40526892 0 3345.62473953 0 416.71690964 0 113.35513980 0 19953
0.13550000 0.13551000 12032.95971991 0 45.68551943 0 3008.28421928 0 454.65733787 0 -147.75685301 0 19956
0.13650000 0.13649900 11854.80601358 0 121.71917396 0 2857.34628735 0 -0.41458549 0 -47.65783265 0 19723
0.13750000 0.13749600 11810.95960730 0 260.27603228 0 3109.66242532 0 -102.41036816 0 -10.17640766 0 20946
0.13850000 0.13851100 11709.75855846 0 97.57729838 0 3051.44414142 0 -24.53937205 0 121.46008156 0 20955
0.13950000 0.13949800 11650.85379042 0 233.66480681 0 3066.13711645 0 -222.35885594 0 733.24256647 0 20506
0.14050000 0.14048300 11543.78440942 0 141.61946336 0 3384.56610591 0 9.42343421 0 496.31142383 0 21447
0.14150000 0.14148400 11376.70302791 0 25.24279684 0 3565.59861670 0 -15.40669709 0 608.15629852 0 21771
0.14250000 0.14249400 11389.87909445 0 322.63425843 0 3837.76743307 0 35.44217957 0 595.76525982 0 22470
0.14350000 0.14350900 11114.39965296 0 245.31510698 0 3697.10461857 0 317.42362237 0 519.99955555 0 22519
0.14450000 0.14449900 10819.25576259 0 210.84031643 0 3495.59937920 0 327.35217603 0 1172.27131785 0 22218
0.14550000 0.14550500 10797.85295872 0 155.81196931 0 3467.97392877 0 141.47552314 0 792.49279103 0 23559
0.14650000 0.14650700 10410.19979449 0 313.33239835 0 3657.46569572 0 481.06815426 0 1073.23269404 0 23044
0.14750000 0.14750500 10287.69559270 0 294.76964579 0 3306.88267499 0 143.43200293 0 1006.21634085 0 23649
0.14850000 0.14849900 10022.97845093 0 229.52818626 0 3173.32829302 0 102.02859440 0 1179.67870315 0 23640
0.14950000 0.14949500 9949.61322669 0 -23.45893459 0 2983.33827146 0 263.77599415 0 681.49937812 0 24457
0.15050000 0.15050000 9857.52470117 0 -44.64682464 0 2752.72389014 0 328.77496977 0 792.58247687 0 24591
0.15150000 0.15149900 9833.81885373 0 74.04395776 0 2736.39221103 0 262.90903112 0 430.03580917 0 25020
0.15250000 0.15250500 9826.10144333 0 193.19767406 0 2417.85249832 0 35.35636906 0 668.57243890 0 25297
0.15350000 0.15350100 9630.76348888 0 305.37582573 0 2284.66350308 0 196.02776029 0 788.33291860 0 25452
0.15450000 0.15450400 9518.73370637 0 128.82760650 0 2334.99829171 0 -7.75923057 0 683.84006759 0 26061
0.15550000 0.15549900 9372.01433020 0 144.53923542 0 2644.62478293 0 -104.76046910 0 1042.25454367 0 26128
0.15650000 0.15649500 9408.42013420 0 197.15492295 0 2881.97113775 0 -143.23491555 0 735.33966479 0 26331
0.15750000 0.15749700 9099.65728431 0 170.89247572 0 2929.80358096 0 -362.06391434 0 1061.09188988 0 27345
0.15850000 0.15849900 9073.85876748 0 153.25869121 0 3142.09326471 0 -99.09708568 0 855.53085792 0 26980
0.15950000 0.15949700 8993.27438745 0 137.93680813 0 3113.32736483 0 105.68899426 0 929.71100528 0 27777
0.16050000 0.16050000 8932.46517955 0 -26.03956134 0 2937.66493158 0 75.18174986 0 507.26195308 0 28224
0.16150000 0.16150500 8891.90725373 0 3.10907559 0 2625.10427428 0 333.24818900 0 455.77785714 0 28075
0.16250000 0.16249700 8861.55801141 0 85.03346159 0 2464.74379393 0 89.47501397 0 217.35637958 0 28590
0.16350000 0.16349900 8728.67904126 0 215.16848820 0 2349.44767559 0 170.05208626 0 -7.06801855 0 29163
0.16450000 0.16449100 8600.70511100 0 141.17878483 0 2428.60372572 0 117.27142108 0 334.45728687 0 28996
0.16550000 0.16550500 8511.11893090 0 -30.31004630 0 2241.97969090 0 16.11964409 0 78.64561595 0 30777
0.16650000 0.16650700 8591.20505631 0 -46.92152305 0 2555.40398955 0 -13.23297828 0 388.65853132 0 29211
0.16750000 0.16749900 8602.86421434 0 98.60647097 0 2627.66198131 0 38.01992752 0 161.47435623 0 30922
0.16850000 0.16850800 8497.03493373 0 176.23487244 0 2669.29392263 0 -77.53140791 0 439.87467700 0 30867
0.16950000 0.16949900 8384.08614825 0 215.15741588 0 2594.23463268 0 229.78506419 0 607.88281210 0 30852
0.17050000 0.17049200 8255.60289106 0 98.99987067 0 2291.58370609 0 367.97764302 0 498.55910577 0 31257
0.17150000 0.17149500 8246.39071681 0 -66.01585793 0 2263.22748223 0 427.49249616 0 560.32053361 0 32608
0.17250000 0.17250900 8312.32641110 0 -100.52940162 0 1925.07868227 0 300.56932953 0 323.75699216 0 32361
0.17350000 0.17350400 8167.67755967 0 59.54541275 0 1813.96790271 0 148.52859405 0 367.02985202 0 32508
0.17450000 0.17449800 8267.40598931 0 148.74450438 0 1631.28561553 0 6.31093727 0 631.99722832 0 32791
0.17550000 0.17549800 8047.80857118 0 165.17029825 0 1684.07846027 0 -6.85827550 0 619.94389553 0 33633
0.17650000 0.17650100 7939.74268095 0 167.34379561 0 1729.53035365 0 129.08337720 0 555.64911977 0 33984
0.17750000 0.17750300 7884.39212919 0 72.88302450 0 1692.47128248 0 74.91734274 0 465.81491959 0 34069
0.17850000 0.17849800 7822.07708511 0 77.90277368 0 1780.21945667 0 24.09658978 0 435.03385659 0 34536
