### header ###
fiducial parameters:
Omega_m = 0.31
Omega_nu = 0
Omega_de = 0.69
Omega_k = 0
H_0 = 100
w_de = -1
zeff = 0
beta = 0
fgrowth = 0
b_1 = 2
gamma = 0.55
Lx = 3500 Ly = 3500 Lz = 3500
nx = 700 ny = 700 nz = 700
xoffset = -685.467585 yoffset = -31.7331281 zoffset = 572.489161
bins = 400 dk = 0.001
kx_ny = 0.628318531 ky_ny = 0.628318531 kz_ny = 0.628318531
############################
A(data) = 8.03992719 (not used)
A(ran) = 8.03769228 (used)
Ngal = 478062
weighted Ngal = 0
Nran = 23820508
weighted Nran = 0
SN(data) = 3492.18263
SN(ran) = 70.0112148
SN(data+ran) = 3562.19385
############################
13 columns: k_central k_mean P_0(k) sigma^{lin}_{P_0(k)} P^img_1(k) sigma^{lin}_{P_1(k)} P_2(k) sigma^{lin}_{P_2(k)} P^img_3(k) sigma^{lin}_{P_3(k)} P_4(k) sigma^{lin}_{P_4(k)} N_modes
### header ###
0.00050000 0 0 0 0 0 0 0 0 0 0 0 0
0.00150000 0.00179520 261791.83354711 0 -157799.45161790 0 202778.55672869 0 247558.35999274 0 -375499.07327220 0 3
0.00250000 0.00253879 402959.54605492 0 -60328.22611388 0 167753.47162986 0 -100624.06999613 0 240922.71572893 0 6
0.00350000 0.00331552 315203.62123978 0 114921.87375769 0 75117.97326714 0 -163269.18007831 0 214723.38074304 0 7
0.00450000 0.00420575 186554.27917193 0 182709.96799489 0 14176.78325130 0 -8045.72697412 0 173041.61396325 0 24
0.00550000 0.00557378 59249.67095330 0 41730.37428575 0 50476.95727624 0 76767.08532563 0 5096.44717380 0 45
0.00650000 0.00659388 56227.81206379 0 -17777.39255907 0 76614.06579664 0 131441.78238711 0 -33136.36793126 0 40
0.00750000 0.00754703 63251.31986601 0 -28609.89082215 0 23171.93993397 0 50275.88385753 0 -5963.83095544 0 57
0.00850000 0.00846663 80286.97738548 0 -19679.72868617 0 722.35736394 0 33917.18827747 0 10718.88513811 0 75
0.00950000 0.00948925 99393.93470878 0 -18686.98404293 0 -23046.71194027 0 -25199.61477801 0 -2707.48237093 0 112
0.01050000 0.01054430 99013.71107450 0 4742.16599658 0 12402.99681535 0 -60640.57639702 0 4583.76531772 0 105
0.01150000 0.01145670 105810.45766443 0 15544.32608965 0 37714.44207402 0 -49374.59661729 0 9533.51526000 0 144
0.01250000 0.01249090 76173.38726886 0 25612.05887750 0 43790.49104151 0 -31471.97606452 0 23216.78284948 0 169
0.01350000 0.01339930 71517.14251287 0 24352.80337588 0 41946.39534296 0 2934.07749834 0 16782.54417412 0 180
0.01450000 0.01448870 67183.65602535 0 -2067.25840527 0 51445.67497462 0 31880.54485033 0 20536.61590388 0 267
0.01550000 0.01550050 72770.30823584 0 -10835.54315240 0 47560.06402601 0 45806.53994448 0 14692.75358785 0 238
0.01650000 0.01653350 77395.77192883 0 -3233.00812380 0 43649.09745357 0 33730.06598804 0 8650.13196899 0 315
0.01750000 0.01747870 79220.60178220 0 4476.72915370 0 45972.51409352 0 26559.84988198 0 15888.01105202 0 297
0.01850000 0.01844180 72001.77817018 0 10680.96242561 0 32556.51028051 0 6901.78973548 0 12980.41855464 0 388
0.01950000 0.01947590 65253.30691647 0 8748.39885176 0 34997.18284028 0 2986.92570470 0 32624.05146190 0 399
0.02050000 0.02045430 64381.69350674 0 -2015.17418932 0 36354.98203279 0 11949.47439078 0 21353.31058250 0 462
0.02150000 0.02154770 65232.04805281 0 -6316.04160792 0 24553.76607133 0 8905.07224794 0 10531.33102801 0 571
0.02250000 0.02255340 65388.38927925 0 342.07172464 0 24867.44503345 0 3717.80986598 0 -2053.99376013 0 510
0.02350000 0.02348930 65234.81613402 0 7106.01876676 0 18686.09825694 0 -2182.63202988 0 -3219.03484988 0 555
0.02450000 0.02439640 62053.51576713 0 5062.10082221 0 10223.95221872 0 387.27116902 0 -328.52805693 0 592
0.02550000 0.02547300 59977.23341713 0 -1926.56237379 0 9249.64299630 0 -1054.91131817 0 -8323.42088057 0 837
0.02650000 0.02652900 60381.92688925 0 -992.02604936 0 9295.07274503 0 4475.92087399 0 -9079.39492989 0 723
0.02750000 0.02749970 57440.78524768 0 2769.90813826 0 9281.73059362 0 5419.64833526 0 -11232.98425176 0 826
0.02850000 0.02848090 58564.40477027 0 2130.48137998 0 6915.66335848 0 -1991.59013745 0 -3490.28466328 0 831
0.02950000 0.02946900 57504.34039214 0 -1630.32232327 0 2180.98225348 0 6939.25848267 0 -3510.46951143 0 996
0.03050000 0.03053250 58108.88932723 0 -1259.47694812 0 2801.13209425 0 940.18321009 0 2919.78312700 0 1041
0.03150000 0.03150510 56349.16474381 0 1094.86026611 0 3126.33734649 0 1854.41510528 0 3822.28832297 0 1036
0.03250000 0.03246190 59731.09563641 0 -4264.95986922 0 5638.93572829 0 -1287.81102733 0 -9039.60099449 0 1059
0.03350000 0.03345080 59097.31576379 0 2029.88930900 0 3662.92435185 0 -6492.37945299 0 -1193.67412172 0 1302
0.03450000 0.03451200 57459.60819987 0 4494.86562175 0 6372.99764679 0 -7171.98767803 0 -5116.69845589 0 1339
0.03550000 0.03553350 53636.00227025 0 4049.61422382 0 9472.78355837 0 -4926.32090296 0 -2849.56244300 0 1365
0.03650000 0.03647120 52743.68361311 0 1536.87190180 0 9833.55311794 0 -337.28294416 0 -7891.22375360 0 1308
0.03750000 0.03744890 51151.92619718 0 167.00830417 0 12506.19088266 0 1229.47094786 0 -11508.13152351 0 1579
0.03850000 0.03847530 50619.56881990 0 1813.22605695 0 11555.41035048 0 -1153.72517378 0 -12806.36160849 0 1662
0.03950000 0.03950240 47943.94152748 0 5369.34676361 0 17203.73541022 0 -6359.19045774 0 -12401.44668988 0 1683
0.04050000 0.04050350 44832.17536044 0 3101.39139868 0 17004.87645648 0 -5157.54426215 0 -3721.80697524 0 1822
0.04150000 0.04152450 43558.63655980 0 1751.73036491 0 22891.58866956 0 814.27316119 0 -3581.24381167 0 1887
0.04250000 0.04250150 44928.61530961 0 -1283.47067600 0 23713.26589435 0 1775.59122489 0 -828.75465482 0 1920
0.04350000 0.04349210 47419.77767056 0 -3210.30985792 0 21150.24414533 0 7142.65708959 0 -5681.37594932 0 2005
0.04450000 0.04448520 45752.94989236 0 1479.68334411 0 19305.48410730 0 6733.00321595 0 58.34351189 0 2151
0.04550000 0.04548030 45255.69178476 0 1658.66747481 0 14312.41923033 0 5789.33111630 0 -1375.35989967 0 2274
0.04650000 0.04648670 41915.72500321 0 2467.94369580 0 15928.53576086 0 3421.75804498 0 2325.09963332 0 2311
0.04750000 0.04749250 40361.28132192 0 2418.33968061 0 13141.96377375 0 943.13287742 0 5208.37730539 0 2568
0.04850000 0.04851840 38585.05897452 0 1341.61145363 0 16325.58932885 0 1276.18508627 0 195.34459785 0 2493
0.04950000 0.04949480 36124.23478357 0 1375.30453805 0 13621.50616164 0 -1334.89055246 0 3797.94028069 0 2644
0.05050000 0.05050630 38326.07729701 0 -142.83852632 0 14607.82885649 0 44.97855149 0 3665.53742051 0 2829
0.05150000 0.05149060 35982.73047239 0 450.76430846 0 14230.70547317 0 -1560.59989389 0 820.63089010 0 2784
0.05250000 0.05249300 37821.51145502 0 168.88838492 0 15536.68618552 0 2215.35074971 0 -1042.84691304 0 3055
0.05350000 0.05348950 36305.48874085 0 332.99131106 0 13143.84606897 0 2036.84272899 0 -2206.74755333 0 3009
0.05450000 0.05448610 35410.84489551 0 614.76647644 0 11834.54365916 0 2549.20348765 0 -3525.62752410 0 3336
0.05550000 0.05550870 35325.58799440 0 1161.67510300 0 11872.63245654 0 1828.36192498 0 -3787.98626068 0 3349
0.05650000 0.05647670 33645.47342642 0 954.36021479 0 10164.32774957 0 1870.08244489 0 -2085.31736704 0 3324
0.05750000 0.05747970 32981.02321405 0 1193.71841102 0 8274.64728974 0 627.33245788 0 -1871.11217110 0 3639
0.05850000 0.05849280 32327.97749625 0 76.41099936 0 10469.69139574 0 -628.33561051 0 -1200.88220518 0 3846
0.05950000 0.05951020 32229.87669836 0 159.97959237 0 9952.24843999 0 -596.11182359 0 -2455.62019828 0 3787
0.06050000 0.06049470 33319.83635350 0 136.02018870 0 11231.76629603 0 -946.55201133 0 -4289.69544286 0 3930
0.06150000 0.06148310 32645.42104880 0 -145.80590937 0 11210.50743238 0 -1623.84501325 0 -1369.43620589 0 4083
0.06250000 0.06249100 32637.11680519 0 503.74981165 0 11257.12191987 0 809.91398690 0 -639.54633938 0 4303
0.06350000 0.06350600 32608.88237690 0 449.53417317 0 9749.01591795 0 1182.07032531 0 -2394.61168853 0 4470
0.06450000 0.06451750 32890.23015054 0 -636.09952467 0 7832.92796343 0 3505.26551876 0 -1763.19022110 0 4479
0.06550000 0.06550280 32093.90854958 0 -331.41350477 0 9993.94681526 0 2176.30973240 0 -3862.28156021 0 4636
0.06650000 0.06648880 32034.22871881 0 640.26382603 0 6448.47768508 0 1263.44084041 0 -2903.34072465 0 4653
0.06750000 0.06749660 31621.23100308 0 801.11148867 0 8716.84272603 0 -954.32035442 0 -1860.95884924 0 5220
0.06850000 0.06852730 31013.36037053 0 661.83714371 0 8044.26542724 0 -727.59789527 0 -1055.63212651 0 5029
0.06950000 0.06949320 30674.99012407 0 940.42569401 0 9705.85599580 0 -53.92144680 0 -543.24700874 0 5040
0.07050000 0.07048030 29998.80324740 0 1159.20597456 0 8899.90147225 0 -353.93350622 0 -927.99811663 0 5475
0.07150000 0.07148790 29433.56106541 0 822.35928000 0 10391.98582016 0 416.18875975 0 -267.93033043 0 5509
0.07250000 0.07249820 28730.80060917 0 592.18889890 0 10504.83495472 0 251.81788335 0 -552.31635000 0 5916
0.07350000 0.07351270 27694.65245264 0 1065.82863044 0 10918.35306972 0 384.25285327 0 -927.43453530 0 5721
0.07450000 0.07449140 27493.35758744 0 681.71971739 0 9930.31416453 0 -888.90616663 0 -2668.77352336 0 6028
0.07550000 0.07549160 26447.68723156 0 1001.93135114 0 10412.22602993 0 -323.50011423 0 -2354.29735386 0 6183
0.07650000 0.07648840 26140.65166434 0 331.71135031 0 10161.98041671 0 -915.25829969 0 -3520.26851889 0 6330
0.07750000 0.07749960 25487.27377679 0 732.48854115 0 10216.81056921 0 -310.58314009 0 -3710.65714415 0 6583
0.07850000 0.07848650 25284.98240236 0 400.77054744 0 10139.48145268 0 1115.07168784 0 -4928.28070445 0 6549
0.07950000 0.07947320 25051.35634868 0 -195.19622869 0 9274.40071459 0 605.89532980 0 -6388.13351482 0 6828
0.08050000 0.08048110 24339.51658609 0 773.84588881 0 9977.55977453 0 -114.86097597 0 -4916.24508738 0 7147
0.08150000 0.08149960 23969.92238365 0 1522.81004928 0 9544.11147485 0 -201.71229185 0 -4631.78599046 0 7386
0.08250000 0.08250610 23331.93502760 0 53.56879326 0 9586.46311728 0 1006.26505908 0 -3534.79540905 0 7227
0.08350000 0.08350160 22768.57514082 0 -364.91835968 0 9356.85631752 0 506.19125927 0 -3686.25374025 0 7798
0.08450000 0.08449610 23522.48973772 0 215.03008414 0 10162.78869642 0 279.57177274 0 -3098.68975142 0 7371
0.08550000 0.08548940 22912.40464022 0 273.30151520 0 8681.83203495 0 902.63917110 0 -3824.71316210 0 8256
0.08650000 0.08650700 22413.70713039 0 676.61094672 0 8908.71504281 0 796.29724184 0 -2531.22203214 0 8037
0.08750000 0.08749060 21687.36262228 0 913.47122647 0 8500.81059649 0 1083.50338255 0 -1146.91569401 0 8155
0.08850000 0.08849210 21163.19876537 0 866.60096828 0 8199.21154076 0 1476.88204594 0 -882.69459240 0 8718
0.08950000 0.08949900 20306.64371740 0 277.08935752 0 7076.53316577 0 2283.86629569 0 78.21368456 0 8571
0.09050000 0.09049190 20129.15435055 0 -192.77914018 0 6543.50037667 0 1783.65187736 0 -330.32509524 0 8932
0.09150000 0.09150830 20213.63618892 0 418.02233674 0 6413.09053496 0 510.70987503 0 701.36202161 0 9285
0.09250000 0.09250820 19749.48433252 0 524.86584231 0 6517.89008937 0 275.36428931 0 1067.08976823 0 9204
0.09350000 0.09350330 19396.16644756 0 320.99666158 0 6259.87170412 0 -504.50272973 0 1262.21181235 0 9349
0.09450000 0.09448040 19089.02015709 0 306.94477416 0 6806.00305347 0 -324.58409483 0 2213.78955192 0 9564
0.09550000 0.09549270 19052.37076194 0 523.38547248 0 6402.69362196 0 623.89892995 0 883.52280230 0 10155
0.09650000 0.09649430 18505.95153214 0 540.63836901 0 6336.00500957 0 574.45546347 0 1709.96555569 0 9913
0.09750000 0.09749140 18029.17722545 0 607.73997911 0 5784.76931848 0 291.59853196 0 1581.10583945 0 10476
0.09850000 0.09850240 17423.52105787 0 330.50225244 0 5939.43862387 0 762.05164841 0 1717.83797864 0 10575
0.09950000 0.09950330 17034.55028699 0 521.19093770 0 5474.79958518 0 581.83295350 0 848.76234576 0 10882
0.10050000 0.10051200 16799.48483109 0 155.10223329 0 6131.98635246 0 89.17838638 0 2261.48912723 0 10875
0.10150000 0.10150300 16422.58289426 0 205.67729137 0 5474.30133056 0 853.80468249 0 2058.45590703 0 11118
0.10250000 0.10250800 16618.78449005 0 306.44873401 0 5948.98296786 0 -134.81662699 0 2119.73015258 0 11575
0.10350000 0.10349800 16125.51241938 0 474.79346778 0 5235.80345397 0 -158.91111303 0 2565.15870771 0 11364
0.10450000 0.10450100 15989.21210086 0 378.70229684 0 5993.53800293 0 138.05196030 0 2719.90551938 0 12093
0.10550000 0.10551000 15721.26184025 0 -0.57095661 0 5404.63426280 0 395.19452466 0 2765.15811091 0 12067
0.10650000 0.10649700 15784.26336847 0 -159.15138248 0 5917.51542073 0 186.96949135 0 992.39586501 0 12054
0.10750000 0.10749900 15937.72579046 0 32.29055304 0 5960.50925800 0 48.49290739 0 2029.76751343 0 12807
0.10850000 0.10850100 15718.93665204 0 169.46968198 0 5967.51803961 0 -192.21445162 0 2132.38581985 0 12736
0.10950000 0.10950300 15915.80258731 0 -23.92386151 0 5674.81006070 0 230.38739866 0 1851.43664990 0 12933
0.11050000 0.11050200 15752.04290325 0 24.55620198 0 6117.53696858 0 240.48425167 0 1286.53770998 0 13428
0.11150000 0.11150900 15830.43496296 0 319.15311950 0 6387.38059673 0 -232.36823757 0 876.23167641 0 13453
0.11250000 0.11250000 15249.13790998 0 428.56208273 0 6074.01165971 0 85.77054625 0 2014.52092215 0 13668
0.11350000 0.11349100 15222.67505367 0 180.53536340 0 5859.82860842 0 652.02152776 0 1508.43817167 0 13791
0.11450000 0.11448600 15001.33928054 0 -176.13189982 0 5334.32500020 0 602.56698896 0 1561.98393449 0 14205
0.11550000 0.11549300 15249.24863323 0 204.42944036 0 5434.37452727 0 843.99903163 0 1374.06443767 0 14776
0.11650000 0.11649800 14941.99161952 0 318.31715898 0 4831.39786229 0 -160.21986182 0 1549.28397792 0 14553
0.11750000 0.11747300 14652.00743251 0 203.26906072 0 4754.19054133 0 534.77778749 0 1367.56498300 0 14568
0.11850000 0.11849100 14649.57152105 0 33.75741463 0 4658.93533092 0 227.80754698 0 1909.02381128 0 16015
0.11950000 0.11950300 14366.78434519 0 145.57228332 0 4835.68285200 0 341.67754988 0 1168.94962040 0 15270
0.12050000 0.12050700 14450.26967432 0 336.69721818 0 5007.92393688 0 251.79906040 0 1086.72321460 0 15999
0.12150000 0.12150000 13978.58863704 0 144.13066663 0 4425.54179606 0 653.75545382 0 1159.33884246 0 15670
0.12250000 0.12250700 13941.71779540 0 -38.14581985 0 4046.64684077 0 401.96303682 0 794.75043807 0 16887
0.12350000 0.12352200 13895.76764740 0 172.03292517 0 4110.25734685 0 416.59732853 0 479.39401874 0 16407
0.12450000 0.12449800 13674.65332077 0 291.29182856 0 3733.26683143 0 400.21803843 0 482.59724231 0 16306
0.12550000 0.12549900 13430.39783527 0 361.84246784 0 3803.81968517 0 95.91844267 0 1214.25757356 0 17523
0.12650000 0.12650100 13297.52993745 0 49.43848393 0 3240.09441168 0 166.83446867 0 939.41589798 0 17154
0.12750000 0.12750600 13210.16929463 0 22.54613214 0 3447.85551458 0 310.44141434 0 888.06024101 0 18007
0.12850000 0.12850300 13502.03577685 0 -12.71324336 0 3585.17448698 0 2.19362685 0 874.21097713 0 17496
0.12950000 0.12949900 13268.29899993 0 -150.91357281 0 3287.66111910 0 63.07704147 0 731.19972254 0 18405
0.13050000 0.13049000 13385.33347326 0 65.40067956 0 3298.04695978 0 -181.82528924 0 570.01324676 0 18100
0.13150000 0.13148800 13088.15227513 0 556.22820236 0 3461.35267853 0 -757.44334682 0 -461.95178546 0 19059
0.13250000 0.13249300 12737.38102487 0 614.57824692 0 3948.57925985 0 -518.99418846 0 -193.35600831 0 18957
0.13350000 0.13349100 12221.18924183 0 315.20251401 0 3673.91917040 0 -195.31580980 0 -514.58408148 0 19468
0.13450000 0.13450700 12169.92437792 0 40.69699421 0 3814.23874283 0 -42.44431779 0 -272.08577393 0 19953
0.13550000 0.13551000 12268.91096180 0 -27.16273797 0 3805.92342689 0 194.58392913 0 -1064.84762246 0 19956
0.13650000 0.13649900 12118.21662102 0 28.43683039 0 3646.74768529 0 517.48945951 0 -177.44729201 0 19723
0.13750000 0.13749600 11956.78212516 0 385.90373690 0 3699.82841048 0 185.05730086 0 -137.08423911 0 20946
0.13850000 0.13851100 11693.37151772 0 400.00434256 0 3265.45003552 0 156.89373545 0 -135.40788914 0 20955
0.13950000 0.13949800 11258.78276859 0 373.86147643 0 3697.71359644 0 178.83243984 0 -97.38774017 0 20506
0.14050000 0.14048300 11053.03682881 0 255.33666818 0 3463.15746748 0 299.11110435 0 -77.59463088 0 21447
0.14150000 0.14148400 10843.02804398 0 57.73110160 0 3301.26900630 0 162.13537402 0 -168.85959688 0 21771
0.14250000 0.14249400 10660.14645495 0 142.31812706 0 3166.14235422 0 236.31441414 0 -215.99559086 0 22470
0.14350000 0.14350900 10550.69652412 0 265.24861336 0 3012.00452042 0 -42.10196151 0 -261.77522506 0 22519
0.14450000 0.14449900 10547.64056247 0 174.19202851 0 3046.63875245 0 127.31734139 0 -488.28398834 0 22218
0.14550000 0.14550500 10310.44922020 0 26.33020987 0 3010.34367169 0 69.41417586 0 -247.77648479 0 23559
0.14650000 0.14650700 10269.82486044 0 284.18782496 0 3088.76894838 0 -44.86018834 0 -388.80911494 0 23044
0.14750000 0.14750500 10195.86173065 0 241.64463131 0 3048.28852885 0 139.72720305 0 -236.10514720 0 23649
0.14850000 0.14849900 9985.01144913 0 -39.75307852 0 3077.37552615 0 295.28007996 0 -40.28853615 0 23640
0.14950000 0.14949500 10090.38676443 0 -66.94017560 0 2897.19558437 0 259.67701951 0 -474.41257981 0 24457
0.15050000 0.15050000 10185.53125160 0 98.11098443 0 2858.33172426 0 152.96859630 0 -224.57774983 0 24591
0.15150000 0.15149900 10020.73076900 0 256.22023970 0 2990.45777632 0 -115.68697140 0 16.79992772 0 25020
0.15250000 0.15250500 9920.12762569 0 115.25293627 0 2857.22449178 0 129.79975662 0 549.57262791 0 25297
0.15350000 0.15350100 9759.26889073 0 179.37830546 0 3014.59544442 0 337.90299435 0 725.37900138 0 25452
0.15450000 0.15450400 9695.86875882 0 96.25393411 0 2996.48112102 0 192.68613266 0 766.79946129 0 26061
0.15550000 0.15549900 9757.28694459 0 -16.37220382 0 3149.68887954 0 241.37889551 0 915.21954656 0 26128
0.15650000 0.15649500 9508.72432473 0 66.91028033 0 2916.29534468 0 86.07625314 0 1062.93875366 0 26331
0.15750000 0.15749700 9525.65390938 0 234.61924121 0 2934.86363340 0 88.87378673 0 782.40701036 0 27345
0.15850000 0.15849900 9353.35746288 0 263.52133068 0 3074.55208332 0 -68.94227338 0 735.83016878 0 26980
0.15950000 0.15949700 8956.25960558 0 308.27456037 0 2820.26507153 0 -373.68874816 0 676.44043291 0 27777
0.16050000 0.16050000 8765.41701501 0 169.63576685 0 2832.27854396 0 37.14333156 0 283.62202916 0 28224
0.16150000 0.16150500 8818.63060808 0 -89.95278478 0 2794.20081891 0 31.86316130 0 -149.46974166 0 28075
0.16250000 0.16249700 8698.62875170 0 -11.28701720 0 2642.81999399 0 174.49098128 0 -222.87814797 0 28590
0.16350000 0.16349900 8818.46452321 0 -30.64542702 0 2463.13830683 0 290.48576331 0 -432.08308203 0 29163
0.16450000 0.16449100 8863.96070589 0 -43.54081012 0 2327.92307615 0 294.17063301 0 75.99578718 0 28996
0.16550000 0.16550500 8865.15651697 0 74.83596115 0 2297.70670172 0 349.62637187 0 17.71505537 0 30777
0.16650000 0.16650700 8781.83727271 0 170.67877985 0 2295.55867070 0 140.59970224 0 194.56510618 0 29211
0.16750000 0.16749900 8638.25136446 0 225.32513176 0 2487.56385538 0 77.28792749 0 358.95701999 0 30922
0.16850000 0.16850800 8566.96773728 0 178.04298308 0 2523.33853687 0 -368.59880045 0 713.16844157 0 30867
0.16950000 0.16949900 8625.37425070 0 53.48021466 0 2591.87622750 0 -247.74326782 0 575.71660127 0 30852
0.17050000 0.17049200 8598.74530951 0 -55.10098157 0 2712.77494219 0 -270.41385288 0 551.31541184 0 31257
0.17150000 0.17149500 8510.18885561 0 58.24784700 0 2727.84437627 0 127.68604981 0 276.19139197 0 32608
0.17250000 0.17250900 8522.74487196 0 105.35339210 0 2648.05720363 0 -83.62805140 0 129.55173654 0 32361
0.17350000 0.17350400 8333.96173380 0 181.77324932 0 2662.76125099 0 464.70879434 0 -107.21520351 0 32508
0.17450000 0.17449800 8213.27339327 0 147.74467345 0 2364.21815690 0 240.50086015 0 -217.14268372 0 32791
0.17550000 0.17549800 8111.54087284 0 84.78898466 0 2444.81360926 0 98.88338981 0 -362.24328600 0 33633
0.17650000 0.17650100 7944.90238432 0 205.61750081 0 2336.29375371 0 -40.47477265 0 -230.65091999 0 33984
0.17750000 0.17750300 7860.21017178 0 282.21030775 0 2461.70997693 0 -158.85907310 0 106.85679236 0 34069
