### header ###
fiducial parameters:
Omega_m = 0.31
Omega_nu = 0
Omega_de = 0.69
Omega_k = 0
H_0 = 100
w_de = -1
zeff = 0
beta = 0
fgrowth = 0
b_1 = 2
gamma = 0.55
Lx = 3500 Ly = 3500 Lz = 3500
nx = 700 ny = 700 nz = 700
xoffset = -685.467585 yoffset = -31.7331281 zoffset = 572.489161
bins = 400 dk = 0.001
kx_ny = 0.628318531 ky_ny = 0.628318531 kz_ny = 0.628318531
############################
A(data) = 8.10718563 (not used)
A(ran) = 8.10152335 (used)
Ngal = 481553
weighted Ngal = 0
Nran = 23820508
weighted Nran = 0
SN(data) = 3492.88836
SN(ran) = 70.5672065
SN(data+ran) = 3563.45557
############################
13 columns: k_central k_mean P_0(k) sigma^{lin}_{P_0(k)} P^img_1(k) sigma^{lin}_{P_1(k)} P_2(k) sigma^{lin}_{P_2(k)} P^img_3(k) sigma^{lin}_{P_3(k)} P_4(k) sigma^{lin}_{P_4(k)} N_modes
### header ###
0.00050000 0 0 0 0 0 0 0 0 0 0 0 0
0.00150000 0.00179520 26915.71440165 0 -22632.49626880 0 18760.39355647 0 6450.43748657 0 -44187.87677925 0 3
0.00250000 0.00253879 46229.61347580 0 -18024.19467928 0 16277.86760888 0 -36686.48743786 0 11642.66027005 0 6
0.00350000 0.00331552 49876.94799432 0 3824.45849863 0 -1739.55080761 0 1997.54704821 0 26819.93879197 0 7
0.00450000 0.00420575 44176.36156144 0 14962.80759017 0 -17.75546936 0 -6470.99879376 0 22267.10954979 0 24
0.00550000 0.00557378 47981.58743186 0 -6263.10482297 0 26017.08451937 0 7689.74065887 0 -7731.20651532 0 45
0.00650000 0.00659388 60417.35832867 0 -28651.30131697 0 33764.16874848 0 -1608.74236220 0 9785.51030055 0 40
0.00750000 0.00754703 79859.47492423 0 2070.43616249 0 68018.28787018 0 14259.27207120 0 16066.93982109 0 57
0.00850000 0.00846663 87010.31446186 0 958.97405254 0 70761.67779049 0 -7822.50890578 0 36186.90414204 0 75
0.00950000 0.00948925 93221.11362238 0 -2062.69660744 0 101414.96615792 0 34874.16931155 0 42171.82787627 0 112
0.01050000 0.01054430 88103.48509120 0 11507.02429103 0 89074.52797780 0 33186.41483944 0 37957.25815730 0 105
0.01150000 0.01145670 94564.18662288 0 13204.19023923 0 97590.80661206 0 57340.69143132 0 26566.60400012 0 144
0.01250000 0.01249090 75446.93203750 0 5387.67146118 0 74174.72191584 0 36854.78677511 0 27963.93139223 0 169
0.01350000 0.01339930 72885.12824421 0 3686.28695722 0 68151.26649125 0 24097.58628881 0 4968.07463985 0 180
0.01450000 0.01448870 70478.33699838 0 6180.29490565 0 47069.11714355 0 16071.70092076 0 6353.25569164 0 267
0.01550000 0.01550050 64293.66852443 0 -86.78012083 0 36076.95595660 0 1152.54043502 0 10419.60019826 0 238
0.01650000 0.01653350 62968.42196689 0 -3527.14443260 0 12339.33094764 0 10127.84443929 0 -2674.33183042 0 315
0.01750000 0.01747870 66573.68165109 0 -10007.42183456 0 12834.04242054 0 9866.38256102 0 -13185.47801028 0 297
0.01850000 0.01844180 73936.22403925 0 -4043.23656473 0 213.48549483 0 6227.03118871 0 -34178.71658969 0 388
0.01950000 0.01947590 72075.51985347 0 131.92896468 0 -1174.97296511 0 -2711.40197391 0 -18653.98851497 0 399
0.02050000 0.02045430 74707.19001637 0 2701.33723065 0 1927.48137675 0 -8917.53968569 0 -8490.76799788 0 462
0.02150000 0.02154770 75022.64055045 0 606.29836242 0 9314.30537324 0 -4910.55391242 0 -5674.52218026 0 571
0.02250000 0.02255340 71560.21385641 0 -316.09272892 0 5346.72600400 0 -5455.04655770 0 -2662.49551519 0 510
0.02350000 0.02348930 74707.19001637 0 3597.25439336 0 16922.16619008 0 140.73367737 0 2112.83209422 0 555
0.02450000 0.02439640 75632.72564796 0 5600.29331467 0 26434.28971853 0 2103.77493252 0 10368.03638158 0 592
0.02550000 0.02547300 69794.17804784 0 4699.61505230 0 19523.05528998 0 -2539.06123811 0 580.25736168 0 837
0.02650000 0.02652900 67318.18477190 0 873.93859794 0 30171.19934483 0 1670.43735609 0 3478.41513108 0 723
0.02750000 0.02749970 66239.07599507 0 1051.55972544 0 22471.94755893 0 -1528.97733421 0 203.60676663 0 826
0.02850000 0.02848090 67543.72802845 0 1312.73483050 0 25372.34304518 0 4438.82858585 0 3136.26922186 0 831
0.02950000 0.02946900 67303.01568689 0 2162.04857804 0 23423.50315385 0 1953.37954451 0 1.64587894 0 996
0.03050000 0.03053250 63142.81108278 0 4811.51196692 0 27242.34798380 0 913.15012905 0 308.51261535 0 1041
0.03150000 0.03150510 61858.86429681 0 3094.39368939 0 26086.06510299 0 3197.04521279 0 3976.41508445 0 1036
0.03250000 0.03246190 56078.00350900 0 2512.15548880 0 26066.02419506 0 7862.31391350 0 1172.88029571 0 1059
0.03350000 0.03345080 57063.77258760 0 -469.09122050 0 20985.82012177 0 10720.32454034 0 1148.76477226 0 1302
0.03450000 0.03451200 57965.05982784 0 -2244.78098908 0 21034.20618123 0 2069.08533886 0 -10145.96983502 0 1339
0.03550000 0.03553350 57054.58255800 0 2556.64408992 0 15286.78381437 0 -1462.43266205 0 -4881.79908487 0 1365
0.03650000 0.03647120 55029.45434867 0 6021.20774265 0 19453.29964362 0 -9615.56118691 0 -5505.46992493 0 1308
0.03750000 0.03744890 49223.57010677 0 3790.47753377 0 16408.96393474 0 -1681.05571559 0 -7921.21868153 0 1579
0.03850000 0.03847530 44953.97093345 0 1029.83471692 0 16644.47228363 0 3932.19221912 0 -9501.91484497 0 1662
0.03950000 0.03950240 45420.66942455 0 1381.12858090 0 15605.11315290 0 6299.70992882 0 -15742.40998065 0 1683
0.04050000 0.04050350 44462.13826500 0 -591.05066391 0 13275.27456456 0 1921.61304460 0 -16744.56609999 0 1822
0.04150000 0.04152450 45533.49641446 0 -632.99041586 0 14980.52330988 0 1720.99359121 0 -10017.09904645 0 1887
0.04250000 0.04250150 44319.74816784 0 738.92709803 0 13457.85720082 0 -3060.53452010 0 -7356.14258441 0 1920
0.04350000 0.04349210 44982.64825473 0 460.56663762 0 14998.23902959 0 1379.08020081 0 -3296.72935313 0 2005
0.04450000 0.04448520 45373.27987433 0 -887.85872470 0 17042.96525385 0 4498.87380334 0 76.34356890 0 2151
0.04550000 0.04548030 46200.27181504 0 -77.63548776 0 13749.50223655 0 4210.06328277 0 597.14819319 0 2274
0.04650000 0.04648670 45681.09050429 0 1131.61374112 0 15559.60589790 0 2589.89428136 0 889.95360855 0 2311
0.04750000 0.04749250 43690.28650190 0 3279.34580316 0 15579.20391283 0 429.93394378 0 172.47138924 0 2568
0.04850000 0.04851840 40737.51891926 0 3312.80636876 0 15219.35335622 0 -2095.08315753 0 3769.57298451 0 2493
0.04950000 0.04949480 38471.78909162 0 2249.90747547 0 16005.70986484 0 -207.16319736 0 4704.83011729 0 2644
0.05050000 0.05050630 37283.50719208 0 1282.26379260 0 15037.54578270 0 1945.35210901 0 4476.78451532 0 2829
0.05150000 0.05149060 36300.06330169 0 -22.87940911 0 15425.52004435 0 4170.41328759 0 2791.74276280 0 2784
0.05250000 0.05249300 35798.59771065 0 -358.00258559 0 11854.80601358 0 2986.73747518 0 3671.61612684 0 3055
0.05350000 0.05348950 37214.30516197 0 -182.02791279 0 12872.13121792 0 2723.29365077 0 3163.64000881 0 3009
0.05450000 0.05448610 36155.90163255 0 800.57226645 0 11597.59590804 0 -1217.24710126 0 3904.81035984 0 3336
0.05550000 0.05550870 35663.62607112 0 1362.13954384 0 11659.93309677 0 924.33649881 0 5779.85320626 0 3349
0.05650000 0.05647670 35520.57163446 0 -247.32805564 0 13998.85099146 0 2723.37115704 0 6870.06752488 0 3324
0.05750000 0.05747970 34837.63063964 0 -481.99933677 0 11461.62775927 0 816.47212489 0 2944.04259068 0 3639
0.05850000 0.05849280 35148.65224380 0 1660.11794936 0 14975.20859397 0 -567.31049227 0 2112.89852817 0 3846
0.05950000 0.05951020 33081.22775366 0 1888.60644432 0 13317.23867563 0 -2746.09156757 0 1104.64155786 0 3787
0.06050000 0.06049470 31880.10195734 0 1336.25244841 0 15062.34779029 0 -1244.30786312 0 5129.70843756 0 3930
0.06150000 0.06148310 31462.56458842 0 1174.66294001 0 15121.69545132 0 -689.91102329 0 2914.84487013 0 4083
0.06250000 0.06249100 32025.81375195 0 -387.39960799 0 14580.48021419 0 1928.84327271 0 3291.73573463 0 4303
0.06350000 0.06350600 31025.09703484 0 -627.38117611 0 13123.69443780 0 2361.01825503 0 85.84373432 0 4470
0.06450000 0.06451750 32244.82433686 0 -212.71043209 0 12044.47493772 0 3178.96410636 0 -652.16878968 0 4479
0.06550000 0.06550280 32031.46063761 0 -317.65060502 0 10675.35982925 0 1049.60767458 0 -780.35973750 0 4636
0.06650000 0.06648880 31653.89436129 0 154.31388376 0 9124.13819448 0 1115.76924430 0 -1585.65656495 0 4653
0.06750000 0.06749660 31316.52062407 0 850.38444135 0 9761.23976455 0 -470.89268775 0 -1583.17636419 0 5220
0.06850000 0.06852730 30936.62915954 0 1102.57767651 0 9511.93529893 0 -1688.36344997 0 -3002.39374247 0 5029
0.06950000 0.06949320 30020.72645054 0 321.76729539 0 10056.99263278 0 -121.91404688 0 295.39966107 0 5040
0.07050000 0.07048030 29590.01301509 0 862.85741526 0 9376.53183872 0 1592.70963586 0 -1390.88329907 0 5475
0.07150000 0.07148790 29463.56706567 0 69.15508346 0 8861.20369701 0 1218.97438393 0 -915.28044434 0 5509
0.07250000 0.07249820 29494.90174490 0 -244.68952063 0 8911.41669006 0 2250.41680242 0 -1258.48043889 0 5916
0.07350000 0.07351270 29113.57087815 0 946.91739805 0 8960.48923366 0 -318.52199699 0 -1101.83583075 0 5721
0.07450000 0.07449140 28954.68301700 0 784.46314108 0 9298.50516572 0 -631.28859954 0 -780.17925860 0 6028
0.07550000 0.07549160 28340.05826632 0 524.43734334 0 10377.53643628 0 -630.85677887 0 1051.36706699 0 6183
0.07650000 0.07648840 28649.64046825 0 301.25138474 0 10719.50518830 0 -873.54553040 0 2987.15822352 0 6330
0.07750000 0.07749960 28462.40745556 0 -59.86728523 0 12042.26047276 0 1791.07033499 0 4875.05603905 0 6583
0.07850000 0.07848650 28270.19189671 0 73.82085041 0 12147.55828179 0 2120.46092602 0 4052.23836480 0 6549
0.07950000 0.07947320 27981.97928168 0 582.03336258 0 12180.77525624 0 1485.36344675 0 4404.10577522 0 6828
0.08050000 0.08048110 27428.69521050 0 941.21072184 0 10814.28428875 0 938.44264063 0 4611.76722719 0 7147
0.08150000 0.08149960 26048.86209160 0 1021.85710689 0 10247.63592150 0 636.85797892 0 4625.85122436 0 7386
0.08250000 0.08250610 25253.31555338 0 911.31655206 0 10011.47430545 0 88.48902344 0 4982.77868721 0 7227
0.08350000 0.08350160 24776.65196993 0 288.71308411 0 9110.64103053 0 2396.78186419 0 5638.41532902 0 7798
0.08450000 0.08449610 23771.39559965 0 488.02157424 0 7613.39697925 0 1767.92917612 0 3585.49558440 0 7371
0.08550000 0.08548940 24025.50545424 0 504.33885933 0 7851.57375842 0 1318.53672870 0 3569.55143666 0 8256
0.08650000 0.08650700 22317.93152070 0 1309.14739726 0 7587.06699083 0 30.55828782 0 4006.35465075 0 8037
0.08750000 0.08749060 22024.18274327 0 1287.56743619 0 8047.09994240 0 -381.77375975 0 5523.69497158 0 8155
0.08850000 0.08849210 21085.69249164 0 130.52056496 0 8166.49282092 0 -499.87228350 0 4152.36539814 0 8718
0.08950000 0.08949900 21160.54140741 0 382.93524662 0 8632.94772088 0 188.95808089 0 5077.48028139 0 8571
0.09050000 0.09049190 20781.09283588 0 649.62769113 0 7895.91841932 0 490.70550578 0 3528.12986951 0 8932
0.09150000 0.09150830 20278.74145885 0 228.24047488 0 7352.06796888 0 411.78197447 0 4078.08117093 0 9285
0.09250000 0.09250820 19811.04645851 0 -97.43391177 0 6808.91507490 0 1555.07480380 0 2632.33450238 0 9204
0.09350000 0.09350330 20078.99671913 0 -11.88614069 0 6568.59026471 0 38.42606039 0 1614.73248993 0 9349
0.09450000 0.09448040 19978.90290277 0 403.05033912 0 6640.07319374 0 -626.18425779 0 114.06709028 0 9564
0.09550000 0.09549270 19193.21073363 0 1069.05178419 0 6746.55574152 0 -1016.64425636 0 152.24335902 0 10155
0.09650000 0.09649430 18559.65230751 0 626.70797876 0 7203.03447682 0 -1225.59563418 0 781.07058075 0 9913
0.09750000 0.09749140 18372.86218782 0 -6.12370425 0 7365.05580589 0 266.41452916 0 -375.37174154 0 10476
0.09850000 0.09850240 18183.52543342 0 149.50295863 0 7988.93702012 0 591.20456923 0 -919.39713471 0 10575
0.09950000 0.09950330 18078.33834764 0 740.05979686 0 7591.37412519 0 518.84692654 0 -894.50654852 0 10882
0.10050000 0.10051200 16962.58017567 0 792.28020240 0 7155.33490150 0 325.40787579 0 310.41151906 0 10875
0.10150000 0.10150300 16828.16215237 0 598.05944552 0 7439.46182867 0 116.07782447 0 505.84469550 0 11118
0.10250000 0.10250800 16293.92247987 0 213.28176405 0 6759.26677041 0 541.14215979 0 871.30892079 0 11575
0.10350000 0.10349800 16358.58485681 0 -197.10509749 0 7067.04418340 0 769.45128309 0 718.62045431 0 11364
0.10450000 0.10450100 16406.30657678 0 -84.94466154 0 6600.11317347 0 340.99106574 0 1079.24385919 0 12093
0.10550000 0.10551000 16366.33548419 0 90.92415984 0 6368.17011317 0 507.18776850 0 -106.85767815 0 12067
0.10650000 0.10649700 16603.39395855 0 -76.53689169 0 6764.23824426 0 -300.01460605 0 239.97935365 0 12054
0.10750000 0.10749900 16580.69569267 0 -255.79727689 0 5967.31873776 0 723.71150926 0 -218.37171177 0 12807
0.10850000 0.10850100 16677.35708834 0 2.27557312 0 5782.94238488 0 234.70117641 0 -769.07814574 0 12736
0.10950000 0.10950300 16789.18756901 0 128.02929188 0 5842.02431011 0 452.53698766 0 -1034.62792633 0 12933
0.11050000 0.11050200 16275.76386717 0 692.33586242 0 5412.42917947 0 411.02573469 0 -843.81633827 0 13428
0.11150000 0.11150900 15509.89115946 0 1036.76931395 0 5182.30198044 0 121.17884451 0 12.08710339 0 13453
0.11250000 0.11250000 14896.48436451 0 489.96033832 0 4817.95605996 0 976.67094930 0 871.09965385 0 13668
0.11350000 0.11349100 14540.39839834 0 144.77175424 0 4647.50869170 0 837.86939261 0 -125.54466219 0 13791
0.11450000 0.11448600 14320.50202744 0 -59.42649598 0 4655.11537885 0 40.65049045 0 918.49916917 0 14205
0.11550000 0.11549300 14605.17149853 0 3.36237717 0 4868.06940209 0 185.38282721 0 87.88735331 0 14776
0.11650000 0.11649800 14339.76787263 0 156.19285729 0 4795.60103615 0 -186.57310212 0 1225.23024746 0 14553
0.11750000 0.11747300 14599.85678262 0 68.75670121 0 4405.74447929 0 604.75377311 0 1015.79279458 0 14568
0.11850000 0.11849100 14326.59180609 0 -114.54652195 0 4206.27654768 0 563.20598146 0 846.85347696 0 16015
0.11950000 0.11950300 14422.69958552 0 158.19916254 0 4147.06175455 0 776.05038868 0 679.41556659 0 15270
0.12050000 0.12050700 14199.59224042 0 332.97580981 0 3661.82819170 0 234.24610386 0 919.84002770 0 15999
0.12150000 0.12150000 13907.39358846 0 233.52640275 0 3483.89593186 0 387.14826621 0 1379.96598680 0 15670
0.12250000 0.12250700 13876.28035572 0 -138.56682341 0 3349.99830783 0 292.08239255 0 1225.97209322 0 16887
0.12350000 0.12352200 14037.38268183 0 -43.78451199 0 3641.54369263 0 40.45827489 0 1075.88230137 0 16407
0.12450000 0.12449800 13985.23203194 0 358.50526914 0 3433.05181630 0 -485.02761761 0 779.53263483 0 16306
0.12550000 0.12549900 13586.29616872 0 426.16160271 0 3991.99384547 0 -277.70387154 0 1664.34757744 0 17523
0.12650000 0.12650100 13342.26212972 0 314.76072825 0 3673.24375859 0 60.26566748 0 1067.53155399 0 17154
0.12750000 0.12750600 13231.76032803 0 -148.12999035 0 4022.69740219 0 505.48816664 0 958.40161335 0 18007
0.12850000 0.12850300 13292.32594478 0 25.19795393 0 3613.81859128 0 332.45098161 0 208.94916335 0 17496
0.12950000 0.12949900 13114.61513145 0 203.61008832 0 3215.42527198 0 227.16424491 0 247.62368671 0 18405
0.13050000 0.13049000 12893.16863507 0 287.51062964 0 3033.67306009 0 176.74973555 0 659.29604516 0 18100
0.13150000 0.13148800 12767.27630188 0 177.40743164 0 2699.43279079 0 54.20600555 0 402.52551092 0 19059
0.13250000 0.13249300 12540.84725934 0 138.99310791 0 2482.40415202 0 187.92946191 0 132.63870070 0 18957
0.13350000 0.13349100 12479.50657985 0 148.22964128 0 3221.59255691 0 -234.62034844 0 -254.98678271 0 19468
0.13450000 0.13450700 12276.44014267 0 202.66340455 0 2977.82425370 0 -660.35234495 0 -228.24047488 0 19953
0.13550000 0.13551000 12268.68951530 0 357.14337319 0 3545.21446671 0 -205.01516634 0 185.28760521 0 19956
0.13650000 0.13649900 12075.03455422 0 226.15555612 0 3366.24140834 0 -213.42016811 0 631.40375171 0 19723
0.13750000 0.13749600 12110.02310065 0 -4.97575883 0 3910.66761967 0 198.12818030 0 642.41739321 0 20946
0.13850000 0.13851100 12044.58566097 0 8.42050302 0 3980.32361511 0 77.56252114 0 346.52944262 0 20955
0.13950000 0.13949800 11954.12476720 0 373.62231422 0 4489.89414791 0 87.69458414 0 120.34509845 0 20506
0.14050000 0.14048300 11615.64379750 0 426.08963260 0 4047.98659207 0 -123.40216734 0 686.63582961 0 21447
0.14150000 0.14148400 11388.77186196 0 154.17769417 0 4198.22696754 0 17.41732056 0 499.84903161 0 21771
0.14250000 0.14249400 11494.29111748 0 -139.96636526 0 4026.66129447 0 -20.43176099 0 137.37101233 0 22470
0.14350000 0.14350900 11499.93800314 0 7.94720543 0 4362.55134017 0 -316.44593608 0 -518.33538513 0 22519
0.14450000 0.14449900 11317.46609013 0 296.59657938 0 3824.39206469 0 -206.39588525 0 -656.90553024 0 22218
0.14550000 0.14550500 11319.45910860 0 240.52079034 0 4239.00633984 0 -287.17735266 0 -870.39102506 0 23559
0.14650000 0.14650700 10923.82279818 0 158.43057413 0 4091.48975629 0 65.81245932 0 -947.76996706 0 23044
0.14750000 0.14750500 10818.91252052 0 206.54425440 0 4105.54053648 0 820.68735895 0 -862.10117547 0 23649
0.14850000 0.14849900 10467.33299056 0 299.34473040 0 3679.95358743 0 723.06931442 0 -669.64534717 0 23640
0.14950000 0.14949500 10441.19123166 0 134.01941960 0 3390.88840339 0 794.40719600 0 -343.87762082 0 24457
0.15050000 0.15050000 10323.72493766 0 118.71857394 0 3080.94081474 0 544.11950794 0 -118.02544640 0 24591
0.15150000 0.15149900 10094.17349952 0 36.10795847 0 3057.06888243 0 92.59574872 0 -140.91083457 0 25020
0.15250000 0.15250500 10231.41496564 0 35.25882188 0 2999.12740665 0 127.57311210 0 314.32558588 0 25297
0.15350000 0.15350100 10151.29562326 0 84.82430537 0 2943.72149326 0 -59.64362427 0 546.50337947 0 25452
0.15450000 0.15450400 10072.78176797 0 60.78938844 0 3011.01908351 0 172.43374333 0 677.78350591 0 26061
0.15550000 0.15549900 10148.45003578 0 -142.82413230 0 3152.02514007 0 282.47050738 0 402.62959078 0 26128
0.15650000 0.15649500 10107.88103764 0 86.29703530 0 3082.56844649 0 100.60236824 0 304.16340616 0 26331
0.15750000 0.15749700 10058.83063870 0 315.92664405 0 3000.87683397 0 -91.90594288 0 195.90264302 0 27345
0.15850000 0.15849900 9750.13422275 0 243.59446771 0 3090.03119341 0 -160.81666013 0 373.23146115 0 26980
0.15950000 0.15949700 9641.38184838 0 188.44764672 0 3161.61377337 0 -313.15745561 0 191.49585774 0 27777
0.16050000 0.16050000 9474.11223735 0 224.64861271 0 3087.19667826 0 -23.66786936 0 144.44954958 0 28224
0.16150000 0.16150500 9248.66863172 0 200.22084970 0 3091.37094472 0 -92.03814644 0 -218.67066454 0 28075
0.16250000 0.16249700 9194.32566151 0 94.29070020 0 2940.04548142 0 56.12395366 0 -285.60951146 0 28590
0.16350000 0.16349900 9086.99054471 0 82.20647562 0 3112.04297515 0 27.56842795 0 -294.16620408 0 29163
0.16450000 0.16449100 9083.97887236 0 223.17931521 0 3009.10357131 0 -109.56873688 0 -606.96602361 0 28996
0.16550000 0.16550500 8814.91030695 0 197.10177579 0 3003.10237126 0 -41.64766402 0 -281.56257674 0 30777
0.16650000 0.16650700 8728.10328037 0 215.31796459 0 3156.13297258 0 42.85011849 0 -377.29611159 0 29211
0.16750000 0.16749900 8577.48644586 0 55.51386856 0 2866.31487045 0 329.16139391 0 -445.44516362 0 30922
0.16850000 0.16850800 8534.58118719 0 55.74583376 0 2952.31361732 0 280.31361850 0 -365.40664920 0 30867
0.16950000 0.16949900 8401.19289010 0 92.11664922 0 2576.14245393 0 434.43373658 0 -331.01933001 0 30852
0.17050000 0.17049200 8264.05107489 0 53.49870544 0 2367.00838276 0 500.56319656 0 121.29288946 0 31257
0.17150000 0.17149500 8359.21770671 0 -0.41259800 0 2334.95400241 0 459.65981422 0 236.41627953 0 32608
0.17250000 0.17250900 8237.92038832 0 44.88753698 0 2023.73309640 0 438.33783832 0 135.87181955 0 32361
0.17350000 0.17350400 8337.84811981 0 24.98979422 0 2030.35434664 0 61.09852775 0 334.57022458 0 32508
0.17450000 0.17449800 8211.29144713 0 105.50630090 0 1995.70904229 0 52.90301437 0 490.38883729 0 32791
0.17550000 0.17549800 8165.45202238 0 135.53964980 0 2085.61631981 0 -179.17236022 0 467.93637702 0 33633
0.17650000 0.17650100 8129.56661765 0 85.91249346 0 1968.31611069 0 34.62393477 0 427.25444117 0 33984
0.17750000 0.17750300 8088.94225789 0 63.99039755 0 2002.81747482 0 -5.14240839 0 282.53251240 0 34069
0.17850000 0.17849800 7933.05499676 0 216.65771589 0 1945.41854296 0 81.62429278 0 191.19247604 0 34536
