### header ###
fiducial parameters:
Omega_m = 0.31
Omega_nu = 0
Omega_de = 0.69
Omega_k = 0
H_0 = 100
w_de = -1
zeff = 0
beta = 0
fgrowth = 0
b_1 = 2
gamma = 0.55
Lx = 3500 Ly = 3500 Lz = 3500
nx = 700 ny = 700 nz = 700
xoffset = -685.467585 yoffset = -31.7331281 zoffset = 572.489161
bins = 400 dk = 0.001
kx_ny = 0.628318531 ky_ny = 0.628318531 kz_ny = 0.628318531
############################
A(data) = 8.04591244 (not used)
A(ran) = 8.04239051 (used)
Ngal = 478139
weighted Ngal = 0
Nran = 23820508
weighted Nran = 0
SN(data) = 3490.13921
SN(ran) = 70.052138
SN(data+ran) = 3560.19135
############################
13 columns: k_central k_mean P_0(k) sigma^{lin}_{P_0(k)} P^img_1(k) sigma^{lin}_{P_1(k)} P_2(k) sigma^{lin}_{P_2(k)} P^img_3(k) sigma^{lin}_{P_3(k)} P_4(k) sigma^{lin}_{P_4(k)} N_modes
### header ###
0.00050000 0 0 0 0 0 0 0 0 0 0 0 0
0.00150000 0.00179520 3399.67982929 0 -9751.60684195 0 -5933.65887031 0 11491.19086654 0 21639.08728607 0 3
0.00250000 0.00253879 8132.50078372 0 -12770.93016907 0 -22712.32773074 0 32423.64238268 0 16411.73201594 0 6
0.00350000 0.00331552 32917.13589985 0 -36029.12351338 0 -23235.93797142 0 -4053.84385190 0 -56456.67701780 0 7
0.00450000 0.00420575 62046.31875599 0 -44350.75067733 0 -34945.47508338 0 -16100.93185828 0 -39519.34174271 0 24
0.00550000 0.00557378 88333.23583119 0 -1932.00995761 0 -6503.42963316 0 -59448.19773730 0 -14116.54980428 0 45
0.00650000 0.00659388 93251.78396213 0 24822.15922494 0 -5139.13098598 0 -38617.27943974 0 26712.75868772 0 40
0.00750000 0.00754703 73895.92077691 0 5190.26298199 0 20505.28122464 0 1671.02418931 0 6867.83091526 0 57
0.00850000 0.00846663 82629.65987061 0 -14802.48032680 0 30520.08829986 0 33342.86678913 0 13803.86735141 0 75
0.00950000 0.00948925 96459.87935508 0 -14784.54316059 0 31896.48899807 0 25802.94575737 0 -19218.01274123 0 112
0.01050000 0.01054430 102318.46786313 0 -1582.46773541 0 17658.58651377 0 32902.40970784 0 25026.11144810 0 105
0.01150000 0.01145670 95837.06108403 0 14659.09372040 0 23946.33833178 0 9352.44953224 0 17585.95206296 0 144
0.01250000 0.01249090 85150.49606207 0 14882.42251199 0 16232.58180038 0 8850.44139729 0 24439.83184895 0 169
0.01350000 0.01339930 74570.77897460 0 14580.59093743 0 29555.79953141 0 6556.76502181 0 -8805.10022716 0 180
0.01450000 0.01448870 63712.70364120 0 8721.36023455 0 17707.30474297 0 -17067.21364521 0 -11099.67346095 0 267
0.01550000 0.01550050 62472.93543126 0 5129.45377408 0 30417.22640230 0 -24472.49520716 0 2583.89308130 0 238
0.01650000 0.01653350 68148.49841005 0 -13279.59277124 0 31860.61466565 0 -8345.95306158 0 -29647.25693441 0 315
0.01750000 0.01747870 66410.91847626 0 -7102.27632097 0 38912.57834265 0 -442.81105754 0 -20593.41693020 0 297
0.01850000 0.01844180 74447.21182963 0 9915.76512971 0 31157.18986993 0 5414.03466657 0 -44968.25423246 0 388
0.01950000 0.01947590 68565.59288596 0 1728.14631304 0 23021.79920943 0 8730.94886785 0 -20854.61307267 0 399
0.02050000 0.02045430 66265.09595839 0 478.51155445 0 19360.18139190 0 8878.16649863 0 -18305.76389942 0 462
0.02150000 0.02154770 65619.57942147 0 355.73054454 0 26030.26058590 0 5656.15319338 0 -18199.13741142 0 571
0.02250000 0.02255340 68021.27739788 0 -669.43940193 0 14171.13636564 0 5757.38745920 0 -13331.18980490 0 510
0.02350000 0.02348930 69302.56682589 0 -3635.15496121 0 17650.50371665 0 3032.90906967 0 1256.55385437 0 555
0.02450000 0.02439640 65834.93613919 0 194.36358987 0 12293.04862990 0 -1127.97094625 0 5077.09275002 0 592
0.02550000 0.02547300 73311.63419623 0 543.78180203 0 18037.26002257 0 -83.05771595 0 -6319.38545002 0 837
0.02650000 0.02652900 68191.23758385 0 31.38273313 0 18073.79869447 0 -8516.93190143 0 -3028.62407997 0 723
0.02750000 0.02749970 71373.86662972 0 5031.10938505 0 25785.56220741 0 -5660.79249748 0 -683.06279039 0 826
0.02850000 0.02848090 69190.62562198 0 1915.18002388 0 30909.05907074 0 -2763.69656403 0 542.42544224 0 831
0.02950000 0.02946900 66207.74131583 0 2443.89460630 0 29675.38063945 0 -2211.18755558 0 -1008.51274101 0 996
0.03050000 0.03053250 63446.63567581 0 1901.56106435 0 30578.55017490 0 4750.92420551 0 -1926.49593985 0 1041
0.03150000 0.03150510 63673.50761134 0 3100.18451527 0 26348.81137093 0 10806.73296322 0 789.65606142 0 1036
0.03250000 0.03246190 56498.86257535 0 2782.36450368 0 22041.12340024 0 8010.01872658 0 -7320.70007267 0 1059
0.03350000 0.03345080 57295.62706930 0 2002.09777371 0 18626.30770292 0 4988.52522379 0 -4581.49549113 0 1302
0.03450000 0.03451200 53115.93517351 0 1232.92551321 0 14241.55635149 0 6431.48166648 0 -1018.80668140 0 1339
0.03550000 0.03553350 52125.07282549 0 1858.26827431 0 16425.57242197 0 718.14655881 0 2517.52556634 0 1365
0.03650000 0.03647120 50176.45438066 0 347.70864521 0 11581.43031381 0 2028.51634072 0 4933.34075690 0 1308
0.03750000 0.03744890 50998.79594494 0 1662.24383572 0 16717.10673444 0 4981.93719053 0 8564.56504280 0 1579
0.03850000 0.03847530 48056.76851738 0 3064.54270168 0 16223.05960103 0 314.28240381 0 11080.85050876 0 1662
0.03950000 0.03950240 46815.22873546 0 2809.48062716 0 20087.07951624 0 2976.28520055 0 8759.67047843 0 1683
0.04050000 0.04050350 44263.94365075 0 596.87027784 0 14234.24861711 0 1959.20358736 0 15039.20663142 0 1822
0.04150000 0.04152450 44887.42626129 0 434.79690884 0 16367.33199342 0 1903.25513005 0 7737.24093235 0 1887
0.04250000 0.04250150 43954.47217207 0 -365.84400603 0 9653.87143078 0 1811.74236543 0 9297.68581369 0 1920
0.04350000 0.04349210 44087.67223964 0 1602.54186030 0 13691.26180800 0 2064.85571078 0 5624.67457392 0 2005
0.04450000 0.04448520 40764.09249882 0 3600.26606571 0 8708.71563961 0 -1128.09274182 0 5205.34348839 0 2151
0.04550000 0.04548030 39438.84594128 0 1246.75484690 0 11470.92851212 0 2638.55714893 0 4892.47280599 0 2274
0.04650000 0.04648670 39157.27672114 0 -1017.47468072 0 11046.07233650 0 2008.13219073 0 4458.36016683 0 2311
0.04750000 0.04749250 38929.62972287 0 -366.87926840 0 9543.11496562 0 343.12691720 0 1195.80000809 0 2568
0.04850000 0.04851840 39860.70151687 0 498.43841743 0 10257.39063967 0 -1917.47199512 0 277.12257449 0 2493
0.04950000 0.04949480 39558.86994232 0 -69.09551435 0 10143.60035751 0 -1534.08167595 0 78.33082976 0 2644
0.05050000 0.05050630 39036.36693412 0 309.26221174 0 10497.59365428 0 192.04836675 0 93.91900226 0 2829
0.05150000 0.05149060 39471.17712975 0 -504.19381187 0 7305.01058840 0 4605.09061532 0 -519.67402920 0 2784
0.05250000 0.05249300 39397.65689296 0 85.11816487 0 6991.32055396 0 2958.00479228 0 -5430.41063498 0 3055
0.05350000 0.05348950 38660.46150653 0 1370.53236605 0 5913.05327383 0 1157.84407861 0 -4154.85667122 0 3009
0.05450000 0.05448610 36374.80149422 0 2673.96644370 0 5482.56128488 0 21.95642012 0 -1703.80934309 0 3336
0.05550000 0.05550870 34509.66837852 0 1482.73930576 0 5441.73762327 0 145.27997395 0 1018.26303025 0 3349
0.05650000 0.05647670 35102.48064931 0 -1151.46641952 0 6190.37072123 0 -342.22784442 0 2075.56264888 0 3324
0.05750000 0.05747970 35918.62171169 0 274.68998473 0 8768.16295156 0 -459.91558492 0 2103.66420927 0 3639
0.05850000 0.05849280 35822.73537876 0 1416.40500778 0 9178.54759864 0 -2358.29446312 0 621.85497879 0 3846
0.05950000 0.05951020 34672.32083010 0 930.91788868 0 11780.28926755 0 -3273.99787028 0 4062.57991618 0 3787
0.06050000 0.06049470 34199.86473009 0 120.42592643 0 11442.80480708 0 -2157.56428649 0 68.90108433 0 3930
0.06150000 0.06148310 34979.68856707 0 -269.56128387 0 13296.97632121 0 372.10097679 0 -3153.97386924 0 4083
0.06250000 0.06249100 34677.19265302 0 341.10068176 0 10866.87783164 0 -1205.37756906 0 -3801.77130508 0 4303
0.06350000 0.06350600 33769.48346439 0 1349.69425074 0 12395.91052747 0 -707.32779023 0 -6280.89804895 0 4470
0.06450000 0.06451750 33113.00532589 0 1419.13987201 0 11027.41546918 0 793.93662219 0 -4341.53606766 0 4479
0.06550000 0.06550280 32074.42125790 0 809.50763258 0 11473.47514683 0 287.28032528 0 -5367.70805953 0 4636
0.06650000 0.06648880 31261.71261621 0 501.48441399 0 12480.50308908 0 1189.80988036 0 -4225.30987404 0 4653
0.06750000 0.06749660 30725.25847875 0 540.33498731 0 12666.85031578 0 987.28155817 0 -4375.04092257 0 5220
0.06850000 0.06852730 29540.63044640 0 735.94642819 0 12714.79348224 0 2303.56396154 0 -840.40163329 0 5029
0.06950000 0.06949320 30210.06320494 0 290.57323468 0 12267.02866658 0 1718.87877717 0 705.23069191 0 5040
0.07050000 0.07048030 29526.23642414 0 -102.90674048 0 12335.78780370 0 2133.28267816 0 1007.94030182 0 5475
0.07150000 0.07148790 29718.00909000 0 156.98452851 0 10602.21605150 0 2301.95847445 0 894.54751612 0 5509
0.07250000 0.07249820 29298.36797937 0 238.46687408 0 10629.80828494 0 602.31453995 0 2337.96567476 0 5916
0.07350000 0.07351270 29381.07824577 0 120.32627550 0 10706.83844871 0 296.20240462 0 2205.92820129 0 5721
0.07450000 0.07449140 28569.80900630 0 1233.66735897 0 9990.65833479 0 137.30236391 0 599.47227417 0 6028
0.07550000 0.07549160 28077.42272162 0 892.29651249 0 8759.71476772 0 -347.81604676 0 1976.19960596 0 6183
0.07650000 0.07648840 26533.16557916 0 663.72829679 0 9386.89553475 0 -167.91402034 0 641.73090907 0 6330
0.07750000 0.07749960 27383.63084848 0 147.63727190 0 10451.22275794 0 728.45710768 0 828.14678418 0 6583
0.07850000 0.07848650 25918.20865874 0 433.48040942 0 9534.67785411 0 896.42095348 0 260.95587302 0 6549
0.07950000 0.07947320 26330.32058849 0 925.65410547 0 9057.25028025 0 634.90924975 0 636.40401360 0 6828
0.08050000 0.08048110 25083.57681391 0 654.84386335 0 9836.59800726 0 1098.60714083 0 2156.30204146 0 7147
0.08150000 0.08149960 25300.92655010 0 759.12412573 0 9350.23506728 0 1176.02483596 0 2990.82316304 0 7386
0.08250000 0.08250610 24438.94606296 0 -25.49679598 0 8546.22927290 0 1445.63594530 0 3584.74266631 0 7227
0.08350000 0.08350160 23456.94157480 0 927.62055035 0 8566.43626569 0 719.57378148 0 2146.89056536 0 7798
0.08450000 0.08449610 23663.32970942 0 846.82247445 0 8402.41084583 0 -223.45280163 0 1464.89071816 0 7371
0.08550000 0.08548940 22587.21046029 0 320.23820733 0 7855.61515698 0 -456.81754844 0 2669.31606728 0 8256
0.08650000 0.08650700 22178.30950474 0 358.57945372 0 7511.13298723 0 -577.43059715 0 730.42244533 0 8037
0.08750000 0.08749060 21786.57065266 0 514.76788207 0 6983.40384172 0 56.96799698 0 812.77507564 0 8155
0.08850000 0.08849210 21402.69315120 0 633.42112930 0 7022.33413578 0 -219.40918861 0 -1316.69872278 0 8718
0.08950000 0.08949900 20807.33424570 0 640.99681394 0 7031.47987608 0 254.05006403 0 -167.38476321 0 8571
0.09050000 0.09049190 20566.84335064 0 507.79674637 0 7604.74949357 0 -166.05386977 0 -360.58243728 0 8932
0.09150000 0.09150830 20160.82119954 0 80.25807862 0 7680.78314810 0 480.49460783 0 239.30062014 0 9285
0.09250000 0.09250820 19870.39411954 0 472.19368591 0 8289.27383083 0 -33.47019852 0 642.34099417 0 9204
0.09350000 0.09350330 19877.92330042 0 642.30113380 0 7900.70166364 0 186.37933644 0 791.10099981 0 9349
0.09450000 0.09448040 19034.87648873 0 434.73933275 0 8334.54856701 0 612.87532336 0 834.04833331 0 9564
0.09550000 0.09549270 18714.00051548 0 247.33691350 0 7797.96156165 0 878.77277495 0 1517.27388687 0 10155
0.09650000 0.09649430 18616.78550358 0 -136.68231372 0 7257.48817028 0 1452.74437783 0 1004.89209080 0 9913
0.09750000 0.09749140 18436.74950202 0 165.55229346 0 6383.99246534 0 1487.31217591 0 84.29881284 0 10476
0.09850000 0.09850240 18484.80339174 0 215.10426872 0 5722.17746628 0 346.95351266 0 -216.76733190 0 10575
0.09950000 0.09950330 17721.47731874 0 618.48345588 0 5748.69568422 0 -732.39221192 0 94.82217179 0 10882
0.10050000 0.10051200 17884.01904708 0 635.58909049 0 6232.23518137 0 -849.81532385 0 794.77368995 0 10875
0.10150000 0.10150300 17213.14688632 0 292.80873706 0 7639.59409977 0 -198.19461425 0 2053.30727599 0 11118
0.10250000 0.10250800 17176.27604467 0 49.63634638 0 6835.34471424 0 524.55028105 0 1295.59487168 0 11575
0.10350000 0.10349800 17187.68053923 0 362.47580482 0 7957.10408627 0 476.50414197 0 1162.90413105 0 11364
0.10450000 0.10450100 16966.89838235 0 227.60049451 0 7095.88758955 0 160.65943312 0 784.59600897 0 12093
0.10550000 0.10551000 16433.43377259 0 278.34053022 0 6597.93192548 0 691.50100913 0 1087.64886096 0 12067
0.10650000 0.10649700 16299.34791903 0 44.53266897 0 5707.47341892 0 338.63819672 0 320.18506018 0 12054
0.10750000 0.10749900 16268.12396304 0 -118.83594058 0 5106.01366244 0 1268.71126702 0 -448.60741958 0 12807
0.10850000 0.10850100 16340.31552086 0 -376.21213099 0 4003.52013560 0 1258.97869350 0 -1172.58134294 0 12736
0.10950000 0.10950300 16382.72252492 0 261.82947945 0 4475.26760682 0 -554.33926374 0 -1057.49781324 0 12933
0.11050000 0.11050200 16035.49441860 0 421.47247315 0 3897.97873543 0 -56.87266426 0 -1138.20177438 0 13428
0.11150000 0.11150900 15741.96708766 0 604.18576284 0 4921.95840698 0 -827.02183598 0 -266.89174636 0 13453
0.11250000 0.11250000 15482.54251716 0 194.10671193 0 5124.75910836 0 -154.73352488 0 236.24355126 0 13668
0.11350000 0.11349100 15440.68912935 0 163.40204798 0 6269.54891601 0 -251.20226209 0 -178.21571135 0 13791
0.11450000 0.11448600 15308.04267802 0 471.37654834 0 6389.55077240 0 11.25025708 0 -571.53679865 0 14205
0.11550000 0.11549300 14818.42447454 0 658.46562080 0 6574.22607805 0 -372.37667767 0 358.48866065 0 14776
0.11650000 0.11649800 14326.92397584 0 293.35792437 0 5992.20932395 0 415.79901391 0 734.04531001 0 14553
0.11750000 0.11747300 14195.49548024 0 -5.67897325 0 5794.49081967 0 1069.95417867 0 653.26384260 0 14568
0.11850000 0.11849100 14300.01822653 0 -257.48027026 0 5042.27028846 0 1402.73068662 0 67.40510252 0 16015
0.11950000 0.11950300 14270.34439602 0 -168.35580610 0 4396.27764157 0 1353.32597328 0 551.47817501 0 15270
0.12050000 0.12050700 14317.84466949 0 174.69581929 0 4118.52837349 0 623.69187748 0 297.83557253 0 15999
0.12150000 0.12150000 13973.27392113 0 396.71696932 0 4058.99248294 0 160.79894441 0 1188.24868256 0 15670
0.12250000 0.12250700 13868.19755860 0 315.76720257 0 3991.05269786 0 -342.24002398 0 933.45455830 0 16887
0.12350000 0.12352200 13660.37002176 0 238.06162700 0 4317.39839956 0 -444.42097357 0 1318.68066893 0 16407
0.12450000 0.12449800 13595.04330533 0 66.75427127 0 4419.18628162 0 -410.35696627 0 570.77059377 0 16306
0.12550000 0.12549900 13641.21489982 0 202.39877599 0 4813.41640679 0 -165.85235346 0 382.89760072 0 17523
0.12650000 0.12650100 13290.99726581 0 195.10322116 0 4300.96706953 0 -117.32235378 0 18.53152860 0 17154
0.12750000 0.12750600 13214.59822456 0 74.40923376 0 4719.86633439 0 -0.22010675 0 -294.03776512 0 18007
0.12850000 0.12850300 13252.13340569 0 20.28937089 0 4265.20346037 0 203.16165917 0 -391.64805902 0 17496
0.12950000 0.12949900 13309.82021800 0 -66.57811058 0 4333.71900634 0 187.24076331 0 -323.48018404 0 18405
0.13050000 0.13049000 13217.58775226 0 63.81279746 0 4155.68709558 0 487.45467121 0 -357.88189725 0 18100
0.13150000 0.13148800 13293.76534701 0 57.22232828 0 4402.41170952 0 205.23882730 0 -532.09607041 0 19059
0.13250000 0.13249300 13004.77766924 0 455.05926326 0 4326.89845425 0 -197.99863410 0 -545.35185769 0 18957
0.13350000 0.13349100 12732.73064845 0 379.64122999 0 4453.87587527 0 -39.52089187 0 -339.54834182 0 19468
0.13450000 0.13450700 12385.94543513 0 275.74407005 0 4357.38056448 0 -88.16449360 0 -424.36567163 0 19953
0.13550000 0.13551000 12167.04557347 0 311.41910062 0 4025.15545830 0 -179.98839055 0 -783.16103568 0 19956
0.13650000 0.13649900 12198.60169920 0 90.26236698 0 4110.22412988 0 -3.91978014 0 -817.04234962 0 19723
0.13750000 0.13749600 11958.22152739 0 -0.42587372 0 3927.44219177 0 124.84046233 0 -444.95244516 0 20946
0.13850000 0.13851100 11909.94619118 0 101.72266606 0 3768.83113875 0 271.70488596 0 -1152.88367709 0 20955
0.13950000 0.13949800 11819.70674390 0 123.70887073 0 3743.78554001 0 575.56048149 0 -534.98262550 0 20506
0.14050000 0.14048300 11647.86426272 0 190.38419633 0 3953.30714255 0 445.71422111 0 -507.28520496 0 21447
0.14150000 0.14148400 11451.99483668 0 218.36617561 0 3639.25172139 0 356.88538802 0 204.91662265 0 21771
0.14250000 0.14249400 11163.56077515 0 272.74014833 0 3804.25150584 0 425.63013112 0 229.91682486 0 22470
0.14350000 0.14350900 11067.02117506 0 327.09751256 0 4197.93908709 0 30.46959850 0 551.36191560 0 22519
0.14450000 0.14449900 10596.45844259 0 325.32594059 0 3916.11520348 0 229.97882988 0 1256.85280714 0 22218
0.14550000 0.14550500 10478.30566445 0 146.90760569 0 3943.56349671 0 457.42431184 0 1592.96429933 0 23559
0.14650000 0.14650700 10380.11628796 0 83.03125309 0 3460.62190509 0 479.42502125 0 1597.59253111 0 23044
0.14750000 0.14750500 10569.54162096 0 32.58762351 0 3516.96896610 0 354.97209029 0 955.70882395 0 23649
0.14850000 0.14849900 10150.46519890 0 286.96254956 0 2990.66815049 0 80.24523472 0 1304.38629759 0 23640
0.14950000 0.14949500 10195.31918674 0 165.33970482 0 2721.26741533 0 258.01395632 0 1147.62432280 0 24457
0.15050000 0.15050000 9906.02148387 0 110.40514029 0 2729.12876595 0 143.24266618 0 1245.09399818 0 24591
0.15150000 0.15149900 9851.89996016 0 172.57768355 0 2701.17114578 0 356.45688905 0 550.04430895 0 25020
0.15250000 0.15250500 9622.99071686 0 185.44151053 0 2389.97238443 0 -120.68169713 0 277.38166689 0 25297
0.15350000 0.15350100 9574.68216368 0 -14.21310048 0 2362.21406611 0 -113.82682083 0 125.32764462 0 25452
0.15450000 0.15450400 9595.95209965 0 -76.97790239 0 2306.23239183 0 -83.70577912 0 -105.71147108 0 26061
0.15550000 0.15549900 9525.99715145 0 130.18285906 0 2366.33297094 0 -208.69117818 0 -269.42620151 0 26128
0.15650000 0.15649500 9528.97560682 0 238.94962745 0 2380.92629505 0 78.86905547 0 -121.99266039 0 26331
0.15750000 0.15749700 9231.72797474 0 206.43574562 0 2093.62161066 0 114.35054180 0 -120.93636060 0 27345
0.15850000 0.15849900 9099.36940386 0 231.78915499 0 2255.83116925 0 -35.51813572 0 -225.10147080 0 26980
0.15950000 0.15949700 9086.66944729 0 153.58311033 0 2280.69961079 0 290.67510007 0 21.95055178 0 27777
0.16050000 0.16050000 8955.21880705 0 -8.35574100 0 2404.55463622 0 -54.04999650 0 26.74475771 0 28224
0.16150000 0.16150500 9028.41794642 0 -21.17172446 0 2084.49801501 0 149.16746719 0 448.33282593 0 28075
0.16250000 0.16249700 8970.52075995 0 -130.99778216 0 2440.58398118 0 200.33046571 0 340.35219260 0 28590
0.16350000 0.16349900 9125.10148674 0 74.75612969 0 2443.46278563 0 185.52344573 0 372.66677258 0 29163
0.16450000 0.16449100 8992.04535939 0 233.28170437 0 2387.54754529 0 59.10329482 0 205.50899203 0 28996
0.16550000 0.16550500 8706.20222188 0 309.35964820 0 2295.50330908 0 -160.66829098 0 528.46877680 0 30777
0.16650000 0.16650700 8506.93359211 0 370.69700600 0 2499.31159201 0 -4.91280159 0 716.63961540 0 29211
0.16750000 0.16749900 8179.83497232 0 229.42853533 0 2346.38064162 0 66.72271514 0 592.46681426 0 30922
0.16850000 0.16850800 8076.71841129 0 94.99434644 0 2332.91669464 0 464.19725293 0 816.09455862 0 30867
0.16950000 0.16949900 7957.11515860 0 -40.96693749 0 2191.91063807 0 298.99595217 0 598.56655800 0 30852
0.17050000 0.17049200 8003.06530659 0 -35.89691996 0 2116.76276953 0 127.85545638 0 746.52160562 0 31257
0.17150000 0.17149500 8052.51430923 0 49.66114838 0 2047.77111358 0 131.90571280 0 621.88376683 0 32608
0.17250000 0.17250900 8067.84947911 0 57.17128486 0 1888.34070852 0 -153.24651165 0 570.39967089 0 32361
0.17350000 0.17350400 7979.95736470 0 78.22830003 0 1926.86132656 0 -30.69580609 0 777.45657393 0 32508
0.17450000 0.17449800 7944.63664852 0 93.23052510 0 2140.32467674 0 -253.49755503 0 210.92003717 0 32791
0.17550000 0.17549800 7896.94814553 0 131.57354305 0 2069.27356838 0 -20.19569902 0 447.36621197 0 33633
0.17650000 0.17650100 7853.46712597 0 56.93677302 0 2091.26320547 0 -106.12491169 0 158.11058395 0 33984
0.17750000 0.17750300 7763.69271634 0 38.15124529 0 2204.71024556 0 -3.37970536 0 361.73395906 0 34069
0.17850000 0.17849800 7912.48261725 0 75.55676950 0 2261.47805491 0 -0.48905351 0 243.78601893 0 34536
