### header ###
fiducial parameters:
Omega_m = 0.31
Omega_nu = 0
Omega_de = 0.69
Omega_k = 0
H_0 = 100
w_de = -1
zeff = 0
beta = 0
fgrowth = 0
b_1 = 2
gamma = 0.55
Lx = 3500 Ly = 3500 Lz = 3500
nx = 700 ny = 700 nz = 700
xoffset = -685.467585 yoffset = -31.7331281 zoffset = 572.489161
bins = 400 dk = 0.001
kx_ny = 0.628318531 ky_ny = 0.628318531 kz_ny = 0.628318531
############################
A(data) = 8.06423695 (not used)
A(ran) = 8.05706121 (used)
Ngal = 479410
weighted Ngal = 0
Nran = 23820508
weighted Nran = 0
SN(data) = 3494.60993
SN(ran) = 70.1799252
SN(data+ran) = 3564.78986
############################
13 columns: k_central k_mean P_0(k) sigma^{lin}_{P_0(k)} P^img_1(k) sigma^{lin}_{P_1(k)} P_2(k) sigma^{lin}_{P_2(k)} P^img_3(k) sigma^{lin}_{P_3(k)} P_4(k) sigma^{lin}_{P_4(k)} N_modes
### header ###
0.00050000 0 0 0 0 0 0 0 0 0 0 0 0
0.00150000 0.00179520 16911.86892800 0 -11760.91269912 0 -7449.94732028 0 13040.87344815 0 1344.11379903 0 3
0.00250000 0.00253879 30064.46213357 0 -6866.29186211 0 25784.23352843 0 -294.89808475 0 -11632.58445447 0 6
0.00350000 0.00331552 40325.96060575 0 1677.20254655 0 50175.01497843 0 -54619.55688389 0 51169.97408664 0 7
0.00450000 0.00420575 49831.21929281 0 7203.27806797 0 63431.46659081 0 -14453.70209501 0 19984.10689543 0 24
0.00550000 0.00557378 59617.05069078 0 -2362.04798124 0 92608.26044367 0 10271.88431286 0 15922.33525896 0 45
0.00650000 0.00659388 93439.90276080 0 -20209.98232173 0 107131.93963154 0 57284.99763748 0 12084.66747682 0 40
0.00750000 0.00754703 93987.87211607 0 -9865.84001711 0 116603.75989765 0 57300.38816898 0 7189.57052984 0 57
0.00850000 0.00846663 114387.08046895 0 4732.03481937 0 97146.58494034 0 47640.22765770 0 -23708.39407143 0 75
0.00950000 0.00948925 98041.45023218 0 10429.10025296 0 76663.55908858 0 47277.83046639 0 7629.50721186 0 112
0.01050000 0.01054430 98630.49791253 0 14995.13877864 0 52382.28293103 0 33496.32921111 0 -7085.00349425 0 105
0.01150000 0.01145670 86534.42594115 0 2619.78955837 0 41553.54925839 0 13669.44932811 0 2707.84775765 0 144
0.01250000 0.01249090 86909.77775250 0 -1868.83127219 0 32660.25796406 0 27653.90629731 0 -5121.96888251 0 169
0.01350000 0.01339930 86406.87275924 0 -5912.28928341 0 10207.46552706 0 9228.46163892 0 15916.02403381 0 180
0.01450000 0.01448870 93891.54289015 0 -1317.77273829 0 8195.91198796 0 11814.05985825 0 -65.00849781 0 267
0.01550000 0.01550050 91924.65510937 0 3521.86293367 0 18503.40489743 0 6237.82670541 0 13088.04155188 0 238
0.01650000 0.01653350 85285.24625511 0 9931.33281841 0 7173.36064631 0 6741.42925513 0 18551.79095689 0 315
0.01750000 0.01747870 77470.73156786 0 7269.85595710 0 15791.46037960 0 7433.05095260 0 21361.61482612 0 297
0.01850000 0.01844180 72945.91530747 0 -1541.22332546 0 17120.69297408 0 11009.65546017 0 23620.14764263 0 388
0.01950000 0.01947590 78457.94004869 0 -3317.42352821 0 15188.46156998 0 19557.26877367 0 21210.92048534 0 399
0.02050000 0.02045430 84282.53651954 0 -4783.80901022 0 7969.80404284 0 4896.96816987 0 19667.10623587 0 462
0.02150000 0.02154770 84683.35467797 0 222.77738982 0 13322.66411479 0 -4867.64865375 0 23313.44424515 0 571
0.02250000 0.02255340 88267.68766826 0 74.85290181 0 17010.74478863 0 -4511.24159016 0 22396.43430367 0 510
0.02350000 0.02348930 88186.85969709 0 1850.79445506 0 21504.77998602 0 -11397.74044507 0 12151.21214898 0 555
0.02450000 0.02439640 85090.92695455 0 7997.90560323 0 29779.90338573 0 -7493.24011032 0 28494.84936728 0 592
0.02550000 0.02547300 77337.08860730 0 10121.73251599 0 33040.81376807 0 1808.71962075 0 17385.87515349 0 837
0.02650000 0.02652900 69778.78751634 0 9370.57492797 0 41365.54118297 0 3414.64961245 0 28701.79111814 0 723
0.02750000 0.02749970 66159.46597962 0 4116.29176388 0 37939.98533058 0 14321.94142967 0 18230.58281390 0 826
0.02850000 0.02848090 63396.25659788 0 -1354.51071204 0 42169.50268806 0 11300.30398666 0 21006.30392269 0 831
0.02950000 0.02946900 63626.45023086 0 -635.65663168 0 30868.20219216 0 8073.34135222 0 12458.91205569 0 996
0.03050000 0.03053250 67639.94653112 0 -990.41834780 0 29119.66065680 0 1083.78461960 0 9802.50631914 0 1041
0.03150000 0.03150510 64955.90427184 0 1132.24486363 0 24207.64519750 0 1397.37168141 0 10195.76207973 0 1036
0.03250000 0.03246190 62317.92288379 0 -10.26239533 0 25681.92524711 0 543.51828070 0 791.10764320 0 1059
0.03350000 0.03345080 62093.04396673 0 1933.63758935 0 13760.79600786 0 9279.60470726 0 2100.13213765 0 1302
0.03450000 0.03451200 60030.15912977 0 2702.12336572 0 15783.26685924 0 5293.09166258 0 -8713.69818578 0 1339
0.03550000 0.03553350 56100.36960513 0 3693.74970415 0 9045.98972591 0 7709.33867380 0 -10004.22193269 0 1365
0.03650000 0.03647120 53024.80994026 0 3685.47867751 0 9752.43726631 0 -4697.25664711 0 -6188.80952343 0 1308
0.03750000 0.03744890 50228.38358406 0 3861.68365467 0 10246.91622039 0 -3946.63053068 0 -634.44531934 0 1579
0.03850000 0.03847530 47400.51182538 0 1978.48050487 0 14523.23629487 0 -2169.13486592 0 4093.39419615 0 1662
0.03950000 0.03950240 49169.09426866 0 -384.52744693 0 18202.45910886 0 2038.69180723 0 3984.54217086 0 1683
0.04050000 0.04050350 47121.48923995 0 990.82913105 0 18977.63256942 0 2231.16202956 0 3961.78854336 0 1822
0.04150000 0.04152450 46759.20277188 0 2238.53619789 0 18138.46107141 0 6870.54363484 0 3392.48281816 0 1887
0.04250000 0.04250150 44544.29491516 0 -370.67375412 0 13729.46132863 0 6874.29715296 0 7555.13440605 0 1920
0.04350000 0.04349210 44577.51188961 0 -82.39249067 0 13439.03424863 0 1467.74737796 0 2687.61862020 0 2005
0.04450000 0.04448520 44497.68042767 0 905.09944167 0 10084.85060202 0 -230.95873062 0 -439.42292615 0 2151
0.04550000 0.04548030 42766.52244228 0 2624.15205434 0 12460.24073466 0 -2841.57929681 0 3359.53157950 0 2274
0.04650000 0.04648670 40099.75300971 0 3387.67742919 0 12220.30345584 0 -4162.45228605 0 5738.77488118 0 2311
0.04750000 0.04749250 39063.05123694 0 2467.30150096 0 17820.57462587 0 -2378.66754079 0 4939.37517392 0 2568
0.04850000 0.04851840 38481.97563045 0 812.30671630 0 20816.52427530 0 2058.88772770 0 8708.15095104 0 2493
0.04950000 0.04949480 38523.38612528 0 50.02188473 0 21642.51970677 0 2453.63825214 0 8901.55124865 0 2644
0.05050000 0.05050630 38740.73586147 0 668.30891757 0 23444.54057100 0 3724.12109113 0 10630.74943255 0 2829
0.05150000 0.05149060 38378.33867015 0 440.05737036 0 22673.13170089 0 1613.72490837 0 11104.32383737 0 2784
0.05250000 0.05249300 38053.69810647 0 -139.61537257 0 20502.95603643 0 3535.64797806 0 10222.57925044 0 3055
0.05350000 0.05348950 38357.30125300 0 -918.33640599 0 19164.53341235 0 3065.60564486 0 10193.76906126 0 3009
0.05450000 0.05448610 37595.74675197 0 420.38627809 0 17294.30702724 0 1964.09755493 0 7149.67694352 0 3336
0.05550000 0.05550870 36984.88659172 0 1822.02855518 0 16648.45832056 0 2519.86182688 0 8200.16376069 0 3349
0.05650000 0.05647670 35987.60229531 0 1781.08309800 0 16475.84077664 0 317.69932325 0 9016.80307769 0 3324
0.05750000 0.05747970 33640.15871051 0 1789.56449881 0 15996.07694225 0 2925.18642151 0 6699.44299942 0 3639
0.05850000 0.05849280 32396.73663337 0 905.48586581 0 15604.89170641 0 412.52714193 0 7107.18136087 0 3846
0.05950000 0.05951020 32412.23788812 0 188.51961683 0 15627.58997229 0 1401.08091023 0 2877.46470154 0 3787
0.06050000 0.06049470 32678.85946975 0 -887.75575208 0 15271.83617586 0 -1406.39562614 0 2374.28290016 0 3930
0.06150000 0.06148310 32662.14025928 0 -797.36904288 0 13262.65211427 0 -671.32612608 0 -970.47819803 0 4083
0.06250000 0.06249100 33436.98155009 0 -333.07213903 0 12926.71777927 0 -2554.46284194 0 -2895.39079543 0 4303
0.06350000 0.06350600 33526.00304163 0 534.45890453 0 12326.92994385 0 -554.82866050 0 -4659.15677741 0 4470
0.06450000 0.06451750 32496.38755674 0 1733.95928357 0 13821.80451761 0 -289.42724906 0 -4272.53333940 0 4479
0.06550000 0.06550280 31507.51822719 0 1745.74023718 0 10922.74878267 0 1498.83846605 0 -3588.09758073 0 4636
0.06650000 0.06648880 29751.00461796 0 806.23465337 0 12935.68636238 0 2661.17790854 0 -2946.79959956 0 4653
0.06750000 0.06749660 29433.89323515 0 375.82570685 0 11359.09803145 0 2535.37415395 0 -2357.30902621 0 5220
0.06850000 0.06852730 28875.62661780 0 -566.14236200 0 10313.74877300 0 2464.95416810 0 -3743.20977911 0 5029
0.06950000 0.06949320 29800.27646340 0 -622.33441045 0 8048.67221252 0 972.45792971 0 -2029.54606693 0 5040
0.07050000 0.07048030 29591.23097083 0 -151.79714433 0 6341.46366571 0 1430.34506472 0 -3405.61459539 0 5475
0.07150000 0.07148790 29367.34856299 0 884.11627891 0 6428.10460741 0 -390.19204831 0 -3166.14235422 0 5509
0.07250000 0.07249820 28033.57631534 0 2095.61462913 0 6241.30341540 0 -1398.34604600 0 -5061.55827830 0 5916
0.07350000 0.07351270 26404.39444152 0 1692.44913783 0 6302.69945652 0 -1200.61646939 0 -3206.54526748 0 5721
0.07450000 0.07449140 25055.23166237 0 1233.30197225 0 7929.77758862 0 -436.01597180 0 -3411.82616962 0 6028
0.07550000 0.07549160 25139.04916125 0 -209.85598675 0 8405.12356541 0 746.62789994 0 -2844.41381196 0 6183
0.07650000 0.07648840 24886.48943213 0 -336.55992135 0 8230.90053439 0 1225.13059653 0 -625.84876635 0 6330
0.07750000 0.07749960 25845.02059168 0 -635.33553426 0 9377.31797378 0 1285.92873211 0 -639.60834440 0 6583
0.07850000 0.07848650 26211.18237344 0 -207.49758157 0 9509.79834024 0 1246.81020853 0 751.21737858 0 6549
0.07950000 0.07947320 26090.38330967 0 853.54226839 0 9060.46125445 0 692.88504973 0 1129.82002449 0 6828
0.08050000 0.08048110 25270.25621035 0 1127.14052189 0 8789.07857314 0 162.32028184 0 3583.48042128 0 7147
0.08150000 0.08149960 24332.31957496 0 542.39886866 0 9715.37819515 0 100.07067520 0 3097.36107244 0 7386
0.08250000 0.08250610 24150.29055494 0 118.93559150 0 8660.75032850 0 1049.89001886 0 3447.34618764 0 7227
0.08350000 0.08350160 24186.27561060 0 55.15811476 0 8491.48769899 0 800.73724409 0 1946.75829426 0 7798
0.08450000 0.08449610 23102.73790385 0 439.56243744 0 7409.84335978 0 840.55996754 0 1276.45082207 0 7371
0.08550000 0.08548940 23085.35435388 0 536.70105031 0 6311.52409940 0 913.03940580 0 1759.79101738 0 8256
0.08650000 0.08650700 22713.32423998 0 332.58717121 0 5868.18821366 0 1130.05254332 0 432.07200970 0 8037
0.08750000 0.08749060 22059.50345944 0 433.10616484 0 5454.27149496 0 993.41784059 0 861.75904064 0 8155
0.08850000 0.08849210 21658.79602425 0 536.43974344 0 5251.88046960 0 -39.06116894 0 -204.92548051 0 8718
0.08950000 0.08949900 21507.10517423 0 329.55667590 0 5137.91303025 0 -1058.87188875 0 -95.76442663 0 8571
0.09050000 0.09049190 20695.17159528 0 1151.77644461 0 5837.16355952 0 -757.84416498 0 553.05708853 0 8932
0.09150000 0.09150830 20534.51216217 0 837.01793083 0 7142.71245121 0 -695.60109101 0 244.37728107 0 9285
0.09250000 0.09250820 19649.94413240 0 506.97075094 0 6696.48668869 0 -142.45320942 0 103.72321371 0 9204
0.09350000 0.09350330 19303.26964233 0 448.95509058 0 7097.79202942 0 273.82523616 0 487.22104516 0 9349
0.09450000 0.09448040 19031.88696103 0 318.51646083 0 7011.51647443 0 799.39970726 0 -22.06791843 0 9564
0.09550000 0.09549270 18832.47439104 0 77.10910944 0 6735.71593553 0 583.38750790 0 -609.76400009 0 10155
0.09650000 0.09649430 18385.48463811 0 541.09344156 0 6746.20142713 0 -129.62813558 0 -84.39591713 0 9913
0.09750000 0.09749140 18273.98632719 0 171.93659595 0 6360.87345112 0 241.29253138 0 7.49159033 0 10476
0.09850000 0.09850240 18318.82924271 0 -113.19791278 0 5523.62853763 0 826.47486314 0 396.67600172 0 10575
0.09950000 0.09950330 18335.54845318 0 -177.98208530 0 5970.96153263 0 1097.97491108 0 132.52687022 0 10882
0.10050000 0.10051200 17998.72833220 0 593.58844076 0 5459.82980202 0 406.55915885 0 -861.92623274 0 10875
0.10150000 0.10150300 17726.01697192 0 583.20149285 0 5259.08855306 0 -427.62204236 0 -294.60245368 0 11118
0.10250000 0.10250800 17029.45701757 0 606.68589379 0 6005.23037794 0 -319.46314460 0 65.54539485 0 11575
0.10350000 0.10349800 16574.60591402 0 338.65259074 0 5700.44249266 0 -605.16234189 0 -84.37499043 0 11364
0.10450000 0.10450100 16563.75503570 0 207.55958659 0 5795.35446100 0 131.24580224 0 5.68460907 0 12093
0.10550000 0.10551000 16385.49060612 0 85.40571315 0 5284.69884037 0 769.04492877 0 -378.36237647 0 12067
0.10650000 0.10649700 16283.07160155 0 -104.60888898 0 5359.65847939 0 304.37710203 0 -1025.07029555 0 12054
0.10750000 0.10749900 16201.91146063 0 270.10714949 0 5311.05097344 0 94.43065439 0 -1265.42278655 0 12807
0.10850000 0.10850100 16043.46649247 0 623.15929865 0 5272.07639007 0 -702.67077041 0 -1862.40932380 0 12736
0.10950000 0.10950300 15524.83879797 0 541.75335212 0 5145.73009157 0 -661.86703899 0 -636.06298600 0 12933
0.11050000 0.11050200 15562.37397910 0 -14.00837319 0 5574.78267829 0 -441.54659805 0 -1105.36790237 0 13428
0.11150000 0.11150900 15435.15296694 0 -189.79514865 0 5232.57033512 0 907.84759269 0 -1289.95905835 0 13453
0.11250000 0.11250000 15467.26270891 0 -68.21194283 0 5239.04764514 0 502.19857894 0 -1123.96276467 0 13668
0.11350000 0.11349100 15488.30012607 0 288.46838573 0 4762.83802701 0 1163.33595172 0 -748.74049951 0 13791
0.11450000 0.11448600 15392.08162339 0 32.39773314 0 4823.43686075 0 987.64030150 0 -283.82797440 0 14205
0.11550000 0.11549300 15103.53683862 0 10.00562812 0 4584.75075463 0 950.08186848 0 -167.31168587 0 14776
0.11650000 0.11649800 15052.71486770 0 155.06348016 0 4061.07408001 0 623.94100479 0 -0.58637925 0 14553
0.11750000 0.11747300 14759.85187625 0 331.97044271 0 3922.78074302 0 243.11060711 0 537.47611304 0 14568
0.11850000 0.11849100 14485.47966724 0 324.94394538 0 3800.17689031 0 111.39755277 0 348.30765798 0 16015
0.11950000 0.11950300 14280.75238135 0 218.09601088 0 3752.30015779 0 -78.26118484 0 903.37658793 0 15270
0.12050000 0.12050700 14214.87204867 0 113.93090069 0 3746.35431936 0 -116.33027347 0 638.14679753 0 15999
0.12150000 0.12150000 14046.90488118 0 208.37450969 0 4116.31390853 0 10.08584711 0 536.77080595 0 15670
0.12250000 0.12250700 13935.51729350 0 370.44455699 0 4313.23520543 0 -4.97372153 0 409.17554921 0 16887
0.12350000 0.12352200 13802.64939568 0 358.93376811 0 4651.14041424 0 -402.46793483 0 922.61918123 0 16407
0.12450000 0.12449800 13518.75498733 0 399.48615776 0 5014.19087272 0 -115.97817355 0 1014.53830018 0 16306
0.12550000 0.12549900 13256.11944263 0 251.19118977 0 4786.63245305 0 294.51941125 0 1370.48807675 0 17523
0.12650000 0.12650100 13340.26911125 0 -110.84836546 0 5125.97706409 0 465.81159789 0 1547.91100965 0 17154
0.12750000 0.12750600 13290.99726581 0 90.00571050 0 4787.41858811 0 263.23455747 0 1515.90091860 0 18007
0.12850000 0.12850300 13250.02966398 0 143.40764382 0 5091.46462763 0 62.07189583 0 1736.51699061 0 17496
0.12950000 0.12949900 12969.01406008 0 319.99350896 0 4928.43571700 0 -239.07142302 0 1749.30552577 0 18405
0.13050000 0.13049000 12834.15314379 0 225.07821891 0 5160.47842823 0 -35.75176178 0 2426.31175448 0 18100
0.13150000 0.13148800 12788.09227254 0 58.84010566 0 4982.08113075 0 110.13287183 0 1728.31239792 0 19059
0.13250000 0.13249300 12775.58054550 0 -84.14723271 0 4735.62225261 0 311.73909080 0 1958.35101835 0 18957
0.13350000 0.13349100 12684.34458899 0 -29.53919104 0 4759.01807495 0 519.52787451 0 1395.55582014 0 19468
0.13450000 0.13450700 12729.18750451 0 302.22021316 0 4575.50536341 0 743.41914021 0 1373.04578379 0 19953
0.13550000 0.13551000 12283.08353757 0 384.15209512 0 4096.76018290 0 118.84258398 0 870.26258610 0 19956
0.13650000 0.13649900 12087.65700452 0 170.70867512 0 4211.83485474 0 86.82031337 0 1227.37827847 0 19723
0.13750000 0.13749600 11880.38308391 0 223.41404849 0 4277.51588556 0 -60.17177416 0 1269.45311278 0 20946
0.13850000 0.13851100 11876.50777022 0 83.32245523 0 4317.69735233 0 -121.76235603 0 1373.06792844 0 20955
0.13950000 0.13949800 11782.61445576 0 97.41863196 0 4370.54555869 0 -38.02967116 0 1569.09236702 0 20506
0.14050000 0.14048300 11785.16109047 0 78.70418855 0 4402.27884162 0 50.98296252 0 1098.29711574 0 21447
0.14150000 0.14148400 11664.36202670 0 219.38040056 0 4369.75942363 0 279.12334359 0 1399.29826593 0 21771
0.14250000 0.14249400 11331.63866590 0 356.98946787 0 4370.63413729 0 300.59922480 0 1130.70581048 0 22470
0.14350000 0.14350900 11189.91290822 0 303.79137605 0 4263.63119024 0 231.93530967 0 934.28498266 0 22519
0.14450000 0.14449900 10754.39408380 0 331.77446256 0 4028.18927530 0 206.73359115 0 1340.72566764 0 22218
0.14550000 0.14550500 10650.20350726 0 151.16159289 0 3840.13691058 0 265.15671306 0 882.15315572 0 23559
0.14650000 0.14650700 10515.58618212 0 -101.98408365 0 3727.03311255 0 292.05914067 0 1188.00509142 0 23044
0.14750000 0.14750500 10705.98587970 0 -57.72036145 0 3638.07805496 0 66.15979815 0 384.42890324 0 23649
0.14850000 0.14849900 10665.61618341 0 126.24554035 0 3496.96127515 0 43.95602230 0 333.09206922 0 23640
0.14950000 0.14949500 10576.53933024 0 118.96880848 0 3361.86784004 0 114.40479619 0 326.31248473 0 24457
0.15050000 0.15050000 10355.04854457 0 179.57650007 0 3047.02628382 0 322.60989931 0 654.78628727 0 24591
0.15150000 0.15149900 10229.08977743 0 55.94978599 0 3010.23294845 0 478.39972397 0 182.19510489 0 25020
0.15250000 0.15250500 10118.14508275 0 183.56918040 0 2556.99840432 0 507.39924991 0 188.26716782 0 25297
0.15350000 0.15350100 9776.96246579 0 336.18014061 0 2281.00963589 0 330.96618285 0 238.86547778 0 25452
0.15450000 0.15450400 9581.67987296 0 145.34862236 0 2165.58064965 0 320.34228719 0 529.43871246 0 26061
0.15550000 0.15549900 9483.61229204 0 18.94319764 0 2030.21040642 0 209.52492424 0 104.56382461 0 26128
0.15650000 0.15649500 9436.70992411 0 90.97907857 0 2063.44952553 0 -45.74220974 0 52.91873707 0 26331
0.15750000 0.15749700 9383.88386240 0 133.46912506 0 2001.97597813 0 -142.41113458 0 505.37855063 0 27345
0.15850000 0.15849900 9355.89302526 0 59.90858500 0 2224.26397119 0 -284.79458836 0 230.79153852 0 26980
0.15950000 0.15949700 9401.54422049 0 212.96952449 0 2404.67643179 0 -201.13210203 0 433.70849931 0 27777
0.16050000 0.16050000 9268.44380384 0 211.81357378 0 2604.72012429 0 -199.34835050 0 441.99502720 0 28224
0.16150000 0.16150500 9009.03030567 0 83.11507059 0 2626.22257909 0 51.00433211 0 850.52063094 0 28075
0.16250000 0.16249700 9116.43185641 0 43.56760514 0 2704.32675836 0 378.26494001 0 837.02014529 0 28590
0.16350000 0.16349900 8993.81693137 0 55.08780550 0 2606.30346674 0 484.51054004 0 805.37986989 0 29163
0.16450000 0.16449100 9030.14522910 0 96.21396302 0 2451.06947278 0 178.18249438 0 868.01822586 0 28996
0.16550000 0.16550500 8818.50881251 0 139.21012548 0 2465.69601386 0 -35.37984239 0 962.66667287 0 30777
0.16650000 0.16650700 8817.51230328 0 201.27604225 0 2506.99578544 0 -243.72179944 0 1302.42649609 0 29211
0.16750000 0.16749900 8634.85216074 0 46.97267719 0 2714.66830974 0 -4.95876281 0 1342.91798795 0 30922
0.16850000 0.16850800 8716.24482049 0 131.45285471 0 2890.61862343 0 -85.12835141 0 1052.99580597 0 30867
0.16950000 0.16949900 8618.90801301 0 129.21070894 0 3136.06992001 0 -161.35920405 0 1094.40740803 0 30852
0.17050000 0.17049200 8548.94199248 0 207.21080835 0 3296.56326826 0 -155.61598916 0 930.35984351 0 31257
0.17150000 0.17149500 8293.96849655 0 226.42793531 0 3206.72242468 0 -177.51040426 0 959.44130465 0 32608
0.17250000 0.17250900 8382.95677112 0 23.19696339 0 3153.29845743 0 49.86698290 0 678.02266813 0 32361
0.17350000 0.17350400 8146.96123994 0 99.22209223 0 3147.45226992 0 329.99513997 0 766.46396985 0 32508
0.17450000 0.17449800 8136.70826715 0 135.58172464 0 2797.73289053 0 410.54298132 0 559.02617884 0 32791
0.17550000 0.17549800 7967.82209669 0 9.50786068 0 2500.15308870 0 419.08860162 0 649.84027977 0 33633
0.17650000 0.17650100 7942.15644777 0 21.23372947 0 2225.24940810 0 500.85882764 0 496.90490044 0 33984
0.17750000 0.17750300 7911.84042241 0 91.02846114 0 1973.15471663 0 408.14693023 0 660.53725278 0 34069
0.17850000 0.17849800 7789.08155715 0 49.42818667 0 1787.38325082 0 -43.02063230 0 716.19118624 0 34536
