### header ###
fiducial parameters:
Omega_m = 0.31
Omega_nu = 0
Omega_de = 0.69
Omega_k = 0
H_0 = 100
w_de = -1
zeff = 0
beta = 0
fgrowth = 0
b_1 = 2
gamma = 0.55
Lx = 3500 Ly = 3500 Lz = 3500
nx = 700 ny = 700 nz = 700
xoffset = -685.467585 yoffset = -31.7331281 zoffset = 572.489161
bins = 400 dk = 0.001
kx_ny = 0.628318531 ky_ny = 0.628318531 kz_ny = 0.628318531
############################
A(data) = 8.00385623 (not used)
A(ran) = 7.9963983 (used)
Ngal = 475295
weighted Ngal = 0
Nran = 23820508
weighted Nran = 0
SN(data) = 3494.08674
SN(ran) = 69.6515292
SN(data+ran) = 3563.73827
############################
13 columns: k_central k_mean P_0(k) sigma^{lin}_{P_0(k)} P^img_1(k) sigma^{lin}_{P_1(k)} P_2(k) sigma^{lin}_{P_2(k)} P^img_3(k) sigma^{lin}_{P_3(k)} P_4(k) sigma^{lin}_{P_4(k)} N_modes
### header ###
0.00050000 0 0 0 0 0 0 0 0 0 0 0 0
0.00150000 0.00179520 35291.81740371 0 -23281.66667292 0 47932.53703291 0 -20112.87803307 0 -61144.92079251 0 3
0.00250000 0.00253879 58947.95010199 0 -15692.25234923 0 13983.46045996 0 20209.87159848 0 23735.74271373 0 6
0.00350000 0.00331552 56376.84555585 0 -4824.16763418 0 -2606.35882836 0 8205.37882568 0 30674.43650783 0 7
0.00450000 0.00420575 51658.15288789 0 -974.54949187 0 -18219.39976583 0 -3922.51500723 0 13592.93956361 0 24
0.00550000 0.00557378 62238.86648459 0 -10787.37853944 0 -8275.20090599 0 -1903.39907027 0 -14773.91372877 0 45
0.00650000 0.00659388 75566.51314555 0 -10958.34630696 0 -19575.87027937 0 -18437.85673451 0 -8940.24902389 0 40
0.00750000 0.00754703 73921.71929374 0 3286.94141799 0 -17045.29044207 0 -19718.14965329 0 -9951.52873888 0 57
0.00850000 0.00846663 72343.35939084 0 -5355.19633249 0 -10363.79568118 0 -28930.10245590 0 3364.71342751 0 75
0.00950000 0.00948925 77913.07094436 0 -3200.56621208 0 -73.56054006 0 -12978.86842917 0 -226.17880800 0 112
0.01050000 0.01054430 69579.26422311 0 7438.71998291 0 6865.45036543 0 -19840.27739604 0 -22318.92802994 0 105
0.01150000 0.01145670 75411.83276783 0 -206.38924185 0 9616.57984079 0 4649.39098692 0 1765.30503514 0 144
0.01250000 0.01249090 74899.95919146 0 -7934.97050896 0 5837.08605324 0 10968.97573879 0 -5597.07126815 0 169
0.01350000 0.01339930 79405.50960667 0 -6789.84853156 0 -8270.74983141 0 6612.07128428 0 -10418.90264180 0 180
0.01450000 0.01448870 85151.16040156 0 -1972.24678600 0 -3943.41955649 0 7842.81554949 0 1277.86807964 0 267
0.01550000 0.01550050 94218.39791880 0 3241.81062203 0 -19137.40621655 0 -6373.46268443 0 -2004.61119144 0 238
0.01650000 0.01653350 86689.99210485 0 4218.47824963 0 409.34606301 0 -26199.33498588 0 -13730.34711461 0 315
0.01750000 0.01747870 81729.59058610 0 10439.74075711 0 1535.65394607 0 -33314.85380734 0 -24381.36997391 0 297
0.01850000 0.01844180 74138.73686018 0 10503.19625064 0 20531.52263446 0 -23658.12571675 0 -25955.63311662 0 388
0.01950000 0.01947590 71288.38828212 0 251.60086578 0 23859.30985871 0 -11642.32810031 0 -22805.11381272 0 399
0.02050000 0.02045430 76400.03775789 0 -5422.84823713 0 26873.75029058 0 778.83175667 0 -29149.11304082 0 462
0.02150000 0.02154770 76274.58831770 0 34.41566434 0 29105.93097402 0 13278.92843175 0 -32602.57115175 0 571
0.02250000 0.02255340 75289.15140884 0 3701.06851086 0 19226.20626159 0 20699.93269496 0 -25532.44886205 0 510
0.02350000 0.02348930 70132.43757105 0 3982.08411475 0 11067.69658687 0 9460.06145715 0 -18287.71600997 0 555
0.02450000 0.02439640 62818.17051910 0 7343.29868762 0 7631.86561705 0 1991.82265628 0 -11753.93713448 0 592
0.02550000 0.02547300 58678.44971591 0 5136.30754315 0 13017.95373578 0 1030.46473220 0 -15623.16104236 0 837
0.02650000 0.02652900 53395.40065194 0 3520.41245911 0 6448.05693674 0 -7025.24615721 0 -2815.99115415 0 723
0.02750000 0.02749970 51720.37935337 0 369.46576348 0 11308.60823028 0 -105.19406134 0 2999.57029965 0 826
0.02850000 0.02848090 55954.10419428 0 -2820.92941102 0 11671.66976108 0 -2117.65962784 0 2129.09733938 0 831
0.02950000 0.02946900 57012.72917019 0 -858.92009655 0 12687.99845618 0 3681.84695497 0 -949.98332479 0 996
0.03050000 0.03053250 55990.08924994 0 822.63498089 0 12054.88292305 0 4480.32765927 0 2186.87273028 0 1041
0.03150000 0.03150510 55093.67383262 0 17.97924104 0 13100.55327893 0 4986.90866437 0 296.57775643 0 1036
0.03250000 0.03246190 54425.79119956 0 1514.84904774 0 14347.73994650 0 -1423.20341521 0 1157.37904097 0 1059
0.03350000 0.03345080 55531.69500245 0 3778.48620599 0 18034.38121811 0 -3392.19493771 0 4557.30246141 0 1302
0.03450000 0.03451200 49702.55887842 0 1524.57054893 0 15879.92825490 0 -5239.81163555 0 6997.73143003 0 1339
0.03550000 0.03553350 51509.56228882 0 611.17572150 0 18623.09672872 0 268.86040571 0 5860.60367116 0 1365
0.03650000 0.03647120 53190.56264279 0 -701.35648545 0 20958.91437246 0 -6610.26649533 0 469.42449748 0 1308
0.03750000 0.03744890 52293.03999299 0 2747.40917423 0 25705.95219196 0 5125.53417110 0 700.88701888 0 1579
0.03850000 0.03847530 48929.26771309 0 2772.63193016 0 21571.43538143 0 816.03698253 0 3685.93264283 0 1662
0.03950000 0.03950240 48844.89659797 0 -576.85815796 0 19133.30945637 0 7016.26650178 0 3865.52575139 0 1683
0.04050000 0.04050350 49415.89638887 0 -976.03982679 0 17489.51211379 0 6833.60635925 0 427.41720435 0 1822
0.04150000 0.04152450 45854.92600394 0 1670.10518635 0 13608.44081836 0 7748.93330736 0 -4921.51551399 0 1887
0.04250000 0.04250150 46872.25120828 0 635.06647676 0 10841.89866685 0 637.86556048 0 1944.13415328 0 1920
0.04350000 0.04349210 45529.17820778 0 1423.29199381 0 10993.99919288 0 -3815.67814505 0 -2795.26376209 0 2005
0.04450000 0.04448520 43668.69546850 0 2419.26975590 0 10024.20747899 0 -2022.47085137 0 858.31001145 0 2151
0.04550000 0.04548030 42938.80781645 0 1125.47967317 0 12695.08474407 0 -3596.63434317 0 -305.00822455 0 2274
0.04650000 0.04648670 42358.06437972 0 836.87399061 0 13906.39707923 0 3347.67311962 0 2986.77069215 0 2311
0.04750000 0.04749250 42562.57021912 0 -61.34820868 0 14211.43962798 0 1860.09520791 0 -40.59568244 0 2568
0.04850000 0.04851840 40801.62767996 0 1925.57693689 0 14216.20072765 0 -43.06281785 0 2098.03946826 0 2493
0.04950000 0.04949480 39327.67980010 0 2448.04672810 0 15445.22878252 0 1298.55118241 0 491.56582542 0 2644
0.05050000 0.05050630 37637.93230953 0 1105.77757838 0 13837.52721886 0 82.48007276 0 4042.57222524 0 2829
0.05150000 0.05149060 36858.88353529 0 459.97205378 0 14766.38454789 0 2049.12193721 0 3303.51668824 0 2784
0.05250000 0.05249300 36116.48415620 0 -232.61182872 0 12882.31775675 0 1443.29968476 0 1682.74978129 0 3055
0.05350000 0.05348950 37007.69558085 0 -992.79779040 0 12546.05125201 0 3632.70797742 0 1943.81305586 0 3009
0.05450000 0.05448610 37636.82507705 0 -226.54087302 0 12501.42978299 0 1531.97793423 0 80.58736956 0 3336
0.05550000 0.05550870 37728.72537304 0 1532.89693719 0 12116.77721879 0 74.68748128 0 -1029.07515543 0 3349
0.05650000 0.05647670 34887.56682458 0 2264.88833095 0 9721.98837306 0 -590.59337690 0 2047.10677410 0 3324
0.05750000 0.05747970 35944.97384476 0 -59.58604818 0 12939.22950632 0 -717.15780020 0 2039.33400207 0 3639
0.05850000 0.05849280 34463.71823052 0 103.23071670 0 11314.69800893 0 2333.39280461 0 2197.10355841 0 3846
0.05950000 0.05951020 35095.39436142 0 798.90809603 0 13786.26235494 0 -507.83771397 0 883.79739595 0 3787
0.06050000 0.06049470 33788.41713983 0 1710.87348633 0 12100.05800831 0 -2478.81671877 0 2787.96710004 0 3930
0.06150000 0.06148310 33868.69149476 0 1994.44679726 0 15102.42960614 0 -1980.46245101 0 2385.35522498 0 4083
0.06250000 0.06249100 31887.96330796 0 1060.23489194 0 15262.31397652 0 -1870.35925302 0 1999.05288438 0 4303
0.06350000 0.06350600 31353.83435871 0 204.89447800 0 16541.72110931 0 -489.88947544 0 1185.13735929 0 4470
0.06450000 0.06451750 32127.56841703 0 -186.26861319 0 15204.18427122 0 2852.00942679 0 847.80237520 0 4479
0.06550000 0.06550280 32016.95589209 0 -816.17206489 0 14939.11281506 0 2869.32654280 0 -1098.59606851 0 4636
0.06650000 0.06648880 33031.07012223 0 -1322.45633169 0 10948.54729950 0 3835.47546183 0 -1532.81943092 0 4653
0.06750000 0.06749660 32650.95721121 0 -227.36908292 0 11313.36932995 0 2447.55954581 0 -2286.66759387 0 5220
0.06850000 0.06852730 32212.16097865 0 2597.39024526 0 9037.38652953 0 1156.27180849 0 -1981.21536910 0 5029
0.06950000 0.06949320 29159.07813315 0 2339.48258326 0 8915.18128050 0 1175.50443670 0 -427.07174781 0 5040
0.07050000 0.07048030 28309.49864982 0 1384.23990418 0 8817.37943538 0 -405.53386158 0 2766.30963269 0 5475
0.07150000 0.07148790 28093.25614611 0 -88.72586047 0 10206.28078831 0 1332.06710963 0 1166.61335987 0 5509
0.07250000 0.07249820 27569.20301244 0 -170.26356767 0 9393.80466544 0 1011.94405448 0 2922.05295359 0 5916
0.07350000 0.07351270 27591.23693883 0 589.00449829 0 9309.82108169 0 871.00553909 0 3346.32229599 0 5721
0.07450000 0.07449140 27606.18457734 0 -104.92644325 0 10046.95003417 0 168.56728750 0 3250.22558889 0 6028
0.07550000 0.07549160 26999.75334702 0 704.38808799 0 9166.06908857 0 374.51695806 0 2969.95183076 0 6183
0.07650000 0.07648840 26244.62079439 0 794.59985445 0 9511.52562291 0 -555.18408213 0 2219.72431802 0 6330
0.07750000 0.07749960 26004.46206907 0 58.67756393 0 9584.72476229 0 -246.03923703 0 1007.87829680 0 6583
0.07850000 0.07848650 26319.91260316 0 0.46084234 0 9475.26375913 0 -169.04782640 0 1220.69059428 0 6549
0.07950000 0.07947320 25671.29581528 0 714.33989353 0 8830.62193586 0 77.80611229 0 -686.49521108 0 6828
0.08050000 0.08048110 25384.63332572 0 395.96737293 0 8717.34098064 0 -267.36121293 0 -484.50611111 0 7147
0.08150000 0.08149960 25114.35787690 0 486.39947866 0 8896.32511134 0 217.07071360 0 -2206.89149355 0 7386
0.08250000 0.08250610 24129.03169129 0 944.04855869 0 8535.85450454 0 -7.86482733 0 -2075.66229980 0 7227
0.08350000 0.08350160 23176.92248014 0 1198.46843837 0 8460.99451644 0 -353.03221898 0 -2524.26861215 0 7798
0.08450000 0.08449610 23089.45111407 0 367.25572744 0 7676.59780931 0 1200.29537197 0 -1958.97106854 0 7371
0.08550000 0.08548940 22404.73854728 0 -227.74222026 0 7499.51811849 0 1015.37315347 0 -1794.49168336 0 8256
0.08650000 0.08650700 22525.86978080 0 -185.30421370 0 6881.10663272 0 1253.67504992 0 -2627.70627061 0 8037
0.08750000 0.08749060 22214.73745339 0 1392.41127989 0 8014.23728233 0 -172.79359389 0 -393.64107749 0 8155
0.08850000 0.08849210 21636.42992812 0 1231.09857961 0 8470.71601763 0 -146.85888746 0 308.08854531 0 8718
0.08950000 0.08949900 20105.34885219 0 730.96388202 0 8986.48705234 0 925.16692317 0 2297.70670172 0 8571
0.09050000 0.09049190 20331.99934123 0 221.43542405 0 8624.87599608 0 1236.67903132 0 2437.15156048 0 8932
0.09150000 0.09150830 20287.26714896 0 -630.83906315 0 8988.35827523 0 1038.09356400 0 2262.93960179 0 9285
0.09250000 0.09250820 20274.64469867 0 127.69047874 0 7539.95424873 0 798.69550740 0 1289.69332255 0 9204
0.09350000 0.09350330 19659.02343875 0 1046.61814688 0 7564.03655521 0 -354.91340697 0 664.43581834 0 9349
0.09450000 0.09448040 19079.49795775 0 622.87252544 0 6803.53392504 0 -335.21574112 0 328.39740349 0 9564
0.09550000 0.09549270 18412.50111067 0 340.76961925 0 6572.58737397 0 113.81131958 0 -881.51981874 0 10155
0.09650000 0.09649430 17781.26787276 0 264.38940095 0 5579.08981265 0 135.27612847 0 -1287.46778526 0 9913
0.09750000 0.09749140 17836.29732711 0 83.86200962 0 5661.36825837 0 1392.63272639 0 -1176.79989870 0 10476
0.09850000 0.09850240 17751.15114925 0 75.59519047 0 4676.88356945 0 645.98821796 0 -1182.43571203 0 10575
0.09950000 0.09950330 17275.92696804 0 569.34780003 0 4881.79908487 0 927.42014127 0 -614.61257113 0 10882
0.10050000 0.10051200 17062.78471528 0 722.99955878 0 5146.80410708 0 -423.78216011 0 -916.46075417 0 10875
0.10150000 0.10150300 16212.54089245 0 695.80371456 0 5356.56930076 0 -698.56847406 0 -271.26199296 0 11118
0.10250000 0.10250800 15893.32576793 0 523.55598628 0 5811.18788549 0 -782.02612238 0 -228.55825060 0 11575
0.10350000 0.10349800 15685.60895434 0 67.48150156 0 6197.82239584 0 -585.40156379 0 -698.77441930 0 11364
0.10450000 0.10450100 15944.25846210 0 -117.79624928 0 6296.57646089 0 -92.87001020 0 -1601.75572524 0 12093
0.10550000 0.10551000 15730.00897686 0 69.33545163 0 6206.89062986 0 405.44749744 0 -1390.60649095 0 12067
0.10650000 0.10649700 15909.04846918 0 86.67903050 0 6180.87066654 0 430.21075190 0 -1791.79003610 0 12054
0.10750000 0.10749900 15928.42503761 0 -53.46659570 0 5677.22382751 0 758.99457953 0 -1331.38062549 0 12807
0.10850000 0.10850100 15941.60110414 0 159.46915820 0 5574.53908714 0 326.22390613 0 -1860.61560717 0 12736
0.10950000 0.10950300 15608.21340385 0 220.58949843 0 5825.55976311 0 -106.15702143 0 -465.06643043 0 12933
0.11050000 0.11050200 15567.35652527 0 401.36291682 0 5951.03134795 0 -129.66024532 0 -101.32528033 0 13428
0.11150000 0.11150900 15201.52691326 0 278.96611657 0 6171.65849229 0 131.03210637 0 -217.66751191 0 13453
0.11250000 0.11250000 15191.56182093 0 75.48889615 0 6266.73654551 0 39.14066823 0 -371.87620859 0 13668
0.11350000 0.11349100 14991.15274171 0 210.43506934 0 5896.55550985 0 -39.47261653 0 -739.63019065 0 13791
0.11450000 0.11448600 14684.44934423 0 518.46714580 0 6022.66928953 0 340.42194825 0 -159.13698846 0 14205
0.11550000 0.11549300 14329.80278029 0 238.38936781 0 5656.65144800 0 544.22801672 0 42.25487031 0 14776
0.11650000 0.11649800 14396.12600596 0 176.04775015 0 5105.21645506 0 608.26923624 0 -354.63327715 0 14553
0.11750000 0.11747300 13864.32224492 0 25.40090964 0 4709.48049371 0 699.71113798 0 -644.02841647 0 14568
0.11850000 0.11849100 13933.41355178 0 233.69027316 0 4763.29199233 0 166.63959575 0 -806.96321234 0 16015
0.11950000 0.11950300 13585.85327573 0 296.06067886 0 4217.95785036 0 200.49987228 0 107.10946281 0 15270
0.12050000 0.12050700 13479.44823422 0 40.74349797 0 4121.39610562 0 409.36488596 0 -248.31017085 0 15999
0.12150000 0.12150000 13771.86833268 0 -302.20360467 0 4036.84783331 0 423.94381605 0 302.49591405 0 15670
0.12250000 0.12250700 13982.02105774 0 -281.53378870 0 4101.35519770 0 293.52400924 0 -554.95599224 0 16887
0.12350000 0.12352200 13984.78913894 0 271.83553939 0 4379.38127390 0 50.13028279 0 -130.03891883 0 16407
0.12450000 0.12449800 13825.56910805 0 286.27495819 0 4712.35929817 0 -397.31155316 0 -119.78594605 0 16306
0.12550000 0.12549900 13566.69815379 0 408.13696514 0 5044.16365601 0 -367.96435623 0 233.30384902 0 17523
0.12650000 0.12650100 13430.17638878 0 278.07147273 0 5167.09967847 0 -25.74315520 0 974.99127763 0 17154
0.12750000 0.12750600 13344.14442494 0 -2.46959347 0 5042.86819400 0 413.63658888 0 673.17963325 0 18007
0.12850000 0.12850300 13448.55644798 0 -20.80312676 0 5093.72338189 0 325.79983609 0 533.50336290 0 17496
0.12950000 0.12949900 13278.81770851 0 162.37453623 0 4770.64401601 0 303.80466284 0 547.41241734 0 18405
0.13050000 0.13049000 12951.07689387 0 495.89953335 0 5012.81790445 0 108.49593933 0 1056.84233161 0 18100
0.13150000 0.13148800 12662.31066260 0 332.99020383 0 4996.29799582 0 205.18235845 0 1131.97912783 0 19059
0.13250000 0.13249300 12531.76795299 0 89.98301223 0 4759.06236425 0 758.02907280 0 1298.86120750 0 18957
0.13350000 0.13349100 12297.25611333 0 52.46455030 0 4624.00214611 0 541.03918717 0 1443.48791428 0 19468
0.13450000 0.13450700 12322.94390691 0 145.97420871 0 4429.31745883 0 261.43309022 0 1284.43396826 0 19953
0.13550000 0.13551000 12288.39825348 0 223.17710074 0 4487.27000693 0 202.51614263 0 1220.83453450 0 19956
0.13650000 0.13649900 11936.29832425 0 295.00991524 0 4362.56241250 0 -160.37819607 0 1169.21535620 0 19723
0.13750000 0.13749600 11623.94804111 0 292.32376923 0 3946.92948345 0 234.25939065 0 1375.26024875 0 20946
0.13850000 0.13851100 11542.56645369 0 75.35392451 0 3632.19865048 0 523.27585646 0 713.84717508 0 20955
0.13950000 0.13949800 11428.41078481 0 -92.86934586 0 3528.11879719 0 557.32436251 0 750.53421613 0 20506
0.14050000 0.14048300 11407.81626065 0 48.98617946 0 3272.68026362 0 256.10065859 0 147.95394039 0 21447
0.14150000 0.14148400 11280.04163224 0 296.02856912 0 3306.39549269 0 -109.90832508 0 680.48847487 0 21771
0.14250000 0.14249400 11196.11341012 0 65.45537684 0 3414.88213127 0 8.36447706 0 774.27770948 0 22470
0.14350000 0.14350900 11038.14455193 0 19.47068319 0 3190.67862601 0 216.29565087 0 1571.96009915 0 22519
0.14450000 0.14449900 11221.13686421 0 255.06207452 0 3382.18555608 0 346.62355738 0 911.12832254 0 22218
0.14550000 0.14550500 10899.87335960 0 91.00531998 0 3291.75787928 0 421.77806932 0 1285.33082657 0 23559
0.14650000 0.14650700 10778.71998143 0 336.11370666 0 3221.16073624 0 69.08211684 0 1526.61892902 0 23044
0.14750000 0.14750500 10409.03720039 0 327.79285456 0 2950.14344165 0 119.10610531 0 1501.94978932 0 23649
0.14850000 0.14849900 10304.76911757 0 84.55159401 0 2943.84328883 0 426.34318884 0 1322.03558335 0 23640
0.14950000 0.14949500 10229.31122393 0 -90.85960819 0 2723.47080797 0 14.58690216 0 1234.84102540 0 24457
0.15050000 0.15050000 10267.03463459 0 131.00331832 0 2930.15789536 0 -178.02969629 0 781.52897500 0 24591
0.15150000 0.15149900 10241.81187865 0 166.67945612 0 3071.00893937 0 -562.53056964 0 556.26584826 0 25020
0.15250000 0.15250500 10026.16728048 0 244.20344557 0 3242.75176964 0 -535.49084520 0 742.93085068 0 25297
0.15350000 0.15350100 9926.88174383 0 284.35280260 0 3467.42031253 0 -70.38743321 0 875.46214983 0 25452
0.15450000 0.15450400 9783.37334186 0 134.76901600 0 3420.44043833 0 382.69608440 0 761.22233128 0 26061
0.15550000 0.15549900 9667.82256005 0 132.16701966 0 3436.08563330 0 343.31514672 0 633.02584730 0 26128
0.15650000 0.15649500 9552.30499522 0 82.96681216 0 3215.12631921 0 406.33549789 0 590.50036937 0 26331
0.15750000 0.15749700 9325.22268551 0 107.10525533 0 2755.51411599 0 470.55830354 0 725.50079695 0 27345
0.15850000 0.15849900 9435.69127023 0 49.06423935 0 2633.84033856 0 298.67485475 0 561.03469856 0 26980
0.15950000 0.15949700 9299.95564028 0 -182.19289043 0 2430.24242980 0 225.57425907 0 846.01087305 0 27777
0.16050000 0.16050000 9419.00527673 0 74.60654258 0 2520.51509404 0 0.01021908 0 587.75996898 0 28224
0.16150000 0.16150500 9330.03914681 0 252.12347952 0 2375.60050682 0 -9.56594610 0 623.32538353 0 28075
0.16250000 0.16249700 9229.02632749 0 186.09477769 0 2516.57334641 0 -85.62350578 0 832.42291603 0 28590
0.16350000 0.16349900 8978.81393124 0 322.85902662 0 2572.58823766 0 -146.99839876 0 617.61981455 0 29163
0.16450000 0.16449100 8835.33874624 0 253.39679687 0 2711.22481672 0 21.81159411 0 773.11400814 0 28996
0.16550000 0.16550500 8603.07458852 0 212.41037209 0 2814.59604122 0 165.78591951 0 652.97485492 0 30777
0.16650000 0.16650700 8513.11194936 0 112.25455071 0 2694.32844904 0 -203.53701098 0 240.17533380 0 29211
0.16750000 0.16749900 8315.22736020 0 117.32013931 0 2698.72416200 0 166.42036372 0 259.00825109 0 30922
0.16850000 0.16850800 8357.68972588 0 82.94389245 0 2732.93764569 0 -89.25733206 0 -13.85834319 0 30867
0.16950000 0.16949900 8117.59743452 0 84.05632892 0 2523.11709037 0 146.52782495 0 -34.40547780 0 30852
0.17050000 0.17049200 8180.20035904 0 -41.75683714 0 2190.09477680 0 102.18305333 0 -82.06818228 0 31257
0.17150000 0.17149500 8223.79210185 0 87.43228076 0 2385.41058660 0 116.00253266 0 -47.81561328 0 32608
0.17250000 0.17250900 8121.41738658 0 121.71474503 0 2133.57055860 0 234.13759508 0 83.15504168 0 32361
0.17350000 0.17350400 8010.59448747 0 56.11863894 0 2042.06886630 0 399.87036743 0 315.80152678 0 32508
0.17450000 0.17449800 7902.55074189 0 15.69778851 0 1766.98802851 0 440.71838815 0 508.87629804 0 32791
0.17550000 0.17549800 7974.57621483 0 -1.09086426 0 1800.47073876 0 370.98488644 0 364.56183082 0 33633
0.17650000 0.17650100 7984.00983558 0 9.81773077 0 1702.50280876 0 96.10777943 0 459.91669215 0 33984
0.17750000 0.17750300 7785.37232833 0 97.05036644 0 1640.19883701 0 -97.92441576 0 580.05805983 0 34069
0.17850000 0.17849800 7944.41520203 0 110.11659551 0 1662.64243942 0 -210.35977753 0 556.20162878 0 34536
