### header ###
fiducial parameters:
Omega_m = 0.31
Omega_nu = 0
Omega_de = 0.69
Omega_k = 0
H_0 = 100
w_de = -1
zeff = 0
beta = 0
fgrowth = 0
b_1 = 2
gamma = 0.55
Lx = 3500 Ly = 3500 Lz = 3500
nx = 700 ny = 700 nz = 700
xoffset = -685.467585 yoffset = -31.7331281 zoffset = 572.489161
bins = 400 dk = 0.001
kx_ny = 0.628318531 ky_ny = 0.628318531 kz_ny = 0.628318531
############################
A(data) = 8.04343295 (not used)
A(ran) = 8.04469462 (used)
Ngal = 477866
weighted Ngal = 0
Nran = 23820508
weighted Nran = 0
SN(data) = 3487.14651
SN(ran) = 70.0722077
SN(data+ran) = 3557.21872
############################
13 columns: k_central k_mean P_0(k) sigma^{lin}_{P_0(k)} P^img_1(k) sigma^{lin}_{P_1(k)} P_2(k) sigma^{lin}_{P_2(k)} P^img_3(k) sigma^{lin}_{P_3(k)} P_4(k) sigma^{lin}_{P_4(k)} N_modes
### header ###
0.00050000 0 0 0 0 0 0 0 0 0 0 0 0
0.00150000 0.00179520 37820.95783878 0 -43268.65237280 0 -668.83263853 0 37198.25029098 0 -80318.64423446 0 3
0.00250000 0.00253879 69649.46276246 0 -49220.91274881 0 -852.35420793 0 -27696.75619435 0 10937.04315401 0 6
0.00350000 0.00331552 89263.20039271 0 -11280.92741823 0 25023.23264364 0 -12884.64294496 0 10993.00268365 0 7
0.00450000 0.00420575 102492.85697902 0 15398.50357179 0 27121.10602703 0 -13134.10242313 0 19568.56254499 0 24
0.00550000 0.00557378 72623.37848550 0 23976.23360879 0 27707.93924242 0 23073.39624308 0 3333.79949662 0 45
0.00650000 0.00659388 60074.44842904 0 16269.89553502 0 6906.94943885 0 17150.03463485 0 -227.80754698 0 40
0.00750000 0.00754703 69571.62431899 0 -15585.40441473 0 31936.46009066 0 11331.52794265 0 -65008.27636823 0 57
0.00850000 0.00846663 64467.17185434 0 -3615.36871676 0 24977.17177240 0 -13073.64752962 0 -28363.19942519 0 75
0.00950000 0.00948925 65081.79660502 0 11981.03051651 0 22948.94331212 0 -18745.55664122 0 -18331.78386274 0 112
0.01050000 0.01054430 66648.86273661 0 -8959.32663956 0 11885.03346033 0 -4664.32755310 0 -18883.84997820 0 105
0.01150000 0.01145670 73672.81343181 0 -6881.48309176 0 8455.60229426 0 340.51938471 0 -19482.19841140 0 144
0.01250000 0.01249090 84009.60371276 0 -1499.24814207 0 11814.39202799 0 -2082.75966001 0 -14754.20499059 0 169
0.01350000 0.01339930 81262.22775551 0 1973.09935501 0 1370.16697933 0 11271.73738863 0 -26758.15521948 0 180
0.01450000 0.01448870 83772.32379189 0 -5058.20336388 0 11840.19054482 0 9787.83548876 0 -5269.05364540 0 267
0.01550000 0.01550050 86035.39626158 0 -3085.94550556 0 18187.51147036 0 14934.35171539 0 -4768.88351637 0 238
0.01650000 0.01653350 86672.27638514 0 1012.52202983 0 9959.85512714 0 1707.36355936 0 -6423.11098892 0 315
0.01750000 0.01747870 81153.49752579 0 6954.85938834 0 14737.59650336 0 -6016.65701715 0 862.76219326 0 297
0.01850000 0.01844180 80099.08003331 0 4458.49303472 0 7149.52193097 0 -14270.89801226 0 -31781.00465021 0 388
0.01950000 0.01947590 78174.04564034 0 7938.83475032 0 17755.46935593 0 -26604.58207424 0 -5863.19459517 0 399
0.02050000 0.02045430 73928.25196538 0 5029.93571861 0 23794.42603527 0 -17115.15681167 0 -10438.76639252 0 462
0.02150000 0.02154770 73871.56166231 0 -3804.37330141 0 29644.71029970 0 -3310.69155472 0 -14464.44225009 0 571
0.02250000 0.02255340 75123.62015280 0 -2855.13182239 0 18260.81026066 0 1938.93016062 0 -23713.59806409 0 510
0.02350000 0.02348930 82349.53005270 0 4607.81440723 0 41825.70700244 0 14379.40679548 0 -18716.87931994 0 555
0.02450000 0.02439640 76220.88754233 0 6097.24139718 0 33150.87267677 0 15265.41422747 0 -5224.77541845 0 592
0.02550000 0.02547300 73252.17581195 0 1914.50461207 0 36247.35903555 0 10224.42832868 0 -2547.46513265 0 837
0.02650000 0.02652900 67304.45508912 0 4173.88999759 0 33605.50233383 0 8155.24333890 0 9574.91468250 0 723
0.02750000 0.02749970 68961.42849823 0 7951.26897109 0 40758.00272017 0 -5706.73157315 0 -2728.43120949 0 826
0.02850000 0.02848090 62709.99390562 0 4998.55675008 0 37682.22160880 0 6847.64606712 0 17600.78897822 0 831
0.02950000 0.02946900 60333.43010655 0 621.90148255 0 40618.15925771 0 -1315.87937075 0 16244.09701819 0 996
0.03050000 0.03053250 59269.60113797 0 1008.51938441 0 34065.22526030 0 9157.08943314 0 6818.71408237 0 1041
0.03150000 0.03150510 58075.22945979 0 8.83902583 0 32364.62689140 0 7732.63484522 0 4584.40751256 0 1036
0.03250000 0.03246190 56791.17195057 0 2066.22867906 0 20515.02487048 0 16794.17011518 0 -3437.65790342 0 1059
0.03350000 0.03345080 57968.27080204 0 -197.20696288 0 19444.22033727 0 7924.58466828 0 740.36207132 0 1302
0.03450000 0.03451200 54270.55720560 0 1127.70521045 0 14817.42796531 0 3242.93999916 0 -543.84934321 0 1339
0.03550000 0.03553350 52675.58881548 0 3946.66374766 0 13445.89909002 0 1227.15683198 0 -7037.56965473 0 1365
0.03650000 0.03647120 50077.68924328 0 1829.76811023 0 14428.01430143 0 -4850.79657537 0 325.17203527 0 1308
0.03750000 0.03744890 47890.46219860 0 1216.73777432 0 14453.03775552 0 -4249.07108310 0 -10584.67748898 0 1579
0.03850000 0.03847530 48398.23901478 0 1156.59290591 0 16082.99469208 0 -59.38873935 0 -7429.89534003 0 1662
0.03950000 0.03950240 47083.95405881 0 176.41978027 0 14920.17913962 0 5481.43190774 0 -495.87960317 0 1683
0.04050000 0.04050350 46995.59690676 0 493.64077909 0 12405.87561980 0 4124.35241635 0 -1367.63141695 0 1822
0.04150000 0.04152450 45730.03017999 0 229.56140323 0 11635.02036593 0 5092.42791989 0 1251.51594658 0 1887
0.04250000 0.04250150 46207.91171916 0 1342.98442190 0 11824.24639708 0 2903.17463977 0 -284.17896710 0 1920
0.04350000 0.04349210 43178.52364878 0 2358.00658268 0 12179.22513077 0 456.02034105 0 6583.37181835 0 2005
0.04450000 0.04448520 42278.01147128 0 2331.66552193 0 12796.50723941 0 607.09889150 0 4042.91546731 0 2151
0.04550000 0.04548030 40392.61600116 0 1263.19724926 0 13707.53812548 0 -2678.52824153 0 2440.17430516 0 2274
0.04650000 0.04648670 39781.97728741 0 934.52635934 0 14673.04484967 0 -844.65672772 0 -1554.23330712 0 2311
0.04750000 0.04749250 39436.85292281 0 -122.98474069 0 13364.73894910 0 -1638.91444733 0 -1393.05347473 0 2568
0.04850000 0.04851840 40233.83886326 0 282.16601845 0 14261.59725941 0 269.85027155 0 -3931.07391431 0 2493
0.04950000 0.04949480 40895.07810143 0 363.15786003 0 12936.46142511 0 3450.10319652 0 -1049.92434307 0 2644
0.05050000 0.05050630 39970.20680933 0 822.07693572 0 12499.76893427 0 5130.64958517 0 -1511.16196357 0 2829
0.05150000 0.05149060 39341.29875963 0 397.92938889 0 12928.60007449 0 2805.08491421 0 2745.72618085 0 2784
0.05250000 0.05249300 37996.01129416 0 718.74224988 0 11408.59132339 0 848.57190178 0 3763.62714608 0 3055
0.05350000 0.05348950 37322.26032895 0 1463.98278752 0 13025.48291666 0 282.89789912 0 4034.22369232 0 3009
0.05450000 0.05448610 36656.70288410 0 -30.66347491 0 13131.33434192 0 -2369.72110234 0 3429.30937051 0 3336
0.05550000 0.05550870 36133.42481317 0 939.27638669 0 13393.30554713 0 -458.14622742 0 351.88401890 0 3349
0.05650000 0.05647670 37208.65827631 0 -485.20034588 0 11616.64030673 0 -550.49716703 0 -1778.94613931 0 3324
0.05750000 0.05747970 36448.43245426 0 -17.61684385 0 9644.71461815 0 407.01423140 0 -3235.17829946 0 3639
0.05850000 0.05849280 37454.90678028 0 -28.78793381 0 9749.86848696 0 -96.69727000 0 -5439.09133764 0 3846
0.05950000 0.05951020 37017.43922669 0 -531.84362141 0 6763.86178521 0 1952.85914524 0 -6494.29496518 0 3787
0.06050000 0.06049470 35524.77911789 0 1647.13011235 0 8838.07361047 0 1672.37501293 0 -5252.35657957 0 3930
0.06150000 0.06148310 34891.55286151 0 1614.20101834 0 6276.19231090 0 1809.53897279 0 -4199.41170629 0 4083
0.06250000 0.06249100 33786.42412136 0 1713.66371218 0 8613.71509267 0 1730.20576546 0 -1505.22719747 0 4303
0.06350000 0.06350600 31216.75897745 0 1318.54780103 0 9233.68777624 0 768.60867917 0 -2400.08141699 0 4470
0.06450000 0.06451750 31340.21539918 0 1374.88378971 0 10087.54117695 0 -445.69539816 0 3533.42244078 0 4479
0.06550000 0.06550280 30343.26327251 0 -131.80495464 0 9781.30281712 0 994.32134229 0 4123.40019641 0 4636
0.06650000 0.06648880 31424.25434455 0 -1351.85335408 0 10242.73088161 0 1875.35287151 0 5039.11467589 0 4653
0.06750000 0.06749660 32437.81495845 0 -675.44945984 0 10182.05454160 0 2098.72595240 0 3977.12371323 0 5220
0.06850000 0.06852730 31834.70542558 0 871.74738485 0 9465.43153469 0 490.74093722 0 2401.01149227 0 5029
0.06950000 0.06949320 31436.43390185 0 1384.21775953 0 9927.96683166 0 -667.52056804 0 2327.03729016 0 5040
0.07050000 0.07048030 29421.60295460 0 1370.87560812 0 8240.58881860 0 -1643.48731748 0 676.87003912 0 5475
0.07150000 0.07148790 29071.71749033 0 1621.74127154 0 8396.02211441 0 -2357.34224319 0 -1206.26335504 0 5509
0.07250000 0.07249820 27173.47812343 0 1088.68523056 0 9130.32762405 0 -1908.03837437 0 -752.16849128 0 5916
0.07350000 0.07351270 26597.49578636 0 1291.55347312 0 9196.62870507 0 608.48182487 0 -1765.10573329 0 5721
0.07450000 0.07449140 25990.40021655 0 39.90665166 0 8585.84605110 0 1484.41122681 0 -2215.39503901 0 6028
0.07550000 0.07549160 26160.47112577 0 -1018.67159904 0 7567.93401354 0 2618.15085429 0 -3537.41955004 0 6183
0.07650000 0.07648840 26498.73064898 0 -136.58487727 0 8256.90942539 0 1580.27541509 0 -3195.58366591 0 6330
0.07750000 0.07749960 26636.47036972 0 1085.45986234 0 8630.73325591 0 -445.28018598 0 -2236.02278015 0 6583
0.07850000 0.07848650 25608.51573356 0 923.95118191 0 9481.55283963 0 -1472.37560973 0 -342.24888184 0 6549
0.07950000 0.07947320 24849.17569750 0 902.63917110 0 8352.04284023 0 -327.84710895 0 82.79131581 0 6828
0.08050000 0.08048110 24478.91715556 0 -142.42220691 0 9651.05906028 0 153.34062641 0 846.11495290 0 7147
0.08150000 0.08149960 24899.88694516 0 43.56771587 0 8565.18509299 0 1292.43925911 0 -143.77413777 0 7386
0.08250000 0.08250610 24611.23143714 0 3.65386719 0 8267.57207419 0 1435.15045369 0 -948.40330404 0 7227
0.08350000 0.08350160 24169.44567688 0 545.23006211 0 8237.37784440 0 74.06222710 0 -145.24786420 0 7798
0.08450000 0.08449610 24026.94485646 0 581.91267424 0 7188.19756156 0 1202.56519855 0 -134.54203334 0 7371
0.08550000 0.08548940 23129.31148341 0 169.66234043 0 8194.02969274 0 281.38320508 0 185.91429880 0 8256
0.08650000 0.08650700 23150.90251681 0 718.92605047 0 6948.31564437 0 11.52363278 0 -324.35379047 0 8037
0.08750000 0.08749060 22650.21198851 0 185.19902661 0 7723.05728425 0 1046.22618658 0 337.23422593 0 8155
0.08850000 0.08849210 22421.01486477 0 705.50639279 0 7156.82966535 0 -551.88120763 0 492.67527236 0 8718
0.08950000 0.08949900 22503.72513116 0 -179.38716332 0 7808.80136765 0 359.59257144 0 -929.62574838 0 8571
0.09050000 0.09049190 21716.15066681 0 461.73144619 0 7301.52280608 0 -364.67809023 0 -151.26788721 0 8932
0.09150000 0.09150830 21356.85372645 0 1457.76014097 0 7253.36926545 0 558.94202917 0 -773.87910578 0 9285
0.09250000 0.09250820 20486.45827245 0 670.00851943 0 7591.23018496 0 517.57250195 0 330.67940964 0 9204
0.09350000 0.09350330 20105.34885219 0 284.96620939 0 7505.37537832 0 505.42948332 0 -534.59398689 0 9349
0.09450000 0.09448040 19901.83952203 0 107.66130748 0 7504.23492886 0 674.50388330 0 466.18141354 0 9564
0.09550000 0.09549270 19418.86471344 0 494.28518839 0 7250.42402705 0 -106.13221942 0 351.37469196 0 10155
0.09650000 0.09649430 19177.15586265 0 396.83987213 0 7399.02569844 0 237.51686861 0 516.13863589 0 9913
0.09750000 0.09749140 18952.05549908 0 120.20558716 0 8209.29842866 0 -653.61040637 0 459.62106108 0 10476
0.09850000 0.09850240 18711.01098778 0 682.22572263 0 7736.97519655 0 242.74411316 0 -665.13337481 0 10575
0.09950000 0.09950330 18204.45212733 0 260.88833184 0 8001.86949551 0 275.70420968 0 238.80125829 0 10882
0.10050000 0.10051200 18091.73586068 0 -7.44833076 0 7075.84668163 0 614.53174315 0 -799.87913892 0 10875
0.10150000 0.10150300 17617.50818869 0 309.64420695 0 6719.80500476 0 1156.99150960 0 -701.67315394 0 11118
0.10250000 0.10250800 17310.36189822 0 486.88001755 0 6148.37339320 0 516.63024711 0 -794.64303651 0 11575
0.10350000 0.10349800 16926.26295026 0 640.70561179 0 5490.33405690 0 953.54861338 0 418.75421741 0 11364
0.10450000 0.10450100 16614.57700662 0 149.42102343 0 5278.09973477 0 408.86663135 0 484.25809104 0 12093
0.10550000 0.10551000 16137.35980694 0 126.90545091 0 4697.77704638 0 889.48746368 0 1075.07402166 0 12067
0.10650000 0.10649700 16268.78830253 0 139.60651471 0 4922.45666160 0 282.42400361 0 470.18516619 0 12054
0.10750000 0.10749900 16232.69252362 0 172.20786790 0 4322.17057156 0 198.70061950 0 225.05164533 0 12807
0.10850000 0.10850100 15690.37005401 0 432.74520705 0 4470.41792855 0 380.64106092 0 1050.83448817 0 12736
0.10950000 0.10950300 15297.30252295 0 616.57237262 0 4109.21654832 0 24.89446151 0 162.33799756 0 12933
0.11050000 0.11050200 15001.11783405 0 329.85230697 0 4355.86365598 0 191.54014704 0 152.54120456 0 13428
0.11150000 0.11150900 14350.28658121 0 513.00184627 0 4161.17896869 0 -291.95506082 0 -151.47715415 0 13453
0.11250000 0.11250000 14332.90303124 0 120.29859469 0 4450.01163391 0 -57.61152050 0 743.87199829 0 13668
0.11350000 0.11349100 14202.69249137 0 -33.80137176 0 4569.98027332 0 151.03979732 0 193.34050705 0 13791
0.11450000 0.11448600 14167.26105195 0 120.10040008 0 4252.78031192 0 254.47856300 0 451.20055806 0 14205
0.11550000 0.11549300 14420.81729030 0 25.00928151 0 5016.98109858 0 -89.37979197 0 187.41016988 0 14776
0.11650000 0.11649800 14141.01964213 0 101.92949709 0 4817.38029907 0 32.62958762 0 531.09845395 0 14553
0.11750000 0.11747300 14451.59835330 0 51.08161693 0 5043.74290766 0 96.23012862 0 317.90416126 0 14568
0.11850000 0.11849100 14066.72434260 0 112.72955344 0 4825.72883198 0 16.22815287 0 102.91858787 0 16015
0.11950000 0.11950300 14205.46057258 0 77.12294985 0 5176.36721434 0 -120.10704347 0 532.70836998 0 15270
0.12050000 0.12050700 14164.49297075 0 171.03420147 0 4801.51365761 0 434.29533252 0 490.46855803 0 15999
0.12150000 0.12150000 14188.74136210 0 -111.69318384 0 4867.29433935 0 519.60316632 0 1084.81434580 0 15670
0.12250000 0.12250700 13952.67939697 0 112.41952835 0 4486.52816117 0 715.98634824 0 968.15633152 0 16887
0.12350000 0.12352200 14056.53780377 0 77.10944161 0 4051.49651904 0 844.36774004 0 1175.84767877 0 16407
0.12450000 0.12449800 13812.72521126 0 105.87954897 0 3979.82536049 0 209.79841066 0 966.75678966 0 16306
0.12550000 0.12549900 13742.41594866 0 327.16062481 0 4039.61591451 0 225.91750113 0 1292.82679047 0 17523
0.12650000 0.12650100 13383.78334779 0 473.83903338 0 4254.13113555 0 -568.19627825 0 915.32030471 0 17154
0.12750000 0.12750600 13031.35124881 0 370.58185382 0 4031.72134691 0 -281.46624752 0 687.54376024 0 18007
0.12850000 0.12850300 12697.18848578 0 170.13402147 0 4205.56791889 0 -434.28868913 0 524.04538304 0 17496
0.12950000 0.12949900 12696.63486954 0 152.01859083 0 4566.89109470 0 51.33107641 0 139.63751722 0 18405
0.13050000 0.13049000 12534.64675744 0 58.89137052 0 4114.53126423 0 82.00274484 0 -205.29418893 0 18100
0.13150000 0.13148800 12726.53014655 0 -124.27798823 0 4334.11761004 0 279.07351812 0 -295.01766586 0 19059
0.13250000 0.13249300 12843.01100364 0 -178.52462921 0 4021.98877340 0 26.69537514 0 -636.22353471 0 18957
0.13350000 0.13349100 12956.61305628 0 -117.36885754 0 3675.15927078 0 190.14171241 0 -708.84802042 0 19468
0.13450000 0.13450700 12933.25045092 0 151.80821666 0 3527.08907098 0 -82.49767776 0 -1587.26205205 0 19953
0.13550000 0.13551000 12581.81486117 0 488.51539993 0 3475.10450596 0 -120.15686893 0 -1587.05167788 0 19956
0.13650000 0.13649900 12431.23124364 0 444.12534250 0 3465.05083502 0 -197.32322229 0 -1634.80661482 0 19723
0.13750000 0.13749600 11927.77263413 0 327.96004666 0 3663.42260647 0 -149.89713339 0 -1765.80328975 0 20946
0.13850000 0.13851100 11720.60943678 0 338.19308926 0 3760.56011211 0 339.67235186 0 -1649.84283193 0 20955
0.13950000 0.13949800 11399.73346353 0 208.46751722 0 3465.88125938 0 302.88676711 0 -1095.09942833 0 20506
0.14050000 0.14048300 11259.89000107 0 403.51869846 0 3710.34711905 0 655.29782867 0 -1132.65453965 0 21447
0.14150000 0.14148400 10933.96504771 0 256.95987100 0 3484.31668021 0 711.48323373 0 87.25789164 0 21771
0.14250000 0.14249400 10844.14634878 0 -46.98607471 0 3449.98140094 0 762.82892561 0 479.29879675 0 22470
0.14350000 0.14350900 10822.10135007 0 -187.79659402 0 3220.29709490 0 739.06550209 0 543.30679929 0 22519
0.14450000 0.14449900 10888.66816688 0 49.48044804 0 3179.36271005 0 204.48590922 0 796.44118207 0 22218
0.14550000 0.14550500 10721.15496470 0 362.36397434 0 2961.72509341 0 -54.35858219 0 673.05119429 0 23559
0.14650000 0.14650700 10548.22739568 0 304.95286292 0 2857.96633754 0 -294.10419907 0 1088.98971949 0 23044
0.14750000 0.14750500 10391.03360023 0 75.29656987 0 2992.86047080 0 -172.71387315 0 700.93241541 0 23649
0.14850000 0.14849900 10408.58323507 0 7.75138029 0 3399.95663741 0 -178.64863925 0 1233.54556340 0 23640
0.14950000 0.14949500 10513.91426107 0 -44.32406637 0 3098.86690862 0 -41.67711640 0 380.87579420 0 24457
0.15050000 0.15050000 10462.21757649 0 309.52684031 0 3349.57755949 0 -48.38838465 0 577.23904593 0 24591
0.15150000 0.15149900 10224.04079732 0 114.03830224 0 3495.49972827 0 -26.13821575 0 486.80804744 0 25020
0.15250000 0.15250500 10022.61306421 0 185.00858263 0 3281.37203860 0 264.94523166 0 328.80265058 0 25297
0.15350000 0.15350100 9854.63482439 0 241.52505020 0 3241.81062203 0 237.22677370 0 772.64786326 0 25452
0.15450000 0.15450400 9703.63045851 0 94.72672835 0 3183.27124071 0 165.95975501 0 277.20118800 0 26061
0.15550000 0.15549900 9596.77145169 0 58.34561563 0 3020.62986145 0 159.37947237 0 254.77530131 0 26128
0.15650000 0.15649500 9604.10133072 0 231.64410753 0 2947.76289182 0 -120.75256001 0 85.86820416 0 26331
0.15750000 0.15749700 9349.92504218 0 158.74281369 0 2672.52704148 0 -155.65474230 0 94.70613383 0 27345
0.15850000 0.15849900 9290.12341584 0 135.94932582 0 2914.98881036 0 170.41193682 0 -23.86706049 0 26980
0.15950000 0.15949700 9255.89885982 0 24.19125816 0 2922.17474916 0 41.43075718 0 -240.65808717 0 27777
0.16050000 0.16050000 9116.16612061 0 111.79283476 0 2905.01264569 0 131.61783235 0 -86.70017864 0 28224
0.16150000 0.16150500 9018.39749246 0 157.86920726 0 2720.81345001 0 167.71361126 0 -35.99258484 0 28075
0.16250000 0.16249700 8943.58179366 0 128.57847919 0 2655.25421476 0 334.23916207 0 399.78178883 0 28590
0.16350000 0.16349900 8763.77831093 0 106.07896154 0 2477.70948629 0 461.26197962 0 287.35893879 0 29163
0.16450000 0.16449100 8828.67320670 0 142.07010698 0 2448.86608014 0 259.40796201 0 342.47143557 0 28996
0.16550000 0.16550500 8573.58898752 0 262.58461200 0 2347.67610362 0 88.57970578 0 401.52900169 0 30777
0.16650000 0.16650700 8442.89126536 0 211.37510972 0 2317.76975429 0 -27.26427119 0 814.38609890 0 29211
0.16750000 0.16749900 8273.62863586 0 10.50750338 0 2215.60541319 0 -38.64030988 0 377.35700938 0 30922
0.16850000 0.16850800 8235.67270638 0 87.39563137 0 2384.53587294 0 3.83422429 0 357.78778249 0 30867
0.16950000 0.16949900 8268.39142622 0 178.53237984 0 2554.38533566 0 -91.37192465 0 83.37837047 0 30852
0.17050000 0.17049200 8075.67761275 0 99.39924942 0 2357.49725574 0 -138.97760666 0 264.58870280 0 31257
0.17150000 0.17149500 7980.43347466 0 -34.13763826 0 2347.36607853 0 -18.84155370 0 257.27432502 0 32608
0.17250000 0.17250900 8115.85907952 0 -6.08574832 0 2470.16923309 0 179.44031048 0 46.19750373 0 32361
0.17350000 0.17350400 8073.95033008 0 71.93656218 0 2387.30395415 0 107.22649729 0 -139.41717795 0 32508
0.17450000 0.17449800 8048.65006787 0 -6.52255154 0 2035.83514743 0 320.84607797 0 -99.88012049 0 32791
0.17550000 0.17549800 7992.54659802 0 91.49017708 0 2141.45405388 0 -27.87878521 0 59.11071328 0 33633
0.17650000 0.17650100 7979.54768868 0 184.48707613 0 2011.49817748 0 156.12310164 0 80.33968165 0 33984
0.17750000 0.17750300 7768.36523741 0 76.56556901 0 1989.22065994 0 93.08370607 0 81.16933095 0 34069
0.17850000 0.17849800 7874.59312172 0 -35.58944149 0 1807.60131594 0 35.70747248 0 -68.83420749 0 34536
