### header ###
fiducial parameters:
Omega_m = 0.31
Omega_nu = 0
Omega_de = 0.69
Omega_k = 0
H_0 = 100
w_de = -1
zeff = 0
beta = 0
fgrowth = 0
b_1 = 2
gamma = 0.55
Lx = 3500 Ly = 3500 Lz = 3500
nx = 700 ny = 700 nz = 700
xoffset = -685.467585 yoffset = -31.7331281 zoffset = 572.489161
bins = 400 dk = 0.001
kx_ny = 0.628318531 ky_ny = 0.628318531 kz_ny = 0.628318531
############################
A(data) = 8.05937452 (not used)
A(ran) = 8.05981534 (used)
Ngal = 479182
weighted Ngal = 0
Nran = 23820508
weighted Nran = 0
SN(data) = 3481.4351
SN(ran) = 70.2039147
SN(data+ran) = 3551.63901
############################
13 columns: k_central k_mean P_0(k) sigma^{lin}_{P_0(k)} P^img_1(k) sigma^{lin}_{P_1(k)} P_2(k) sigma^{lin}_{P_2(k)} P^img_3(k) sigma^{lin}_{P_3(k)} P_4(k) sigma^{lin}_{P_4(k)} N_modes
### header ###
0.00050000 0 0 0 0 0 0 0 0 0 0 0 0
0.00150000 0.00179520 130717.65234397 0 -112481.53336766 0 -41026.83876677 0 256006.54382937 0 -246093.49141923 0 3
0.00250000 0.00253879 221102.14707107 0 -100486.33027538 0 20997.22461634 0 -128716.88324925 0 172713.87314862 0 6
0.00350000 0.00331552 214950.36340183 0 -14647.24633284 0 -35171.23978643 0 -187415.70604282 0 10800.59889527 0 7
0.00450000 0.00420575 189469.62229668 0 53863.31709877 0 -40597.89690330 0 -72579.64280247 0 92064.72001832 0 24
0.00550000 0.00557378 111138.46036716 0 43754.61670909 0 -6955.55694480 0 -39241.98000601 0 25362.59939934 0 45
0.00650000 0.00659388 92758.06899846 0 18120.41318196 0 11743.63987240 0 -6452.49693899 0 -12014.24749097 0 40
0.00750000 0.00754703 68904.95964166 0 5436.14609924 0 2873.30150741 0 6765.09081327 0 9124.86896792 0 57
0.00850000 0.00846663 61189.98515452 0 3184.06844810 0 5048.23827154 0 1514.67189054 0 12748.56407294 0 75
0.00950000 0.00948925 66834.10273082 0 -10788.86223096 0 15563.48121159 0 -619.52093272 0 4361.43303536 0 112
0.01050000 0.01054430 70711.07726607 0 5909.41047896 0 9624.21974491 0 -2779.31961435 0 15310.03569649 0 105
0.01150000 0.01145670 67980.42051930 0 2536.64747130 0 -3125.24118634 0 -4590.13190449 0 12339.88456388 0 144
0.01250000 0.01249090 71011.69088490 0 1560.81026806 0 5451.62520933 0 -13373.15391596 0 -4711.00847454 0 169
0.01350000 0.01339930 73432.54398325 0 6867.27729902 0 16483.48068077 0 -24333.75897719 0 -16291.59729166 0 180
0.01450000 0.01448870 65896.71971168 0 1067.19606255 0 20397.32605766 0 -7153.71834208 0 3796.21299802 0 267
0.01550000 0.01550050 72635.77948930 0 -4667.32815313 0 43055.39939680 0 -3024.37230724 0 11014.85945284 0 238
0.01650000 0.01653350 74093.22960518 0 -4741.31342757 0 38731.98872486 0 18936.33279784 0 4774.64112527 0 315
0.01750000 0.01747870 78892.30735132 0 5269.36367049 0 45938.18988658 0 29511.28878563 0 16792.61998970 0 297
0.01850000 0.01844180 68688.60641470 0 5567.09848487 0 29673.60906748 0 8575.48235507 0 36376.79451268 0 388
0.01950000 0.01947590 71610.26076460 0 3633.08443647 0 50950.07771574 0 18715.43991771 0 58634.49258638 0 399
0.02050000 0.02045430 72724.57953434 0 -374.46491813 0 45022.50862408 0 17144.49847244 0 56288.59912705 0 462
0.02150000 0.02154770 75971.09589442 0 -2645.14518220 0 49935.29914611 0 11900.31326858 0 55756.02030327 0 571
0.02250000 0.02255340 69559.22331519 0 3242.08743015 0 43071.01137479 0 8822.06302878 0 62223.36522984 0 510
0.02350000 0.02348930 73558.21486994 0 -1171.49625511 0 38532.79760137 0 8304.01109516 0 38911.69255667 0 555
0.02450000 0.02439640 77009.45851591 0 -722.49466076 0 41613.56125891 0 13284.24314767 0 38993.73848357 0 592
0.02550000 0.02547300 72460.83675716 0 5369.41319755 0 39102.24726679 0 -3006.25798384 0 17611.41841004 0 837
0.02650000 0.02652900 68997.74572364 0 5206.96004782 0 38864.08155994 0 -12939.34022957 0 16574.05229778 0 723
0.02750000 0.02749970 62173.98266115 0 8690.60131621 0 45874.08112588 0 -8947.70069850 0 14939.00209181 0 826
0.02850000 0.02848090 58859.81439643 0 5632.02659760 0 49484.54480274 0 -5631.50619834 0 7303.27223340 0 831
0.02950000 0.02946900 57374.90491501 0 -17.23219129 0 49884.92006818 0 16261.25912166 0 2775.38893904 0 996
0.03050000 0.03053250 56090.84740579 0 -1302.67008724 0 44411.64846383 0 13696.24435417 0 -758.56829502 0 1041
0.03150000 0.03150510 57743.05971523 0 -489.84740060 0 34930.41672162 0 13758.91371264 0 7374.31226944 0 1036
0.03250000 0.03246190 57990.19400518 0 -150.96782720 0 36370.04039454 0 12367.45465268 0 2571.74674098 0 1059
0.03350000 0.03345080 55553.17531259 0 -1254.21759383 0 23613.72569423 0 6747.37509356 0 12081.34577937 0 1302
0.03450000 0.03451200 56077.00699976 0 1186.53247222 0 22900.66797591 0 9943.73382221 0 7249.33893921 0 1339
0.03550000 0.03553350 55294.96869782 0 47.57966204 0 13753.37755023 0 2782.72989040 0 9634.47271770 0 1365
0.03650000 0.03647120 56687.42426702 0 544.45832107 0 13126.01962601 0 5651.87927600 0 3327.23360800 0 1308
0.03750000 0.03744890 52612.14439427 0 3224.36063811 0 11065.39354331 0 -2884.20774736 0 -199.30738290 0 1579
0.03850000 0.03847530 51413.89740239 0 4141.11591612 0 9321.79026482 0 -3953.61716764 0 593.17212135 0 1662
0.03950000 0.03950240 49649.30099604 0 2208.81807807 0 17208.60723314 0 -5091.27639811 0 -2819.52322577 0 1683
0.04050000 0.04050350 46907.35047795 0 2821.37230401 0 19737.74766822 0 -4867.58221980 0 -3285.23627997 0 1822
0.04150000 0.04152450 45702.01719820 0 1865.70887659 0 18743.45289950 0 1525.41204562 0 -5347.08031840 0 1887
0.04250000 0.04250150 43824.15090895 0 1134.28217140 0 17982.11984497 0 708.98863895 0 -87.34813109 0 1920
0.04350000 0.04349210 44653.91093086 0 -1132.37773153 0 17895.20209514 0 5451.10481007 0 -6547.66357081 0 2005
0.04450000 0.04448520 43631.27101061 0 437.95473588 0 19279.02125098 0 4615.34358811 0 -3210.38736419 0 2151
0.04550000 0.04548030 41703.02564345 0 2784.75612584 0 16971.99165177 0 832.73404836 0 -5554.67533642 0 2274
0.04650000 0.04648670 40661.45204776 0 1240.01180109 0 17783.48233772 0 -1701.63916743 0 -4355.65328181 0 2311
0.04750000 0.04749250 40635.32136118 0 450.29484189 0 18216.85313113 0 1080.75190983 0 -1617.45628183 0 2568
0.04850000 0.04851840 38027.89958964 0 1325.49014869 0 17108.84558652 0 -437.46644635 0 -1516.55418576 0 2493
0.04950000 0.04949480 39851.84365702 0 1505.75866906 0 20442.94403591 0 1070.34724620 0 2983.51542866 0 2644
0.05050000 0.05050630 38337.26034507 0 -477.52833201 0 17055.25553440 0 4692.35160722 0 1698.50569951 0 2829
0.05150000 0.05149060 39471.28785300 0 -401.87888715 0 18911.86295999 0 3714.64318108 0 3633.27266599 0 2784
0.05250000 0.05249300 39107.45125946 0 -448.07816246 0 17282.34891643 0 1976.25496758 0 4161.84330818 0 3055
0.05350000 0.05348950 38702.42561759 0 823.68463728 0 20050.09795135 0 1936.85963588 0 7756.25211406 0 3009
0.05450000 0.05448610 38017.49160431 0 2547.80837472 0 20290.69956966 0 -1471.34588353 0 5765.89100466 0 3336
0.05550000 0.05550870 36693.68444899 0 2709.05464105 0 22141.32793985 0 -499.81802910 0 5947.68750586 0 3349
0.05650000 0.05647670 34689.04004058 0 1188.74693718 0 18065.16228111 0 -82.20005367 0 8187.23128530 0 3324
0.05750000 0.05747970 35685.10638126 0 -346.16184143 0 21042.28897835 0 2514.69105119 0 8223.47100443 0 3639
0.05850000 0.05849280 34948.24316458 0 -1167.67630305 0 16433.87666558 0 3569.60679828 0 2848.74309097 0 3846
0.05950000 0.05951020 36069.53749897 0 474.63734800 0 16428.56194967 0 1348.91918801 0 -1064.13235028 0 3787
0.06050000 0.06049470 34743.62660193 0 1761.38543215 0 14580.59093743 0 562.07438986 0 -141.02930845 0 3930
0.06150000 0.06148310 32286.12410844 0 2019.42596205 0 16063.95029339 0 -764.35801367 0 2297.90600356 0 4083
0.06250000 0.06249100 32461.62045681 0 855.16436397 0 15552.85177976 0 1025.39803636 0 3964.12480390 0 4303
0.06350000 0.06350600 31546.60353380 0 -652.52531854 0 17525.49716945 0 1969.63371734 0 5493.93256246 0 4470
0.06450000 0.06451750 31884.30944077 0 78.64550523 0 16514.48319026 0 4388.47165257 0 6126.67163655 0 4479
0.06550000 0.06550280 33055.42923683 0 -981.48851783 0 15365.61876708 0 2510.78252053 0 4631.74170116 0 4636
0.06650000 0.06648880 33019.22273468 0 -824.04891677 0 14217.97229962 0 879.30756824 0 6803.48963574 0 4653
0.06750000 0.06749660 32827.78223856 0 986.00602636 0 14373.75990982 0 -375.74044995 0 5136.00859038 0 5220
0.06850000 0.06852730 31861.38972839 0 876.91483885 0 12746.23888473 0 385.06777638 0 4260.18769722 0 5029
0.06950000 0.06949320 31309.10216644 0 1129.11139571 0 10928.50639158 0 2228.57110555 0 3020.17589613 0 5040
0.07050000 0.07048030 30012.09003718 0 694.14175860 0 9889.70087709 0 918.49252577 0 630.46592580 0 5475
0.07150000 0.07148790 29134.38684881 0 813.90888170 0 9773.25323697 0 376.39482435 0 -806.97207020 0 5509
0.07250000 0.07249820 29027.09602132 0 1274.05919991 0 9957.54101126 0 -45.12348823 0 -1890.80983696 0 5916
0.07350000 0.07351270 26941.62364172 0 802.64611289 0 8588.61413230 0 309.04851587 0 -50.25739308 0 5721
0.07450000 0.07449140 27029.98079378 0 960.80098614 0 9946.86729013 0 495.53193217 0 1150.24846379 0 6028
0.07550000 0.07549160 26991.89199640 0 116.42438824 0 9253.85047973 0 981.39218860 0 -413.45832445 0 6183
0.07650000 0.07648840 26921.58273380 0 -130.54492408 0 10012.27151283 0 1256.55385437 0 612.49554262 0 6330
0.07750000 0.07749960 25917.87648899 0 876.59595589 0 8769.95666818 0 -617.34522089 0 -492.50918749 0 6583
0.07850000 0.07848650 25931.93834151 0 1472.99565992 0 10486.01200252 0 -1087.79501565 0 656.51024824 0 6549
0.07950000 0.07947320 24926.79269447 0 502.53739208 0 10731.60723933 0 -1021.30681234 0 -638.79120683 0 6828
0.08050000 0.08048110 24675.56164434 0 185.94308684 0 10919.49351917 0 670.88101862 0 -708.77272862 0 7147
0.08150000 0.08149960 24445.25728811 0 -446.52582252 0 10927.33272515 0 692.91383778 0 -1617.98775342 0 7386
0.08250000 0.08250610 24399.75003311 0 31.40764586 0 11296.20722648 0 904.47939148 0 -822.48107557 0 7227
0.08350000 0.08350160 24518.99897140 0 376.91300915 0 11269.85509341 0 970.08180880 0 -423.99585598 0 7798
0.08450000 0.08449610 24299.21332375 0 734.35865681 0 11305.28653283 0 468.58189356 0 1198.41307675 0 7371
0.08550000 0.08548940 23152.23119579 0 1186.58783384 0 10734.29781426 0 882.48200377 0 2743.99889818 0 8256
0.08650000 0.08650700 22595.07181092 0 398.31027686 0 10911.05640766 0 393.77948155 0 2993.67982284 0 8037
0.08750000 0.08749060 22635.26435001 0 156.05777492 0 10721.94109976 0 1648.08233228 0 2503.26441197 0 8155
0.08850000 0.08849210 22019.75381334 0 -273.40227335 0 9899.52202921 0 548.31924074 0 2808.18516515 0 8718
0.08950000 0.08949900 22219.71999956 0 -116.88942588 0 9414.68707005 0 1259.87555181 0 1523.23079763 0 8571
0.09050000 0.09049190 22124.83017587 0 567.84639279 0 8560.65651213 0 736.28081240 0 833.22123065 0 8932
0.09150000 0.09150830 21200.62322325 0 619.67926696 0 7241.31150372 0 1824.12122457 0 389.59635723 0 9285
0.09250000 0.09250820 20421.46372577 0 866.36623499 0 6574.54717547 0 288.94228123 0 1042.85909260 0 9204
0.09350000 0.09350330 19837.62003808 0 470.16412877 0 5802.16394077 0 1752.82652507 0 915.24501290 0 9349
0.09450000 0.09448040 19471.67970282 0 67.75111267 0 5470.45923385 0 1001.40098678 0 1901.98181270 0 9564
0.09550000 0.09549270 19529.80940812 0 587.82086676 0 5389.68662430 0 716.54660787 0 1889.23756683 0 10155
0.09650000 0.09649430 19020.15029672 0 377.30496945 0 4755.90675168 0 296.41167156 0 2703.95029931 0 9913
0.09750000 0.09749140 18498.64379776 0 304.78788528 0 5267.62531550 0 278.38814122 0 3507.25853723 0 10476
0.09850000 0.09850240 18478.27072009 0 128.26734686 0 5455.92127136 0 -97.69156477 0 3310.12686616 0 10575
0.09950000 0.09950330 18168.13490192 0 509.50077716 0 5674.62183118 0 254.34901680 0 2579.61916392 0 10882
0.10050000 0.10051200 17967.17220647 0 80.62778354 0 5480.46861549 0 -112.53246606 0 1692.77023525 0 10875
0.10150000 0.10150300 17843.38361499 0 124.98329532 0 4778.92611498 0 -401.00749519 0 1459.95246129 0 11118
0.10250000 0.10250800 17843.93723123 0 30.41235458 0 5179.13529555 0 -405.64015589 0 150.88367754 0 11575
0.10350000 0.10349800 17528.48669715 0 330.19554904 0 5161.48600978 0 -58.16292227 0 210.08075495 0 11364
0.10450000 0.10450100 17511.21387043 0 419.90906089 0 4824.23406813 0 -401.38506147 0 -1124.59388718 0 12093
0.10550000 0.10551000 16702.93415867 0 549.01015381 0 4556.12879498 0 224.29319108 0 -234.59377486 0 12067
0.10650000 0.10649700 16510.60787657 0 456.14878002 0 4943.21727064 0 36.56048438 0 -865.61553137 0 12054
0.10750000 0.10749900 15962.74924455 0 155.82193441 0 4733.04240093 0 356.57204123 0 -520.50445356 0 12807
0.10850000 0.10850100 16158.39722409 0 -194.19529053 0 5259.60895233 0 248.66891417 0 -980.14876653 0 12736
0.10950000 0.10950300 15908.60557618 0 301.84153965 0 4854.82690161 0 -470.90597454 0 -1218.81937139 0 12933
0.11050000 0.11050200 16032.94778390 0 534.49433597 0 5831.92634988 0 -574.58611691 0 -1283.13850626 0 13428
0.11150000 0.11150900 15308.04267802 0 636.61438777 0 5786.67375835 0 -378.24833152 0 359.66454155 0 13453
0.11250000 0.11250000 15306.16038280 0 363.67715206 0 6060.49235111 0 303.59207420 0 820.55006213 0 13668
0.11350000 0.11349100 14892.27688108 0 3.18720192 0 6006.99087759 0 1189.43342132 0 882.45321572 0 13791
0.11450000 0.11448600 14994.14226941 0 -1.45018667 0 5638.01672533 0 1173.78822635 0 314.28793998 0 14205
0.11550000 0.11549300 14749.33316767 0 193.50216300 0 5289.00597472 0 610.88009043 0 934.18754620 0 14776
0.11650000 0.11649800 14526.77943882 0 345.27826991 0 4894.27759494 0 359.44420229 0 1034.19167673 0 14553
0.11750000 0.11747300 14286.95288324 0 425.05215577 0 4991.24901570 0 -85.72492827 0 905.98854936 0 14568
0.11850000 0.11849100 14123.52536892 0 120.49346761 0 4727.39551527 0 32.71251934 0 853.67402905 0 16015
0.11950000 0.11950300 13790.13766863 0 41.69937178 0 4421.87685655 0 201.30040137 0 854.68825401 0 15270
0.12050000 0.12050700 14048.89789964 0 -63.21622060 0 4253.66609790 0 229.72970257 0 477.08876072 0 15999
0.12150000 0.12150000 13904.73623050 0 -0.16266242 0 4169.66036951 0 420.74391418 0 275.22477802 0 15670
0.12250000 0.12250700 14133.60118451 0 94.39223342 0 4435.51796073 0 -41.61876525 0 180.08582701 0 16887
0.12350000 0.12352200 13732.67230282 0 243.84138055 0 4167.05837317 0 283.05623336 0 292.82977448 0 16407
0.12450000 0.12449800 13918.46591328 0 8.00061832 0 4277.96985088 0 -372.65348579 0 -128.43896790 0 16306
0.12550000 0.12549900 13622.28122438 0 303.12592933 0 4403.02068738 0 -3.36267612 0 47.06834208 0 17523
0.12650000 0.12650100 13410.57837385 0 515.54183758 0 4550.94694696 0 -163.34004296 0 459.47933532 0 17154
0.12750000 0.12750600 13126.01962601 0 259.95604209 0 4436.19337254 0 660.01353181 0 642.10736812 0 18007
0.12850000 0.12850300 12961.59560245 0 -11.50558489 0 4178.29678286 0 427.76266088 0 685.61606849 0 17496
0.12950000 0.12949900 12976.87541070 0 -95.43945390 0 3899.40706533 0 354.52033944 0 251.45803279 0 18405
0.13050000 0.13049000 13018.06445903 0 98.17077499 0 4363.21567966 0 -15.58097548 0 1112.70221033 0 18100
0.13150000 0.13148800 12860.72672335 0 217.82252446 0 4282.86381845 0 -128.17433933 0 887.48115842 0 19059
0.13250000 0.13249300 12749.89275192 0 186.82998006 0 4298.18791600 0 -62.21672183 0 944.58003028 0 18957
0.13350000 0.13349100 12534.20386445 0 113.01300496 0 4268.73553198 0 179.97953269 0 682.65200714 0 19468
0.13450000 0.13450700 12421.81976754 0 223.98980938 0 4234.52204829 0 50.06639547 0 605.42032706 0 19953
0.13550000 0.13551000 12314.86110979 0 29.56144642 0 3997.81788832 0 154.42460701 0 329.58103502 0 19956
0.13650000 0.13649900 12349.07459348 0 264.73928641 0 4185.21698588 0 448.25642689 0 520.30183002 0 19723
0.13750000 0.13749600 12238.24062205 0 82.98973187 0 3680.15288927 0 111.72750805 0 586.80442734 0 20946
0.13850000 0.13851100 12118.32734426 0 85.89389195 0 4086.56257174 0 -30.07021974 0 613.72457068 0 20955
0.13950000 0.13949800 11931.53722457 0 456.83194246 0 4037.19107537 0 7.61618721 0 564.68745852 0 20506
0.14050000 0.14048300 11534.48365658 0 288.13732322 0 4268.18191574 0 -119.04410029 0 506.28537403 0 21447
0.14150000 0.14148400 11379.69255561 0 446.59114924 0 4452.07108633 0 230.82918442 0 800.23677501 0 21771
0.14250000 0.14249400 10996.87799733 0 283.55891691 0 4284.18142510 0 177.84700293 0 792.88364410 0 22470
0.14350000 0.14350900 10719.66020085 0 120.71823580 0 4079.95239382 0 449.88184417 0 923.83049357 0 22519
0.14450000 0.14449900 10664.39822768 0 28.56836960 0 3517.43400374 0 469.26616323 0 123.33019722 0 22218
0.14550000 0.14550500 10587.01374952 0 166.51558572 0 3366.15282974 0 300.89817757 0 446.24237100 0 23559
0.14650000 0.14650700 10292.55634329 0 188.68570170 0 2950.42024978 0 223.60006355 0 -291.81887122 0 23044
0.14750000 0.14750500 10302.26677216 0 -40.00442029 0 2691.42749994 0 -27.16550605 0 -361.18255728 0 23649
0.14850000 0.14849900 10145.94769037 0 33.56619558 0 2591.54405775 0 -133.29750403 0 -451.11530116 0 23640
0.14950000 0.14949500 10263.24789950 0 57.83019891 0 2424.44053159 0 109.24874669 0 -608.23601926 0 24457
0.15050000 0.15050000 10212.87989390 0 37.86270050 0 2392.64081471 0 -297.31738773 0 -488.82985395 0 24591
0.15150000 0.15149900 10110.09550261 0 322.04410351 0 2551.84977328 0 -69.24078325 0 -703.81011263 0 25020
0.15250000 0.15250500 9926.47206781 0 312.97476225 0 2894.52715409 0 -22.10955037 0 -326.13089860 0 25297
0.15350000 0.15350100 9684.29817938 0 161.69469549 0 3048.98608531 0 129.93151728 0 112.31544850 0 25452
0.15450000 0.15450400 9656.98275405 0 87.17595644 0 3003.31274543 0 556.36992811 0 266.45549676 0 26061
0.15550000 0.15549900 9532.61840169 0 70.41544619 0 2930.73365625 0 349.06057607 0 34.91646559 0 26128
0.15650000 0.15649500 9485.82675701 0 235.38544609 0 2818.36063166 0 353.22819913 0 267.20398592 0 26331
0.15750000 0.15749700 9289.70266749 0 94.58389536 0 2707.78132370 0 -80.12432493 0 475.48991701 0 27345
0.15850000 0.15849900 9098.21788208 0 133.71825237 0 2526.36128155 0 176.84827924 0 337.68819125 0 26980
0.15950000 0.15949700 9129.95116501 0 -49.99841140 0 2507.26152123 0 66.44225316 0 215.91033396 0 27777
0.16050000 0.16050000 9204.82222543 0 -36.19166524 0 2235.93420155 0 269.87573790 0 -170.14841549 0 28224
0.16150000 0.16150500 9187.95907474 0 43.23997505 0 2194.63442998 0 -44.04039341 0 -161.33373770 0 28075
0.16250000 0.16249700 8993.14151955 0 233.44003862 0 2063.94778014 0 98.23178350 0 -241.48408260 0 28590
0.16350000 0.16349900 8931.78976773 0 106.94647819 0 2169.10164895 0 -21.66322495 0 -192.13915981 0 29163
0.16450000 0.16449100 8908.41609004 0 137.37101233 0 2378.37966034 0 -61.76530315 0 -329.49467088 0 28996
0.16550000 0.16550500 8682.39672352 0 246.49541681 0 2514.22601354 0 -215.97566068 0 -238.13470434 0 30777
0.16650000 0.16650700 8680.62515154 0 253.89505149 0 2640.53909508 0 -309.17363314 0 -154.95829307 0 29211
0.16750000 0.16749900 8326.94187986 0 187.59507770 0 2971.87841527 0 -121.27849544 0 106.57168000 0 30922
0.16850000 0.16850800 8254.28528440 0 232.21322503 0 2848.02338985 0 179.15353726 0 33.36523289 0 30867
0.16950000 0.16949900 8238.15290714 0 9.55786330 0 2909.33085237 0 198.25772651 0 13.32653943 0 30852
0.17050000 0.17049200 8133.85160735 0 79.49364531 0 2824.53898891 0 183.45402822 0 120.33734783 0 31257
0.17150000 0.17149500 8168.85122610 0 51.39751036 0 2881.25143663 0 56.34008544 0 442.98046411 0 32608
0.17250000 0.17250900 8063.36518756 0 65.95496014 0 2803.92232010 0 245.46015444 0 455.96165773 0 32361
0.17350000 0.17350400 8121.88242422 0 -55.65836240 0 2570.38484502 0 117.65673799 0 550.57135161 0 32508
0.17450000 0.17449800 8095.30884466 0 -28.91161167 0 2537.85435471 0 175.96802941 0 371.99468247 0 32791
0.17550000 0.17549800 8220.81364648 0 52.25063299 0 2699.14491034 0 -22.80854623 0 431.08546556 0 33633
0.17650000 0.17650100 8104.37707868 0 59.53943369 0 2512.73124969 0 94.59408190 0 290.82679092 0 33984
0.17750000 0.17750300 8077.60419727 0 48.37365845 0 2406.96840303 0 161.32155814 0 187.33377084 0 34069
0.17850000 0.17849800 7989.12524965 0 55.80739589 0 2165.70244523 0 129.15313285 0 53.26220058 0 34536
