### header ###
fiducial parameters:
Omega_m = 0.31
Omega_nu = 0
Omega_de = 0.69
Omega_k = 0
H_0 = 100
w_de = -1
zeff = 0
beta = 0
fgrowth = 0
b_1 = 2
gamma = 0.55
Lx = 3500 Ly = 3500 Lz = 3500
nx = 700 ny = 700 nz = 700
xoffset = -685.467585 yoffset = -31.7331281 zoffset = 572.489161
bins = 400 dk = 0.001
kx_ny = 0.628318531 ky_ny = 0.628318531 kz_ny = 0.628318531
############################
A(data) = 8.05254777 (not used)
A(ran) = 8.05774525 (used)
Ngal = 479075
weighted Ngal = 0
Nran = 23820508
weighted Nran = 0
SN(data) = 3480.33352
SN(ran) = 70.1858834
SN(data+ran) = 3550.5194
############################
13 columns: k_central k_mean P_0(k) sigma^{lin}_{P_0(k)} P^img_1(k) sigma^{lin}_{P_1(k)} P_2(k) sigma^{lin}_{P_2(k)} P^img_3(k) sigma^{lin}_{P_3(k)} P_4(k) sigma^{lin}_{P_4(k)} N_modes
### header ###
0.00050000 0 0 0 0 0 0 0 0 0 0 0 0
0.00150000 0.00179520 30687.83402086 0 -31365.90319276 0 9325.12303459 0 -9149.96992828 0 -38971.15094094 0 3
0.00250000 0.00253879 47121.82140969 0 -13881.26290189 0 24103.45462096 0 -16089.08447073 0 20420.57793978 0 6
0.00350000 0.00331552 51550.97278365 0 5033.36813931 0 8633.83350686 0 -11045.98375790 0 40463.47888000 0 7
0.00450000 0.00420575 39634.27247433 0 22796.58812261 0 17735.53917126 0 -22655.85887417 0 31317.18496356 0 24
0.00550000 0.00557378 39947.06565046 0 -10417.61825212 0 20195.80974596 0 901.51200843 0 8521.40512065 0 45
0.00650000 0.00659388 44216.66482377 0 -26255.36094946 0 39151.85128198 0 16019.66099411 0 10312.34258774 0 40
0.00750000 0.00754703 78718.36112842 0 -12952.73774260 0 50221.62946592 0 -10235.42314723 0 -43382.91876493 0 57
0.00850000 0.00846663 84249.31954508 0 -1825.08451683 0 52986.27824989 0 3131.19809709 0 33096.61828516 0 75
0.00950000 0.00948925 81478.47025921 0 25087.56285084 0 55264.51980457 0 -2883.11158720 0 10451.31133654 0 112
0.01050000 0.01054430 67544.94598418 0 992.98712715 0 45030.70214444 0 33539.51127791 0 14780.33567716 0 105
0.01150000 0.01145670 77928.24002936 0 -6704.79093231 0 52705.26264599 0 24548.67280192 0 -13436.70906042 0 144
0.01250000 0.01249090 74099.43010707 0 6835.82082421 0 49693.81174181 0 13966.29835650 0 -10554.61612710 0 169
0.01350000 0.01339930 77808.54819807 0 11265.42616348 0 72650.72712780 0 -24518.11318542 0 -1353.84637255 0 180
0.01450000 0.01448870 68822.91371475 0 4006.90826700 0 55449.75979879 0 2753.69825472 0 28035.01571756 0 267
0.01550000 0.01550050 69356.93194075 0 -6486.56648246 0 73611.47275232 0 2043.95116152 0 26424.54607269 0 238
0.01650000 0.01653350 89132.87912959 0 -10739.19178183 0 61651.59037621 0 25752.78812594 0 -6551.06277453 0 315
0.01750000 0.01747870 105090.20293498 0 -15076.18819632 0 77702.03243332 0 27941.89746584 0 -18040.02810377 0 297
0.01850000 0.01844180 105395.24548373 0 1144.93374787 0 59456.83415066 0 5047.59607670 0 -12634.40840406 0 388
0.01950000 0.01947590 103813.01026715 0 10072.41638125 0 62768.56650391 0 -11456.75593635 0 -13294.09751676 0 399
0.02050000 0.02045430 91604.55419886 0 16187.84960811 0 63949.87283881 0 1429.18247062 0 -11251.58575746 0 462
0.02150000 0.02154770 83531.61145034 0 9989.45145138 0 63276.78621309 0 8920.98317871 0 -10708.38857418 0 571
0.02250000 0.02255340 74651.05332954 0 5874.05654581 0 56485.68650882 0 13586.73906171 0 -18674.47231588 0 510
0.02350000 0.02348930 74610.41789746 0 -574.61601218 0 47747.85065494 0 9734.82119753 0 -21037.97077167 0 555
0.02450000 0.02439640 67013.03149989 0 -551.84909789 0 45483.22805978 0 15981.57219674 0 -7294.39222890 0 592
0.02550000 0.02547300 69810.78653507 0 2049.55375788 0 36036.98486400 0 14492.67667837 0 -7177.36882789 0 837
0.02650000 0.02652900 67374.65362847 0 1533.40626413 0 31868.14384653 0 18346.06716176 0 2366.39940489 0 723
0.02750000 0.02749970 68830.22144913 0 1560.74383411 0 28657.28037237 0 9522.91904515 0 1665.17800180 0 826
0.02850000 0.02848090 64317.03112980 0 2064.99965100 0 20911.52482224 0 11271.18377239 0 9228.62772379 0 831
0.02950000 0.02946900 61370.79621881 0 2897.05164415 0 12317.96136074 0 3916.82383227 0 4481.11379433 0 996
0.03050000 0.03053250 60925.79948435 0 610.77268888 0 17762.00202758 0 -273.55839313 0 -562.33126780 0 1041
0.03150000 0.03150510 56448.48349743 0 1906.03428358 0 11689.93909703 0 815.05597455 0 -915.76651940 0 1036
0.03250000 0.03246190 58941.19598385 0 1723.23020083 0 14509.17444235 0 -11.07952183 0 -6370.11884234 0 1059
0.03350000 0.03345080 55434.14782079 0 -1038.14228223 0 12536.41832942 0 -3088.06031960 0 -3705.48636846 0 1302
0.03450000 0.03451200 56292.91733373 0 853.97187459 0 19152.90747129 0 20.51225679 0 -8106.75762852 0 1339
0.03550000 0.03553350 57420.63361651 0 831.77297056 0 20673.58056189 0 -4510.49974440 0 2874.92913916 0 1365
0.03650000 0.03647120 53937.16950531 0 3306.37334804 0 18425.67717721 0 8365.87217393 0 8180.45502251 0 1308
0.03750000 0.03744890 54124.40251800 0 323.11258286 0 21513.41639938 0 7703.11602726 0 11987.34174166 0 1579
0.03850000 0.03847530 53268.51180951 0 -648.45845363 0 16132.70943051 0 6126.77128747 0 9937.37830776 0 1662
0.03950000 0.03950240 51753.92849757 0 5055.88924799 0 17213.14688632 0 2589.71712416 0 4122.45904880 0 1683
0.04050000 0.04050350 47280.26637785 0 4799.74208563 0 14102.37722852 0 -5715.70015626 0 7399.30250656 0 1822
0.04150000 0.04152450 42924.52451744 0 3705.09883709 0 14548.59191871 0 -7135.81439285 0 2906.91708556 0 1887
0.04250000 0.04250150 41927.68311402 0 1765.98044695 0 15155.13387227 0 -3331.95041838 0 -282.48379417 0 1920
0.04350000 0.04349210 40299.27630294 0 -199.68384194 0 15330.18732766 0 -2404.68750411 0 -7976.76853515 0 2005
0.04450000 0.04448520 40624.47048286 0 1216.33917063 0 17029.89991057 0 1903.72016769 0 -8477.41477415 0 2151
0.04550000 0.04548030 39937.32200462 0 946.03825546 0 17067.76726145 0 897.43296397 0 -7278.17127304 0 2274
0.04650000 0.04648670 38977.90505908 0 527.85647724 0 16303.33395597 0 4685.18781306 0 -4830.55636561 0 2311
0.04750000 0.04749250 38903.94192929 0 230.47929896 0 18084.53884954 0 3925.36059471 0 -2855.54149840 0 2568
0.04850000 0.04851840 38446.10129804 0 419.42520029 0 17138.85158678 0 4410.93739963 0 1147.23679143 0 2493
0.04950000 0.04949480 38612.73978656 0 659.84191078 0 16692.19400360 0 1709.62231362 0 515.95483529 0 2644
0.05050000 0.05050630 37611.46945321 0 906.16349209 0 15616.62837072 0 2628.97958796 0 5288.20876733 0 2829
0.05150000 0.05149060 37313.51319234 0 736.42475262 0 15626.37201656 0 -29.18620533 0 5291.82941755 0 2784
0.05250000 0.05249300 36651.83106118 0 -133.39051156 0 16031.95127466 0 983.63544161 0 6579.78438510 0 3055
0.05350000 0.05348950 37992.13598048 0 487.42920486 0 18338.98087388 0 1339.48556726 0 4081.84576137 0 3009
0.05450000 0.05448610 35870.01420573 0 1631.11953066 0 15261.87108353 0 -543.26693892 0 4713.83191737 0 3336
0.05550000 0.05550870 35473.84642372 0 1095.04074501 0 16068.37922332 0 1878.72993058 0 6253.51618967 0 3349
0.05650000 0.05647670 34522.95516830 0 125.35089650 0 15894.76517016 0 -525.80256099 0 3315.87340274 0 3324
0.05750000 0.05747970 34190.45325399 0 1774.56149868 0 17100.98423590 0 63.03574170 0 2789.94904618 0 3639
0.05850000 0.05849280 33060.96539924 0 1521.63638285 0 15840.06788556 0 -1895.40485176 0 2794.61049493 0 3846
0.05950000 0.05951020 31775.13631805 0 -70.96385844 0 15383.55593328 0 1375.76957569 0 345.04021493 0 3787
0.06050000 0.06049470 32904.40272631 0 -1121.20575579 0 14311.53344434 0 3380.33647783 0 -1864.80094596 0 3930
0.06150000 0.06148310 33748.00315424 0 -697.22872276 0 12611.04579869 0 1849.16682331 0 -4308.91699875 0 4083
0.06250000 0.06249100 32909.05310273 0 1007.24938875 0 11610.55052808 0 243.78048276 0 -5583.09799423 0 4303
0.06350000 0.06350600 31338.11165746 0 1466.29690341 0 11863.11025719 0 412.98000002 0 -2852.68483860 0 4470
0.06450000 0.06451750 31455.69974704 0 314.07978027 0 12273.67206147 0 1755.76069114 0 -1826.16960466 0 4479
0.06550000 0.06550280 31006.82769889 0 831.54930960 0 10972.57424436 0 2274.97521886 0 -1397.23881351 0 4636
0.06650000 0.06648880 30583.42199782 0 344.10238902 0 11966.96866399 0 2278.72873698 0 824.83837353 0 4653
0.06750000 0.06749660 29788.31835260 0 107.27089731 0 10475.54865557 0 2019.89099969 0 3908.28706984 0 5220
0.06850000 0.06852730 30530.60700844 0 -264.44365534 0 11231.10195655 0 1340.53743812 0 2537.63290821 0 5029
0.06950000 0.06949320 29378.31016456 0 -164.01766924 0 8945.88483723 0 2548.57236513 0 2465.41920574 0 5040
0.07050000 0.07048030 30163.00582446 0 898.62213165 0 9455.10105563 0 46.88443077 0 653.69566327 0 5475
0.07150000 0.07148790 28031.47257362 0 1033.93369157 0 8438.72807123 0 -1494.57562100 0 2470.82250026 0 5509
0.07250000 0.07249820 27842.24654247 0 1248.26068308 0 9246.83062580 0 327.63341308 0 2052.76473208 0 5916
0.07350000 0.07351270 26919.81116183 0 253.97255776 0 9111.69290138 0 73.83923047 0 1014.20280874 0 5721
0.07450000 0.07449140 27149.34045532 0 -235.56592498 0 9628.19470952 0 -145.95095683 0 -855.58179062 0 6028
0.07550000 0.07549160 26810.97020886 0 551.87788594 0 10312.06577962 0 -1257.33998943 0 -1436.62307289 0 6183
0.07650000 0.07648840 26194.68460946 0 1352.07480058 0 11968.85095921 0 -1561.14243781 0 904.83149141 0 6330
0.07750000 0.07749960 25625.67783703 0 1408.42186158 0 12018.34425115 0 -195.91925150 0 1707.89503095 0 6583
0.07850000 0.07848650 24797.68938709 0 834.22106158 0 12132.16775029 0 1100.96000985 0 1635.37130339 0 6549
0.07950000 0.07947320 23484.51166360 0 386.80280968 0 11532.04774512 0 1906.03428358 0 363.08478269 0 6828
0.08050000 0.08048110 23596.45286751 0 398.42542904 0 11492.29809902 0 1747.17963941 0 509.29815361 0 7147
0.08150000 0.08149960 22821.39013021 0 606.12341969 0 10443.77108334 0 1005.44570704 0 212.51666641 0 7386
0.08250000 0.08250610 22571.59848230 0 394.56229491 0 9646.88479382 0 966.21092404 0 1672.04284319 0 7227
0.08350000 0.08350160 22393.99839221 0 -380.65213324 0 9014.14571973 0 642.77502930 0 880.08484544 0 7798
0.08450000 0.08449610 22664.16311778 0 -514.84871004 0 8630.11320572 0 620.65916771 0 73.52067969 0 7371
0.08550000 0.08548940 23117.68554236 0 352.92924636 0 8121.36202496 0 127.15236375 0 -58.01422095 0 8256
0.08650000 0.08650700 22336.09013341 0 829.98589734 0 7878.62344796 0 -187.98925247 0 -1213.79253592 0 8037
0.08750000 0.08749060 21888.10387124 0 730.72029087 0 8059.43451224 0 308.72077506 0 60.77045477 0 8155
0.08850000 0.08849210 21053.58274966 0 597.14487149 0 7579.88105202 0 204.38072213 0 -980.88507613 0 8718
0.08950000 0.08949900 20397.43678091 0 789.46008127 0 6979.59496198 0 286.06901294 0 -632.37700906 0 8571
0.09050000 0.09049190 20009.35179602 0 482.90616018 0 7021.72515792 0 721.26563271 0 -799.11182681 0 8932
0.09150000 0.09150830 19616.61643470 0 509.57053280 0 6924.80909878 0 -220.27504441 0 -501.67485798 0 9285
0.09250000 0.09250820 19302.16240985 0 623.64205202 0 8004.93652949 0 -1225.10845188 0 -676.56112125 0 9204
0.09350000 0.09350330 18648.12018281 0 805.71536133 0 8248.43909690 0 -982.88473799 0 -104.47048491 0 9349
0.09450000 0.09448040 18714.88630147 0 218.73156233 0 10145.11726601 0 -326.08550207 0 1665.96413686 0 9564
0.09550000 0.09549270 18494.43631433 0 -63.24445502 0 10215.73655370 0 1640.98497207 0 2080.63377365 0 10155
0.09650000 0.09649430 18698.83143048 0 -310.52777847 0 9200.59259735 0 1874.11277113 0 1644.39524812 0 9913
0.09750000 0.09749140 18842.88237637 0 42.95740932 0 8762.79287402 0 1823.40152346 0 1062.58997543 0 10476
0.09850000 0.09850240 18592.98000522 0 371.44992409 0 8175.08494498 0 335.19802540 0 2086.42459953 0 10575
0.09950000 0.09950330 17853.45943058 0 760.44394685 0 7602.96684927 0 121.08030082 0 2183.63961143 0 10882
0.10050000 0.10051200 17411.34150057 0 289.42614183 0 7357.65949291 0 764.19082157 0 2611.52960405 0 10875
0.10150000 0.10150300 17223.77631814 0 -111.85041085 0 6968.02438255 0 1803.71492993 0 1807.53488199 0 11118
0.10250000 0.10250800 17367.60581754 0 -153.24208272 0 6069.62701909 0 856.28931217 0 1241.49549262 0 11575
0.10350000 0.10349800 17099.54483368 0 505.57674524 0 6391.16733182 0 313.39440336 0 1854.47046690 0 11364
0.10450000 0.10450100 16831.26240332 0 1020.41881189 0 6395.88414219 0 -793.78603857 0 1949.74782197 0 12093
0.10550000 0.10551000 16254.72645001 0 434.79247991 0 6668.87231060 0 -613.46769274 0 3516.32677126 0 12067
0.10650000 0.10649700 15967.17817447 0 117.64234397 0 7369.15256608 0 23.94279519 0 2560.75192243 0 12054
0.10750000 0.10749900 15828.33122125 0 -50.09828377 0 7077.74004917 0 517.50606800 0 2117.93643596 0 12807
0.10850000 0.10850100 16222.06309180 0 -56.83280389 0 7258.26323302 0 443.46764640 0 1440.32122938 0 12736
0.10950000 0.10950300 15694.13464445 0 389.90859679 0 6418.68205899 0 600.87624496 0 2177.38374791 0 12933
0.11050000 0.11050200 15671.43637857 0 374.83694825 0 6636.12037378 0 185.25660270 0 1985.73287763 0 13428
0.11150000 0.11150900 15182.26106808 0 185.78253813 0 5686.19241062 0 884.33440371 0 2146.34802144 0 13453
0.11250000 0.11250000 15043.63556135 0 179.87213114 0 5887.93016881 0 503.65458965 0 1734.76756329 0 13668
0.11350000 0.11349100 14980.41258664 0 -113.72495544 0 5079.46222753 0 805.44298214 0 1695.25043601 0 13791
0.11450000 0.11448600 15078.73483103 0 -9.55577063 0 5890.85326256 0 88.45049175 0 1149.92736637 0 14205
0.11550000 0.11549300 14827.17161115 0 309.62206230 0 5135.16709369 0 -314.16946610 0 632.61395682 0 14776
0.11650000 0.11649800 14526.11509933 0 279.78657584 0 5352.59433615 0 -131.99539863 0 480.34402421 0 14553
0.11750000 0.11747300 14578.93008871 0 282.71520576 0 5392.23325901 0 -13.84638508 0 248.57479941 0 14568
0.11850000 0.11849100 14163.38573827 0 230.12941350 0 4916.68798037 0 1.42295982 0 325.95595587 0 16015
0.11950000 0.11950300 14200.58874966 0 142.27826669 0 5140.73647307 0 400.14717555 0 202.72208787 0 15270
0.12050000 0.12050700 14261.48653616 0 34.60931930 0 5149.30645248 0 87.96596682 0 868.65045560 0 15999
0.12150000 0.12150000 13824.79404531 0 91.24448220 0 4696.43729508 0 758.43542713 0 421.26874238 0 15670
0.12250000 0.12250700 14004.27643062 0 49.04674508 0 4472.53274259 0 540.35270303 0 -181.90279552 0 16887
0.12350000 0.12352200 13798.10974250 0 139.71945242 0 4348.16839023 0 234.32803907 0 629.63882314 0 16407
0.12450000 0.12449800 13559.05824967 0 348.47927902 0 4452.21502655 0 57.92209921 0 -27.33679491 0 16306
0.12550000 0.12549900 13572.56648594 0 104.74662870 0 4254.96155991 0 -38.35674764 0 637.94638845 0 17523
0.12650000 0.12650100 13210.83363412 0 279.72567806 0 4548.84320524 0 81.47514856 0 5.21835347 0 17154
0.12750000 0.12750600 13014.52131509 0 348.80369813 0 4124.36348867 0 -133.87547938 0 172.90763883 0 18007
0.12850000 0.12850300 12721.32615389 0 292.58618333 0 4860.99418653 0 363.68158099 0 -134.47227769 0 17496
0.12950000 0.12949900 12697.63137878 0 136.13091195 0 4424.27955103 0 -131.33548807 0 91.37070670 0 18405
0.13050000 0.13049000 12644.37349640 0 23.24568162 0 4774.76292084 0 39.56639912 0 223.50927049 0 18100
0.13150000 0.13148800 12655.77799096 0 114.92408822 0 4554.84440530 0 -270.10604225 0 224.35408887 0 19059
0.13250000 0.13249300 12664.41440432 0 222.01339940 0 4923.35351991 0 249.45947816 0 722.79804246 0 18957
0.13350000 0.13349100 12427.79882295 0 -38.35896210 0 4844.28604838 0 261.67446690 0 741.85794241 0 19468
0.13450000 0.13450700 12391.37087429 0 281.10418250 0 4901.76248651 0 194.09674684 0 449.82758978 0 19953
0.13550000 0.13551000 12321.83667443 0 376.64727336 0 5120.17516589 0 25.56754813 0 426.40851556 0 19956
0.13650000 0.13649900 11866.87484763 0 231.91316502 0 5374.80541974 0 -191.08507449 0 619.85531693 0 19723
0.13750000 0.13749600 11841.18705405 0 373.81165097 0 5405.81900156 0 -135.24955489 0 1175.41585810 0 20946
0.13850000 0.13851100 11571.02232848 0 204.22349512 0 5425.45023346 0 -104.76545165 0 1244.24142917 0 20955
0.13950000 0.13949800 11574.78691892 0 -59.63897389 0 5494.75191450 0 461.33616420 0 890.85711026 0 20506
0.14050000 0.14048300 11462.62426850 0 -84.21433100 0 4957.19054456 0 780.10728849 0 591.58767167 0 21447
0.14150000 0.14148400 11238.96330717 0 193.22535488 0 4434.46608987 0 630.18911768 0 1034.81726309 0 21771
0.14250000 0.14249400 11208.18224417 0 148.02812497 0 3694.81264733 0 1043.72827010 0 726.68442848 0 22470
0.14350000 0.14350900 10988.71769394 0 -124.05543450 0 3310.09364918 0 640.35019017 0 623.25894958 0 22519
0.14450000 0.14449900 11022.17825954 0 202.95239223 0 3167.41567157 0 168.45213533 0 333.73315682 0 22218
0.14550000 0.14550500 10711.21201701 0 391.29595909 0 3317.22422637 0 -181.45547359 0 640.63142722 0 23559
0.14650000 0.14650700 10564.02760320 0 271.71374382 0 3229.69749868 0 -371.96589442 0 1060.34672242 0 23044
0.14750000 0.14750500 10342.53681752 0 12.18819371 0 3197.95314342 0 -149.30365678 0 876.97573663 0 23649
0.14850000 0.14849900 10640.52629537 0 -216.27682792 0 3655.71626840 0 71.68654908 0 516.63689050 0 23640
0.14950000 0.14949500 10488.59185421 0 38.23705581 0 3423.98358227 0 -16.29281525 0 299.84962841 0 24457
0.15050000 0.15050000 10534.92953357 0 373.07201967 0 3808.06038558 0 86.31707620 0 131.57022136 0 24591
0.15150000 0.15149900 10089.51205077 0 294.87594011 0 3433.36184139 0 187.68365630 0 226.89518742 0 25020
0.15250000 0.15250500 9887.20960401 0 287.53388152 0 3130.40088970 0 190.72522393 0 235.57921177 0 25297
0.15350000 0.15350100 9793.88097811 0 117.96897755 0 3061.04384704 0 123.14639663 0 4.88495470 0 25452
0.15450000 0.15450400 9807.12347859 0 -115.85859244 0 2946.01346450 0 175.87502188 0 36.51852027 0 26061
0.15550000 0.15549900 9888.10646232 0 -81.61942095 0 2990.52421027 0 -3.06167497 0 29.98186259 0 26128
0.15650000 0.15649500 9973.90590734 0 44.16938600 0 3071.18609657 0 -141.65268033 0 -59.12610381 0 26331
0.15750000 0.15749700 9955.59228209 0 140.36829066 0 3241.53381391 0 -292.64043772 0 13.30616635 0 27345
0.15850000 0.15849900 9917.09380869 0 185.13591436 0 3467.25422766 0 -194.99471238 0 -127.39816936 0 26980
0.15950000 0.15949700 9594.15838303 0 324.58852376 0 3566.71692151 0 -152.08391755 0 -431.70108682 0 27777
0.16050000 0.16050000 9421.99480443 0 336.07495352 0 3543.71970286 0 84.04470298 0 -423.52860387 0 28224
0.16150000 0.16150500 9121.02687121 0 150.44410624 0 3400.78706177 0 424.54393606 0 16.15053587 0 28075
0.16250000 0.16249700 9069.51841615 0 34.40459202 0 3355.14693887 0 435.79673977 0 -62.33120967 0 28590
0.16350000 0.16349900 8999.12057495 0 148.17095796 0 3301.86691184 0 448.61849191 0 -133.89540957 0 29163
0.16450000 0.16449100 8851.42683420 0 213.21200841 0 3148.12768174 0 229.59683467 0 160.28518854 0 28996
0.16550000 0.16550500 8647.16458594 0 129.41222525 0 3021.71494928 0 105.39834573 0 599.79115712 0 30777
0.16650000 0.16650700 8521.78157970 0 154.07915048 0 2922.52906356 0 295.60228461 0 908.86181765 0 29211
0.16750000 0.16749900 8528.96751850 0 -15.88092476 0 2936.04837216 0 313.79743599 0 453.44491830 0 30922
0.16850000 0.16850800 8509.00411686 0 38.28787778 0 2636.11016515 0 240.83967329 0 445.87255535 0 30867
0.16950000 0.16949900 8446.34583071 0 128.65487823 0 2507.00685776 0 -37.41438207 0 217.99082380 0 30852
0.17050000 0.17049200 8292.54016665 0 138.80155669 0 2613.41189927 0 -41.10799891 0 494.23536293 0 31257
0.17150000 0.17149500 8310.67663470 0 53.48597227 0 2407.14556022 0 3.05727926 0 336.62635530 0 32608
0.17250000 0.17250900 8256.93157003 0 -24.48976803 0 2290.47647361 0 307.57036051 0 445.18385675 0 32361
0.17350000 0.17350400 8351.52244096 0 -27.19041878 0 2444.59216276 0 127.46903224 0 656.90885193 0 32508
0.17450000 0.17449800 8400.81643105 0 49.81649310 0 2328.05594404 0 254.76201452 0 828.78787179 0 32791
0.17550000 0.17549800 8275.35591853 0 104.75205414 0 2529.74941294 0 246.66150168 0 1070.38710657 0 33633
0.17650000 0.17650100 8179.12634353 0 208.85726305 0 2380.43911276 0 106.99032460 0 1057.96063642 0 33984
0.17750000 0.17750300 8106.60261597 0 65.25762512 0 2356.14643211 0 118.56909755 0 1090.40033368 0 34069
0.17850000 0.17849800 8026.80437100 0 76.54087773 0 2370.33008020 0 -49.36684599 0 929.42755376 0 34536
