### header ###
fiducial parameters:
Omega_m = 0.31
Omega_nu = 0
Omega_de = 0.69
Omega_k = 0
H_0 = 100
w_de = -1
zeff = 0
beta = 0
fgrowth = 0
b_1 = 2
gamma = 0.55
Lx = 3500 Ly = 3500 Lz = 3500
nx = 700 ny = 700 nz = 700
xoffset = -685.467585 yoffset = -31.7331281 zoffset = 572.489161
bins = 400 dk = 0.001
kx_ny = 0.628318531 ky_ny = 0.628318531 kz_ny = 0.628318531
############################
A(data) = 8.11122754 (not used)
A(ran) = 8.10721162 (used)
Ngal = 481868
weighted Ngal = 0
Nran = 23820508
weighted Nran = 0
SN(data) = 3491.59294
SN(ran) = 70.6167535
SN(data+ran) = 3562.20969
############################
13 columns: k_central k_mean P_0(k) sigma^{lin}_{P_0(k)} P^img_1(k) sigma^{lin}_{P_1(k)} P_2(k) sigma^{lin}_{P_2(k)} P^img_3(k) sigma^{lin}_{P_3(k)} P_4(k) sigma^{lin}_{P_4(k)} N_modes
### header ###
0.00050000 0 0 0 0 0 0 0 0 0 0 0 0
0.00150000 0.00179520 -1199.19921181 0 1295.24055729 0 -251.08821714 0 2975.62086106 0 20381.82480292 0 3
0.00250000 0.00253879 5229.02719118 0 -8330.75075960 0 -1514.19578057 0 6982.51805573 0 -16266.57383757 0 6
0.00350000 0.00331552 10623.36419190 0 -18027.73782322 0 -2095.43747193 0 7787.99646932 0 25520.71219775 0 7
0.00450000 0.00420575 25229.39933177 0 -24173.09954407 0 2809.27025299 0 -4524.71660946 0 -12672.16503169 0 24
0.00550000 0.00557378 53585.40174582 0 -14539.62333561 0 8521.16152951 0 -8856.98514126 0 -7177.72314229 0 45
0.00650000 0.00659388 69403.87859798 0 4346.41896291 0 9517.92542666 0 -14620.45130678 0 1834.48492060 0 40
0.00750000 0.00754703 56466.42066364 0 15449.32554271 0 -5033.64494743 0 -13431.28362126 0 -1616.91373792 0 57
0.00850000 0.00846663 59521.49652760 0 -1982.07901044 0 6142.37219314 0 -2202.30755108 0 7719.45877869 0 75
0.00950000 0.00948925 63485.16736618 0 -3640.96793174 0 11677.53809323 0 471.79286776 0 -30106.42624464 0 112
0.01050000 0.01054430 64358.77379437 0 -6965.64383271 0 13257.00522861 0 2546.00358577 0 -22087.73788772 0 105
0.01150000 0.01145670 71561.32108890 0 -2024.46386984 0 9443.47511458 0 -9819.31410822 0 -15225.77530462 0 144
0.01250000 0.01249090 79774.99308586 0 -6060.82452085 0 23896.40214685 0 -25645.27585196 0 -32027.58532392 0 169
0.01350000 0.01339930 79868.66495383 0 2929.99181048 0 35146.21633234 0 -9813.55649931 0 -2612.42646236 0 180
0.01450000 0.01448870 83508.58101471 0 17475.89315426 0 68063.24150894 0 -23244.57438478 0 -15054.04354668 0 267
0.01550000 0.01550050 77896.46245713 0 10317.41371251 0 63753.22835004 0 5019.58309491 0 16252.06909206 0 238
0.01650000 0.01653350 83890.35477446 0 -12582.03630767 0 80431.24977787 0 27552.70524846 0 -11278.60223002 0 315
0.01750000 0.01747870 77043.33982986 0 -11631.47722199 0 67333.24313365 0 4695.81724489 0 -5738.76380885 0 297
0.01850000 0.01844180 95292.74559595 0 -1961.19660583 0 65300.36429694 0 18200.79826014 0 -38063.88464530 0 388
0.01950000 0.01947590 86739.37467355 0 11657.49718531 0 60257.69540479 0 8637.84168845 0 -7186.11596450 0 399
0.02050000 0.02045430 82241.68560896 0 4474.40396549 0 47250.37110084 0 14587.78794857 0 -12906.34470161 0 462
0.02150000 0.02154770 77412.26969281 0 -4537.07332396 0 28306.50912212 0 7749.87445496 0 -12918.08136591 0 571
0.02250000 0.02255340 87862.44057990 0 -1259.95305809 0 33693.52731613 0 9654.94544629 0 -32867.86405441 0 510
0.02350000 0.02348930 76567.56203240 0 3912.84886766 0 18378.73051997 0 911.96428306 0 -2794.28939751 0 555
0.02450000 0.02439640 81586.97904244 0 9848.99901106 0 28596.49330912 0 -2937.25525557 0 -4806.75086725 0 592
0.02550000 0.02547300 70246.92540968 0 7101.74484938 0 26014.75933115 0 8400.78321408 0 10680.19843519 0 837
0.02650000 0.02652900 65544.95195219 0 4043.80125329 0 32781.49992082 0 13534.36696532 0 1673.33830519 0 723
0.02750000 0.02749970 62936.31222492 0 417.29377777 0 27970.24261738 0 10149.60155756 0 322.28437296 0 826
0.02850000 0.02848090 59012.28030919 0 3940.09785904 0 24797.68938709 0 4696.84697110 0 5637.04236075 0 831
0.02950000 0.02946900 58600.38982593 0 496.49743889 0 21067.97677193 0 -872.05298102 0 1807.03662738 0 996
0.03050000 0.03053250 55309.25199684 0 1787.02893643 0 14412.07015369 0 3343.53207014 0 2526.99240406 0 1041
0.03150000 0.03150510 55177.82350124 0 1862.92972306 0 10880.37499559 0 8811.57753718 0 812.29010781 0 1036
0.03250000 0.03246190 51719.93646038 0 -593.44782223 0 4034.79945321 0 8438.27410591 0 -3120.49115899 0 1059
0.03350000 0.03345080 52350.06246581 0 874.93953610 0 3714.21136041 0 7890.90265618 0 -361.22463212 0 1302
0.03450000 0.03451200 51228.54668493 0 588.53724618 0 6657.75569648 0 1421.46506022 0 6474.58622700 0 1339
0.03550000 0.03553350 50850.98040861 0 1042.79708758 0 12543.72606380 0 -5679.75938990 0 8311.82815649 0 1365
0.03650000 0.03647120 52663.29853493 0 899.94195277 0 13435.26965819 0 -5018.76374287 0 9963.49792201 0 1308
0.03750000 0.03744890 50685.11698283 0 2564.49436822 0 22085.41269951 0 -8574.43048421 0 11559.39638742 0 1579
0.03850000 0.03847530 50220.07934044 0 1561.52996917 0 25700.19458306 0 -4101.08946190 0 6859.84776907 0 1662
0.03950000 0.03950240 51383.22706264 0 -162.26934915 0 29483.27580384 0 -3111.51150356 0 2464.03516514 0 1683
0.04050000 0.04050350 48352.84248303 0 3070.13422571 0 27584.81499044 0 1726.50760897 0 165.04960991 0 1822
0.04150000 0.04152450 48027.98047285 0 1364.39829810 0 25799.73478318 0 1933.48257681 0 -888.66700441 0 1887
0.04250000 0.04250150 47527.28994455 0 -1080.56810924 0 24006.01816256 0 5702.16977533 0 450.73884211 0 1920
0.04350000 0.04349210 47471.26398097 0 -230.43943859 0 24157.37684283 0 5292.83699911 0 -4908.09585631 0 2005
0.04450000 0.04448520 46169.82292178 0 3482.10221524 0 21731.98409130 0 3931.11820361 0 88.07181824 0 2151
0.04550000 0.04548030 43625.73484820 0 3893.31728668 0 21362.16844236 0 1703.83148774 0 1295.36235286 0 2274
0.04650000 0.04648670 40745.71243963 0 3260.51177865 0 20689.85687937 0 2046.09919254 0 5172.46975601 0 2311
0.04750000 0.04749250 37469.85441878 0 1199.35422436 0 18472.62383444 0 5143.01737199 0 3226.20971636 0 2568
0.04850000 0.04851840 38371.14165902 0 -2074.18968060 0 16103.03560000 0 3960.28270718 0 91.45496709 0 2493
0.04950000 0.04949480 37208.10466007 0 -1373.15650703 0 13667.23486314 0 2495.35877205 0 -2945.99131985 0 2644
0.05050000 0.05050630 38964.83971579 0 1772.24738280 0 12738.48825736 0 -640.67571652 0 -4740.22833973 0 2829
0.05150000 0.05149060 37310.63438789 0 587.19306594 0 11596.48867556 0 -305.73899798 0 -547.64936509 0 2784
0.05250000 0.05249300 36372.69775250 0 776.19100720 0 11136.76574909 0 891.27121521 0 -1020.36234303 0 3055
0.05350000 0.05348950 37045.12003874 0 687.76409951 0 11655.28272035 0 -903.26475745 0 -1110.54310699 0 3009
0.05450000 0.05448610 36232.63284355 0 1144.23619141 0 13996.85797300 0 1597.70325436 0 -3499.81793495 0 3336
0.05550000 0.05550870 35649.67494184 0 1431.18656141 0 15559.38445140 0 -4554.18006581 0 393.40966590 0 3349
0.05650000 0.05647670 34332.62190467 0 2218.08561394 0 17519.85028379 0 -2123.58332162 0 -285.77670357 0 3324
0.05750000 0.05747970 33906.66956889 0 308.34653048 0 17821.79258160 0 -1331.65743361 0 -354.16491781 0 3639
0.05850000 0.05849280 33550.69432597 0 -1045.42676473 0 17173.17579372 0 576.39312032 0 260.21624173 0 3846
0.05950000 0.05951020 34448.65986877 0 -848.96829100 0 16465.21134482 0 3069.99028549 0 -3558.14694210 0 3787
0.06050000 0.06049470 35376.52068857 0 273.66690192 0 14839.79406144 0 3004.75214766 0 -4133.25456550 0 3930
0.06150000 0.06148310 34447.55263628 0 342.22009380 0 12382.84518418 0 3066.67966037 0 -3466.08056123 0 4083
0.06250000 0.06249100 33600.85195740 0 1037.32957359 0 10619.16778079 0 727.91456376 0 -2310.68346640 0 4303
0.06350000 0.06350600 32578.43348365 0 1455.18028929 0 11029.36419835 0 2325.56467096 0 -2956.84219817 0 4470
0.06450000 0.06451750 32142.62677879 0 -192.61748424 0 10336.52454515 0 -1239.48032950 0 -4046.31467103 0 4479
0.06550000 0.06550280 31719.66397071 0 702.93982790 0 13528.72007966 0 -1863.59406255 0 -860.67727450 0 4636
0.06650000 0.06648880 31309.43433618 0 1572.98982536 0 13860.77910097 0 -678.20536149 0 -2298.96894675 0 4653
0.06750000 0.06749660 30835.76028044 0 630.57443458 0 12798.50025787 0 -574.10114908 0 -645.31391338 0 5220
0.06850000 0.06852730 29898.70943104 0 13.59980440 0 14782.43941888 0 1090.19549567 0 -1449.89879035 0 5029
0.06950000 0.06949320 30529.05688296 0 592.58860983 0 15449.65771245 0 1399.58614638 0 492.17148158 0 5040
0.07050000 0.07048030 29257.51110079 0 933.40141114 0 14583.69118838 0 1511.01802335 0 -682.94320928 0 5475
0.07150000 0.07148790 28738.10834355 0 896.04892337 0 13183.48499182 0 2163.03401495 0 988.47515479 0 5509
0.07250000 0.07249820 28228.55995539 0 220.93384773 0 13843.94916725 0 600.83306289 0 -280.68011246 0 5916
0.07350000 0.07351270 27207.47016062 0 960.32819787 0 12800.38255309 0 -434.82569688 0 658.90297763 0 5721
0.07450000 0.07449140 26921.47201055 0 1133.52925331 0 13275.49601106 0 560.67706247 0 35.48414369 0 6028
0.07550000 0.07549160 25932.15978801 0 594.75435656 0 12776.02343849 0 1017.31745371 0 1241.53978191 0 6183
0.07650000 0.07648840 25045.48801653 0 704.63610806 0 11903.96713577 0 2001.36700027 0 1121.54899786 0 6330
0.07750000 0.07749960 24808.31881891 0 620.96476387 0 11084.28292945 0 2509.96316849 0 -448.47898062 0 6583
0.07850000 0.07848650 23699.31476508 0 439.00328504 0 10161.94719973 0 1196.42005828 0 1294.83088127 0 6549
0.07950000 0.07947320 23769.29185793 0 507.36381847 0 9371.18390583 0 881.11346442 0 826.30324210 0 6828
0.08050000 0.08048110 22690.84742060 0 398.46196771 0 9387.09483660 0 -5.35375693 0 1175.89196807 0 7147
0.08150000 0.08149960 22940.08545226 0 389.35387332 0 8754.78758318 0 293.99790475 0 301.59462681 0 7386
0.08250000 0.08250610 22592.30372971 0 116.27712632 0 9398.25574002 0 -211.96969356 0 1675.90708455 0 7227
0.08350000 0.08350160 22278.62476760 0 388.97852151 0 8858.43561581 0 1354.82073713 0 948.99013725 0 7798
0.08450000 0.08449610 22070.35433776 0 -46.06685030 0 7704.38934461 0 882.91825336 0 1062.04078812 0 7371
0.08550000 0.08548940 21781.47738324 0 -215.31575012 0 7429.67389353 0 1865.17740500 0 1874.26778368 0 8256
0.08650000 0.08650700 22463.64331532 0 296.94092868 0 7251.14372816 0 256.03422464 0 286.44990092 0 8037
0.08750000 0.08749060 21649.05237841 0 445.42080450 0 7036.47349457 0 577.12500099 0 435.58304390 0 8155
0.08850000 0.08849210 20820.51031223 0 680.60805597 0 7279.83212176 0 -1066.48189760 0 1528.54551354 0 8718
0.08950000 0.08949900 20663.17257656 0 576.70646711 0 6161.08442209 0 520.68603969 0 1013.65915759 0 8571
0.09050000 0.09049190 20781.75717537 0 -247.08335726 0 5866.57165424 0 2153.81076837 0 1850.35156207 0 8932
0.09150000 0.09150830 20723.84891656 0 -661.41750260 0 5059.50989821 0 1852.31136356 0 364.39131701 0 9285
0.09250000 0.09250820 21202.50551847 0 47.29288883 0 5026.02718795 0 350.45015283 0 304.32727657 0 9204
0.09350000 0.09350330 20810.65594314 0 896.73651474 0 4300.53524886 0 -632.68149800 0 265.41912716 0 9349
0.09450000 0.09448040 19925.53429714 0 887.18884905 0 5492.54852186 0 -1961.27411210 0 1515.79019535 0 9564
0.09550000 0.09549270 19661.57007346 0 962.27249811 0 6196.37192128 0 -1193.80698962 0 905.33085326 0 10155
0.09650000 0.09649430 18992.35876142 0 483.73437007 0 7753.98228747 0 -883.00240303 0 516.28036164 0 9913
0.09750000 0.09749140 18682.77655949 0 373.52709222 0 7850.89834661 0 -275.13066326 0 707.71642883 0 10476
0.09850000 0.09850240 18560.87026324 0 279.09344831 0 8980.92874528 0 596.14504056 0 1625.58336825 0 10575
0.09950000 0.09950330 18248.74142660 0 -42.64782712 0 8317.99544141 0 875.99362142 0 1172.32667947 0 10882
0.10050000 0.10051200 18334.44122070 0 297.27531289 0 8509.95633679 0 1222.26286441 0 1656.72981796 0 10875
0.10150000 0.10150300 17900.62753431 0 536.22826204 0 8138.33589890 0 311.00167397 0 1319.66610584 0 11118
0.10250000 0.10250800 17165.64661284 0 519.30864248 0 7570.97890287 0 297.15241009 0 1576.66583720 0 11575
0.10350000 0.10349800 17176.38676792 0 275.64552636 0 7421.67967502 0 -124.58026270 0 1254.16223221 0 11364
0.10450000 0.10450100 16685.43988546 0 269.35976756 0 6609.80145769 0 159.34625540 0 398.96797296 0 12093
0.10550000 0.10551000 16733.82594492 0 -6.13003762 0 6003.99027756 0 923.85042375 0 -41.37594917 0 12067
0.10650000 0.10649700 16419.70408981 0 -250.82801751 0 5149.98186430 0 777.84521253 0 -775.62853310 0 12054
0.10750000 0.10749900 16338.54394889 0 290.69835195 0 4669.55369042 0 1483.73581500 0 -394.42721255 0 12807
0.10850000 0.10850100 16194.49300300 0 -39.92436738 0 3936.58793207 0 1028.93342968 0 -338.75445613 0 12736
0.10950000 0.10950300 16037.04454408 0 235.66003974 0 4437.45561757 0 525.92324933 0 438.24704525 0 12933
0.11050000 0.11050200 16030.62259568 0 514.54643558 0 4282.36556383 0 -318.34594702 0 469.20969437 0 13428
0.11150000 0.11150900 15509.89115946 0 475.81987229 0 5400.18318823 0 -863.60258272 0 1039.07567921 0 13453
0.11250000 0.11250000 15382.67014730 0 246.91173622 0 5200.87026916 0 -711.42012148 0 1477.57960240 0 13668
0.11350000 0.11349100 15233.52593199 0 172.58211248 0 5871.06701811 0 -78.82531979 0 1262.37789722 0 13791
0.11450000 0.11448600 15226.43964411 0 157.95446417 0 5455.93234369 0 85.94094933 0 1012.51095751 0 14205
0.11550000 0.11549300 15226.99326035 0 297.83557253 0 5848.47947548 0 375.36066921 0 1.40105877 0 14776
0.11650000 0.11649800 14618.01539532 0 269.63768291 0 5151.07802446 0 141.52313413 0 29.62810181 0 14553
0.11750000 0.11747300 14702.60795694 0 19.84902453 0 5014.73341664 0 484.10750742 0 309.56116451 0 14568
0.11850000 0.11849100 14396.90106869 0 -8.58802730 0 4638.08614328 0 357.03043547 0 -183.28240719 0 16015
0.11950000 0.11950300 14738.26084285 0 -43.53715625 0 4569.48201871 0 522.92707823 0 379.63347936 0 15270
0.12050000 0.12050700 14618.67973481 0 -13.21581618 0 4805.12323550 0 719.88269934 0 381.13488660 0 15999
0.12150000 0.12150000 14477.17542363 0 165.31202401 0 3902.96128160 0 976.77724362 0 1169.78004477 0 15670
0.12250000 0.12250700 14330.79928953 0 116.51075237 0 3370.16101133 0 851.36212763 0 978.88430703 0 16887
0.12350000 0.12352200 14229.15534769 0 267.03015042 0 3510.30342655 0 441.64735620 0 1175.08368835 0 16407
0.12450000 0.12449800 13895.54620090 0 248.91250532 0 3441.28962596 0 61.43058677 0 558.51795913 0 16306
0.12550000 0.12549900 13624.27424285 0 292.57178931 0 3438.58797870 0 -579.12577008 0 1198.77846347 0 17523
0.12650000 0.12650100 13477.45521575 0 267.83400120 0 3658.24075846 0 -633.04134855 0 1260.59525293 0 17154
0.12750000 0.12750600 13627.81738679 0 -10.76976247 0 3987.02237162 0 -113.23555869 0 1221.15563192 0 18007
0.12850000 0.12850300 13493.84225648 0 61.29949045 0 4123.61057058 0 -307.14739770 0 704.91955958 0 17496
0.12950000 0.12949900 13389.31951020 0 462.68255889 0 4634.93053071 0 -114.42472637 0 423.48099287 0 18405
0.13050000 0.13049000 12963.25645117 0 518.67751997 0 4614.23635562 0 89.40802640 0 1323.13174350 0 18100
0.13150000 0.13148800 12864.49131379 0 293.96136608 0 4904.20947030 0 57.37822661 0 1086.50287534 0 19059
0.13250000 0.13249300 12495.78289733 0 98.84995139 0 4720.91820525 0 727.64661350 0 1486.81392130 0 18957
0.13350000 0.13349100 12661.42487662 0 -89.85036578 0 4709.97874833 0 832.89570430 0 1125.09214180 0 19468
0.13450000 0.13450700 12514.38440303 0 48.01812610 0 4102.86103387 0 118.59234944 0 1312.25872053 0 19953
0.13550000 0.13551000 12466.10906682 0 208.90708852 0 3820.46138937 0 -46.09253809 0 1214.60081563 0 19956
0.13650000 0.13649900 12267.58228282 0 190.23582717 0 4032.50748198 0 283.01083683 0 1402.33208293 0 19723
0.13750000 0.13749600 11993.21007381 0 201.31590262 0 4072.92146756 0 91.05259881 0 1150.12666821 0 20946
0.13850000 0.13851100 11853.14516486 0 278.16005133 0 4220.16124300 0 -17.95432831 0 1007.42986765 0 20955
0.13950000 0.13949800 11729.91018963 0 205.49238354 0 3961.79961568 0 321.23803827 0 1207.63632332 0 20506
0.14050000 0.14048300 11538.80186326 0 82.28697142 0 3777.48969675 0 214.80863764 0 1373.90942512 0 21447
0.14150000 0.14148400 11582.20537654 0 -0.36783370 0 3512.03070923 0 453.47149188 0 1362.01774827 0 21771
0.14250000 0.14249400 11535.92305880 0 -98.92491103 0 3582.66106924 0 225.18894216 0 1353.69136000 0 22470
0.14350000 0.14350900 11577.66572337 0 242.15063655 0 3358.05896030 0 348.70847614 0 1296.85711671 0 22519
0.14450000 0.14449900 11363.30551488 0 227.90830514 0 3170.91452621 0 -137.14402967 0 1493.63447339 0 22218
0.14550000 0.14550500 11088.26896639 0 151.71188743 0 3142.59151933 0 -33.04657138 0 875.84414504 0 23559
0.14650000 0.14650700 11133.99766789 0 125.77275208 0 3279.26829689 0 120.80238547 0 1261.66926844 0 23044
0.14750000 0.14750500 10870.31025233 0 119.77708819 0 2970.60509792 0 59.41464859 0 694.68208805 0 23649
0.14850000 0.14849900 10822.47780911 0 321.37865679 0 2970.40579607 0 282.61334037 0 620.26167125 0 23640
0.14950000 0.14949500 10513.54887435 0 274.66119668 0 2853.53740761 0 122.40233641 0 190.16164260 0 24457
0.15050000 0.15050000 10089.91065446 0 271.86654190 0 2811.19683751 0 -141.96713436 0 212.42033718 0 24591
0.15150000 0.15149900 10021.30652989 0 333.91363572 0 2645.64343682 0 125.69856750 0 399.86040234 0 25020
0.15250000 0.15250500 9907.69340492 0 52.86282183 0 2636.06587585 0 89.48752569 0 544.05639568 0 25297
0.15350000 0.15350100 9858.52121040 0 -94.41017058 0 2777.47053611 0 29.69929686 0 660.11761167 0 25452
0.15450000 0.15450400 9951.11906286 0 103.66286954 0 2856.13940394 0 164.78276688 0 356.71376698 0 26061
0.15550000 0.15549900 9717.42657524 0 189.37772200 0 2995.71713061 0 0.45437389 0 831.57809764 0 26128
0.15650000 0.15649500 9638.53626091 0 184.46825318 0 2890.19787509 0 144.03655187 0 957.74723895 0 26331
0.15750000 0.15749700 9538.53102314 0 125.67863732 0 3227.13979164 0 -184.11836771 0 880.19778316 0 27345
0.15850000 0.15849900 9450.30673899 0 249.31332348 0 2976.29627288 0 243.71515605 0 808.16898851 0 26980
0.15950000 0.15949700 9182.12395956 0 191.96643154 0 2999.33778082 0 -12.97753975 0 1188.61406928 0 27777
0.16050000 0.16050000 9042.13655687 0 19.51596900 0 2540.81066543 0 535.29265059 0 752.19949379 0 28224
0.16150000 0.16150500 9288.81688151 0 -67.39923419 0 2785.27652510 0 264.89208450 0 437.91930444 0 28075
0.16250000 0.16249700 9025.91560101 0 82.49679197 0 2224.06466935 0 203.23695098 0 168.64479378 0 28590
0.16350000 0.16349900 9137.67964773 0 135.37688663 0 2409.19394031 0 -173.29849190 0 437.73328938 0 29163
0.16450000 0.16449100 8903.83214756 0 194.85187939 0 2232.23604506 0 -7.93856901 0 455.26520850 0 28996
0.16550000 0.16550500 8773.87627117 0 130.00127293 0 2516.93873313 0 -23.66399405 0 670.84447995 0 30777
0.16650000 0.16650700 8845.46992344 0 122.34365308 0 2689.60056635 0 131.84149331 0 346.79960734 0 29211
0.16750000 0.16749900 8699.44810374 0 65.72255204 0 2599.10645560 0 -10.23224539 0 628.45519161 0 30922
0.16850000 0.16850800 8715.96801237 0 82.52148326 0 2818.17240214 0 -101.67350494 0 894.92951133 0 30867
0.16950000 0.16949900 8585.29243486 0 244.50904174 0 2919.00806426 0 -72.15114383 0 853.11376942 0 30852
0.17050000 0.17049200 8516.96511840 0 220.35587238 0 2968.92210455 0 44.25575013 0 967.49863542 0 31257
0.17150000 0.17149500 8233.52467537 0 273.94481727 0 2939.09326149 0 113.78031707 0 852.12501081 0 32608
0.17250000 0.17250900 8019.18661153 0 164.45613330 0 2772.39941134 0 316.60759203 0 889.87056612 0 32361
0.17350000 0.17350400 7938.08183223 0 -94.40695961 0 2542.72617763 0 269.22468520 0 798.24707824 0 32508
0.17450000 0.17449800 8055.99101923 0 -132.22902468 0 2265.81840624 0 613.83529392 0 536.44970853 0 32791
0.17550000 0.17549800 8003.47498261 0 17.71372669 0 2172.92160101 0 66.48122774 0 457.39773826 0 33633
0.17650000 0.17650100 8011.32526091 0 200.58734365 0 1887.79816460 0 128.57405026 0 195.19179976 0 33984
0.17750000 0.17750300 7886.70624507 0 50.10370921 0 1915.87758034 0 -229.99654560 0 405.06107331 0 34069
0.17850000 0.17849800 7788.22898814 0 37.88506660 0 1920.76047559 0 -106.53325903 0 283.22010377 0 34536
