### header ###
fiducial parameters:
Omega_m = 0.31
Omega_nu = 0
Omega_de = 0.69
Omega_k = 0
H_0 = 100
w_de = -1
zeff = 0
beta = 0
fgrowth = 0
b_1 = 2
gamma = 0.55
Lx = 3500 Ly = 3500 Lz = 3500
nx = 700 ny = 700 nz = 700
xoffset = -685.467585 yoffset = -31.7331281 zoffset = 572.489161
bins = 400 dk = 0.001
kx_ny = 0.628318531 ky_ny = 0.628318531 kz_ny = 0.628318531
############################
A(data) = 8.06270443 (not used)
A(ran) = 8.06757372 (used)
Ngal = 479253
weighted Ngal = 0
Nran = 23820508
weighted Nran = 0
SN(data) = 3479.84938
SN(ran) = 70.2714929
SN(data+ran) = 3550.12088
############################
13 columns: k_central k_mean P_0(k) sigma^{lin}_{P_0(k)} P^img_1(k) sigma^{lin}_{P_1(k)} P_2(k) sigma^{lin}_{P_2(k)} P^img_3(k) sigma^{lin}_{P_3(k)} P_4(k) sigma^{lin}_{P_4(k)} N_modes
### header ###
0.00050000 0 0 0 0 0 0 0 0 0 0 0 0
0.00150000 0.00179520 65010.82300294 0 -44055.56249766 0 24951.70542532 0 -2074.37791012 0 -208056.73396974 0 3
0.00250000 0.00253879 107881.53602176 0 -31092.74893948 0 2149.54792332 0 28568.48032733 0 206269.66074401 0 6
0.00350000 0.00331552 89377.79895458 0 13141.41015751 0 13688.27228030 0 -65227.72984613 0 9380.91647935 0 7
0.00450000 0.00420575 76350.98735895 0 23155.66361648 0 -30615.53173980 0 2317.98012846 0 52714.56339884 0 24
0.00550000 0.00557378 70360.97035531 0 -22779.09384940 0 -39457.77961672 0 40450.74570646 0 2541.79610234 0 45
0.00650000 0.00659388 75586.88622321 0 -10742.50240695 0 -33920.73142141 0 -10475.73688509 0 17754.58356995 0 40
0.00750000 0.00754703 77597.39896378 0 2413.37927910 0 -13203.63662299 0 -25800.17767617 0 6396.14987799 0 57
0.00850000 0.00846663 82564.66532392 0 1776.85346992 0 -17284.12048840 0 -7188.70688851 0 50231.04094202 0 75
0.00950000 0.00948925 71832.26087721 0 -3418.05988849 0 19743.06238413 0 -15467.26270891 0 31686.11482651 0 112
0.01050000 0.01054430 99285.53664880 0 -22747.20555392 0 17815.14918671 0 5420.63377217 0 28554.97209105 0 105
0.01150000 0.01145670 110040.08574515 0 -3654.02220270 0 41721.29497940 0 -10419.51161966 0 18475.17046915 0 144
0.01250000 0.01249090 116161.97413738 0 14272.66958423 0 52454.03159586 0 -42552.38368028 0 3486.84117026 0 169
0.01350000 0.01339930 102317.13918415 0 18560.53809350 0 70649.18297034 0 -11474.13948631 0 24036.68850230 0 180
0.01450000 0.01448870 88633.62800352 0 18352.93200315 0 74258.31796822 0 8902.09379257 0 19358.52054318 0 267
0.01550000 0.01550050 73185.74186304 0 2385.58774380 0 59911.35308446 0 30715.95772590 0 -261.14963871 0 238
0.01650000 0.01653350 81050.30345848 0 -8935.34398400 0 53764.77340789 0 33435.65287111 0 -31947.53241548 0 315
0.01750000 0.01747870 75251.06261146 0 4532.09077779 0 42327.50476322 0 10004.27729431 0 -24532.28576119 0 297
0.01850000 0.01844180 77385.47466675 0 6627.21822463 0 20013.33783295 0 9894.72771256 0 -11529.39038716 0 388
0.01950000 0.01947590 68106.20212924 0 1100.20598453 0 14722.64886486 0 8190.58619972 0 -1012.44673802 0 399
0.02050000 0.02045430 71007.81557121 0 -2152.82533146 0 13556.40089171 0 10500.90427941 0 -2972.62026104 0 462
0.02150000 0.02154770 70757.69175356 0 -2492.56854620 0 6880.59730578 0 6348.69389381 0 -7404.94939221 0 571
0.02250000 0.02255340 72551.29765093 0 -2103.07737605 0 14237.01669831 0 9821.06353554 0 -1444.38477259 0 510
0.02350000 0.02348930 75725.95462293 0 563.00114345 0 7833.96876196 0 -11684.73510437 0 -3887.30501430 0 555
0.02450000 0.02439640 74702.87180969 0 824.59699685 0 10746.66560108 0 -1685.51786249 0 7103.66036157 0 592
0.02550000 0.02547300 74426.06368923 0 2917.73474691 0 21367.37243502 0 -8583.75338171 0 7896.67133741 0 837
0.02650000 0.02652900 74671.75857695 0 1556.96817135 0 24973.07501222 0 -3358.00359867 0 12562.65973924 0 723
0.02750000 0.02749970 75380.16591885 0 -1300.23417578 0 30061.25115938 0 6866.41365768 0 14972.55123601 0 826
0.02850000 0.02848090 74726.45586155 0 1599.40839238 0 31973.66310205 0 5742.45089302 0 17179.48701887 0 831
0.02950000 0.02946900 72388.86664584 0 5249.80994486 0 30668.23600593 0 5531.70026242 0 15759.79353062 0 996
0.03050000 0.03053250 65601.42080876 0 6457.68985933 0 37629.84951241 0 5736.32789739 0 27027.43415907 0 1041
0.03150000 0.03150510 63933.81796783 0 2880.60924179 0 31687.44350549 0 2107.88276502 0 23979.99819923 0 1036
0.03250000 0.03246190 61278.78519956 0 772.53492555 0 33917.74189371 0 -4901.17565330 0 18032.05602990 0 1059
0.03350000 0.03345080 62205.87095663 0 1556.28168721 0 32806.74482141 0 -7175.65261754 0 11621.62285290 0 1302
0.03450000 0.03451200 60688.63028673 0 1038.77119028 0 36266.84632724 0 -1097.40025743 0 5792.14348681 0 1339
0.03550000 0.03553350 60823.93409601 0 -762.01621697 0 36793.33537236 0 -1163.46881962 0 4670.00765573 0 1365
0.03650000 0.03647120 60501.28655080 0 -185.64413407 0 32768.54530078 0 7996.43298403 0 -11614.31511852 0 1308
0.03750000 0.03744890 58199.12877451 0 4253.34500048 0 35145.77343935 0 4629.50509155 0 -4279.63069960 0 1579
0.03850000 0.03847530 56688.08860651 0 4924.91471771 0 33338.43785920 0 8723.80721834 0 -537.09522507 0 1662
0.03950000 0.03950240 50746.23621583 0 3710.36926370 0 33444.28928447 0 5640.12046705 0 8812.26402131 0 1683
0.04050000 0.04050350 48593.55482459 0 2180.26255236 0 29761.08043354 0 5391.50248557 0 9572.65592823 0 1822
0.04150000 0.04152450 46397.46992006 0 1479.71656109 0 26340.83929706 0 9215.81704398 0 10580.63609042 0 1887
0.04250000 0.04250150 46658.77678578 0 167.94280838 0 24700.14220544 0 5591.45759947 0 12722.87627936 0 1920
0.04350000 0.04349210 45513.12333679 0 -1768.91461303 0 18361.01480026 0 3088.12675354 0 11314.36583918 0 2005
0.04450000 0.04448520 46136.93811707 0 735.09607364 0 18392.90309574 0 3142.07112006 0 4518.98114521 0 2151
0.04550000 0.04548030 44341.11775474 0 2044.25011429 0 16315.95640626 0 -357.62723378 0 4969.17080001 0 2274
0.04650000 0.04648670 42882.00679014 0 1820.77738248 0 17784.92173995 0 1379.02483919 0 6994.14399679 0 2311
0.04750000 0.04749250 40237.60345370 0 1753.36906898 0 16169.13737917 0 2481.50729371 0 5715.24619094 0 2568
0.04850000 0.04851840 40347.88380889 0 581.62700826 0 16445.39188339 0 2891.73692824 0 2679.86799283 0 2493
0.04950000 0.04949480 40219.44484100 0 980.61601863 0 19563.13710583 0 -225.68276785 0 4268.86839988 0 2644
0.05050000 0.05050630 38774.83862191 0 1697.63098584 0 18737.03095111 0 -1636.45639122 0 6639.48636053 0 2829
0.05150000 0.05149060 37554.77915014 0 929.87376845 0 16591.21440125 0 -259.32934851 0 6719.52819664 0 2784
0.05250000 0.05249300 37174.11262287 0 47.81251303 0 19455.73555508 0 4154.18125941 0 5675.59619576 0 3055
0.05350000 0.05348950 37936.88507963 0 -19.94059266 0 15518.74901932 0 2574.95771517 0 3306.65015617 0 3009
0.05450000 0.05448610 35923.71498111 0 579.82111208 0 12932.58611143 0 5573.57579489 0 1724.25992703 0 3336
0.05550000 0.05550870 35607.37866104 0 682.93213695 0 9260.26135580 0 705.46321073 0 989.63885613 0 3349
0.05650000 0.05647670 36313.46081472 0 -259.84088991 0 9533.98029764 0 65.05887689 0 732.61365842 0 3324
0.05750000 0.05747970 35318.83387626 0 1173.20139313 0 11815.05636748 0 -2677.99676994 0 2892.51199097 0 3639
0.05850000 0.05849280 34448.77059201 0 1697.13273123 0 12490.24673492 0 -211.37953865 0 5522.52130515 0 3846
0.05950000 0.05951020 33372.76206614 0 191.96975324 0 14140.24457940 0 728.01310745 0 4250.62120858 0 3787
0.06050000 0.06049470 33910.98777557 0 -611.24104822 0 14014.90586245 0 2589.37388209 0 2512.73124969 0 3930
0.06150000 0.06148310 34574.22003221 0 356.66504876 0 14088.64754574 0 1234.06596266 0 5075.63120314 0 4083
0.06250000 0.06249100 33418.04787465 0 1382.62334475 0 14207.56431429 0 -1530.31708551 0 2691.80395899 0 4303
0.06350000 0.06350600 33412.29026574 0 1116.81004283 0 13681.96105515 0 321.67539510 0 3358.31362377 0 4470
0.06450000 0.06451750 31071.04718284 0 749.41923303 0 11829.56111299 0 2032.14806327 0 2878.64944030 0 4479
0.06550000 0.06550280 31400.44884619 0 -912.92203916 0 9572.29054152 0 3264.37602001 0 -470.53172996 0 4636
0.06650000 0.06648880 32576.88335817 0 -1061.24468796 0 9876.66875078 0 2365.95651190 0 998.22101510 0 4653
0.06750000 0.06749660 32543.11276748 0 -99.71857527 0 8558.26488997 0 523.05551720 0 -2845.23316400 0 5220
0.06850000 0.06852730 31257.94802578 0 2104.93752662 0 8803.62760796 0 -1828.08511686 0 1036.97193750 0 5029
0.06950000 0.06949320 31061.63570674 0 1695.51617180 0 8058.37156906 0 -754.02532015 0 1318.62530730 0 5040
0.07050000 0.07048030 29347.30765507 0 29.63994920 0 10242.45407349 0 -640.46866404 0 -442.56414470 0 5475
0.07150000 0.07148790 29771.15624913 0 157.66436926 0 9027.01176117 0 1298.46260381 0 -1847.14058787 0 5509
0.07250000 0.07249820 29675.82353244 0 -828.43687909 0 8261.55980181 0 1370.49914908 0 -2544.82991934 0 5916
0.07350000 0.07351270 29992.15985251 0 109.71599880 0 7173.61530978 0 319.44653611 0 -3876.47628063 0 5721
0.07450000 0.07449140 30250.80936027 0 647.76200440 0 6841.92167519 0 -554.52749326 0 -3423.36353208 0 6028
0.07550000 0.07549160 29164.39284907 0 817.32026498 0 8187.62988899 0 -324.70478317 0 -3730.46553325 0 6183
0.07650000 0.07648840 28220.80932802 0 1465.20074325 0 9224.29844479 0 -1556.69136323 0 -1971.10633654 0 6330
0.07750000 0.07749960 27662.76415716 0 1125.02570785 0 10268.11972242 0 -89.31380092 0 -3021.75923858 0 6583
0.07850000 0.07848650 26821.37819419 0 396.08584681 0 11197.77425884 0 -783.74676166 0 -1108.68295642 0 6549
0.07950000 0.07947320 26548.66683391 0 745.63581963 0 12014.80110721 0 -97.43645840 0 -1286.51556533 0 6828
0.08050000 0.08048110 25501.22490607 0 1280.14897856 0 11886.36213931 0 605.99387349 0 -519.71388957 0 7147
0.08150000 0.08149960 25222.20232064 0 243.91667236 0 11036.27332904 0 1638.16152924 0 -147.34939145 0 7386
0.08250000 0.08250610 24754.06442730 0 -192.31299531 0 10687.90477327 0 1740.93484821 0 -746.90581529 0 7227
0.08350000 0.08350160 24244.51603915 0 795.19665276 0 9297.13219745 0 1683.65771192 0 -1167.27769936 0 7798
0.08450000 0.08449610 23587.81645415 0 1025.90625607 0 8828.65106205 0 698.66923222 0 -1457.83764725 0 7371
0.08550000 0.08548940 22630.83542008 0 390.87853245 0 8337.91455376 0 1296.34778977 0 654.66670616 0 8256
0.08650000 0.08650700 22258.03024344 0 602.88587191 0 8454.57256805 0 1129.06710641 0 1258.07076287 0 8037
0.08750000 0.08749060 21811.37266025 0 341.84584922 0 7599.24654813 0 1507.98420635 0 3225.73360639 0 8155
0.08850000 0.08849210 21957.63807111 0 -125.03201355 0 7650.14602532 0 1647.97160903 0 3286.52066965 0 8718
0.08950000 0.08949900 21574.75707888 0 393.40523697 0 7385.27387101 0 1421.35433697 0 3964.89986663 0 8571
0.09050000 0.09049190 20935.21959735 0 703.92637204 0 6639.04346753 0 984.49022509 0 4226.21780468 0 8932
0.09150000 0.09150830 20757.61950726 0 551.02531692 0 6088.57176685 0 -197.06412989 0 3706.99220463 0 9285
0.09250000 0.09250820 19866.74025235 0 663.56110468 0 7246.24976059 0 -1216.21737505 0 2576.61856390 0 9204
0.09350000 0.09350330 19780.48684202 0 909.11205219 0 7184.15616301 0 -1493.34659294 0 1894.92874179 0 9349
0.09450000 0.09448040 18670.92917194 0 707.27353584 0 7714.49837717 0 -1310.18819579 0 1723.45164732 0 9564
0.09550000 0.09549270 18631.95458858 0 146.35066776 0 8092.09787046 0 229.93675504 0 991.71380980 0 10155
0.09650000 0.09649430 18274.42922018 0 -36.59170834 0 8193.32106395 0 1269.13201536 0 870.93024728 0 9913
0.09750000 0.09749140 18278.96887336 0 377.00269498 0 7250.31330380 0 1442.15923530 0 401.40942058 0 10476
0.09850000 0.09850240 18106.79422243 0 508.69803361 0 7175.96264264 0 1173.87680495 0 2225.21619113 0 10575
0.09950000 0.09950330 17548.63832832 0 332.41001401 0 6491.36079910 0 466.69295494 0 1434.20930608 0 10882
0.10050000 0.10051200 17522.17547200 0 149.51181649 0 6591.82000218 0 489.71121101 0 2707.12805653 0 10875
0.10150000 0.10150300 17173.84013321 0 -29.45769873 0 6422.24734758 0 771.57606222 0 2154.14293812 0 11118
0.10250000 0.10250800 17307.70454027 0 156.23493212 0 5809.65990467 0 579.50001466 0 1621.76341619 0 11575
0.10350000 0.10349800 16926.92728975 0 -9.71323016 0 5600.14937445 0 41.49298364 0 1162.30622551 0 11364
0.10450000 0.10450100 16628.30668939 0 863.08218345 0 5592.64233822 0 -135.23516087 0 921.83083171 0 12093
0.10550000 0.10551000 16303.33395597 0 646.48536535 0 5133.66125752 0 -127.57532656 0 1130.71688280 0 12067
0.10650000 0.10649700 15529.26772790 0 245.75467828 0 5369.20282338 0 81.72615817 0 121.62173751 0 12054
0.10750000 0.10749900 15701.33165558 0 291.68932502 0 5027.55516878 0 -131.59236600 0 936.86372711 0 12807
0.10850000 0.10850100 15110.29095676 0 -162.48083055 0 5267.76925572 0 448.23206777 0 -182.35786807 0 12736
0.10950000 0.10950300 15210.27404987 0 -76.77638608 0 5021.70898127 0 295.79826476 0 383.66159113 0 12933
0.11050000 0.11050200 15539.45426673 0 -66.16001960 0 5173.69878406 0 310.47241684 0 -479.83137557 0 13428
0.11150000 0.11150900 15368.94046452 0 301.47947463 0 5256.04366374 0 -564.14934353 0 -406.06533317 0 13453
0.11250000 0.11250000 15499.48317413 0 410.34700117 0 5420.25731312 0 -818.20051480 0 -369.72596311 0 13668
0.11350000 0.11349100 15024.25899292 0 51.99984483 0 5460.90381753 0 -247.65690368 0 -133.85444197 0 13791
0.11450000 0.11448600 15173.07103848 0 60.72273305 0 5685.50592648 0 -48.35096019 0 -303.17021863 0 14205
0.11550000 0.11549300 15007.87195219 0 92.45568381 0 5288.39699686 0 964.38399045 0 -102.01840786 0 14776
0.11650000 0.11649800 15203.96282472 0 50.03960045 0 5324.75851156 0 1406.62814496 0 -187.85970627 0 14553
0.11750000 0.11747300 14674.37352865 0 416.07471480 0 4301.39889020 0 1033.33246433 0 -127.58086272 0 14568
0.11850000 0.11849100 14614.02935839 0 213.04703077 0 4119.24807461 0 954.40118239 0 842.31160932 0 16015
0.11950000 0.11950300 14244.43515594 0 107.95904230 0 4193.02297487 0 595.47737937 0 1722.38870414 0 15270
0.12050000 0.12050700 14074.80713972 0 217.33644940 0 3760.48260583 0 65.44231150 0 1102.30419009 0 15999
0.12150000 0.12150000 13920.45893175 0 34.02049307 0 4141.94634048 0 -81.11275137 0 1830.26636485 0 15670
0.12250000 0.12250700 14073.47846074 0 150.75413134 0 4033.79187166 0 -208.93034040 0 891.86801351 0 16887
0.12350000 0.12352200 13747.50921808 0 264.90647852 0 4432.58379465 0 -424.39224521 0 1108.45043759 0 16407
0.12450000 0.12449800 13688.60445004 0 405.46078423 0 4303.84587398 0 -97.81933940 0 642.32217122 0 16306
0.12550000 0.12549900 13430.39783527 0 72.13962861 0 4097.97813863 0 -337.96057044 0 936.72421582 0 17523
0.12650000 0.12650100 13473.13700907 0 23.24346715 0 4302.55041198 0 58.95835809 0 141.00273487 0 17154
0.12750000 0.12750600 13316.02071990 0 179.67061483 0 4175.15224262 0 74.76155513 0 13.03932332 0 18007
0.12850000 0.12850300 13344.25514818 0 295.38748151 0 4075.98850154 0 232.17447189 0 141.15221125 0 17496
0.12950000 0.12949900 12889.73621438 0 344.62500275 0 4057.99597371 0 97.98597788 0 244.38171000 0 18405
0.13050000 0.13049000 12696.85631604 0 245.83772072 0 4121.16358680 0 339.75096536 0 -89.75746897 0 18100
0.13150000 0.13148800 12382.84518418 0 280.77533445 0 4049.66958545 0 178.89112316 0 17.96152532 0 19059
0.13250000 0.13249300 12297.92045282 0 233.37914083 0 4210.14078904 0 359.50510007 0 529.72216397 0 18957
0.13350000 0.13349100 11932.53373381 0 81.68840154 0 4064.41792210 0 498.10403322 0 951.44708613 0 19468
0.13450000 0.13450700 11976.04797034 0 7.26273645 0 3819.22128899 0 601.72881397 0 1276.87157041 0 19953
0.13550000 0.13551000 12194.28349252 0 -72.20063712 0 3765.60909222 0 762.45135934 0 1121.36076833 0 19956
0.13650000 0.13649900 12083.22807459 0 24.93675779 0 3604.28531962 0 197.87462407 0 1377.04289305 0 19723
0.13750000 0.13749600 11864.43893617 0 379.03889552 0 3547.66145049 0 -134.33719533 0 1550.03689601 0 20946
0.13850000 0.13851100 11748.84386507 0 293.66794947 0 3935.86823096 0 -446.10950311 0 1608.39912013 0 20955
0.13950000 0.13949800 11462.07065226 0 221.56607748 0 3865.54789604 0 -234.76539590 0 1488.43048072 0 20506
0.14050000 0.14048300 11478.23624650 0 57.70641032 0 4111.05455424 0 -171.32097469 0 799.46392674 0 21447
0.14150000 0.14148400 11303.40423761 0 123.04896017 0 3773.74725096 0 169.74649010 0 966.53866486 0 21771
0.14250000 0.14249400 11347.91498338 0 -55.91003634 0 3944.54893362 0 -13.46239685 0 464.31351234 0 22470
0.14350000 0.14350900 11224.68000815 0 232.07260650 0 3824.70208978 0 322.14707613 0 597.55011858 0 22519
0.14450000 0.14449900 11175.18671621 0 247.76098354 0 3639.01920257 0 324.26742634 0 284.17010924 0 22218
0.14550000 0.14550500 10813.74174483 0 190.51927869 0 3330.53316080 0 -5.95908093 0 332.43990928 0 23559
0.14650000 0.14650700 10741.40624679 0 28.72094624 0 3494.53643601 0 182.41876585 0 437.49523440 0 23044
0.14750000 0.14750500 10747.45173614 0 -5.04145094 0 3371.47861798 0 399.48394329 0 125.53912603 0 23649
0.14850000 0.14849900 10691.91295485 0 117.02118654 0 3326.10423087 0 -34.91580125 0 26.28115947 0 23640
0.14950000 0.14949500 10504.11525360 0 188.66023535 0 3012.08202669 0 156.25818400 0 -150.60908388 0 24457
0.15050000 0.15050000 10405.73764759 0 153.72705055 0 2790.29228825 0 131.14172238 0 104.95644925 0 24591
0.15150000 0.15149900 10380.72526582 0 69.48658886 0 2769.35452202 0 276.78154689 0 201.63810727 0 25020
0.15250000 0.15250500 10305.30058916 0 13.88082001 0 2567.88249962 0 390.05142978 0 109.22161949 0 25297
0.15350000 0.15350100 10156.56604987 0 242.47727013 0 2521.09085493 0 195.22390950 0 141.87634130 0 25452
0.15450000 0.15450400 9985.26611260 0 398.73213244 0 2413.13568795 0 -39.88207110 0 498.83812836 0 26061
0.15550000 0.15549900 9783.12975071 0 195.44867770 0 2229.00292622 0 30.71119663 0 493.08384115 0 26128
0.15650000 0.15649500 9561.21821670 0 33.47296661 0 2345.92667630 0 113.99069124 0 594.66024180 0 26331
0.15750000 0.15749700 9708.29190726 0 35.09816244 0 2615.71494283 0 126.91873770 0 381.94205908 0 27345
0.15850000 0.15849900 9565.60285732 0 101.17048923 0 2471.40933347 0 -15.55772360 0 -66.32986906 0 26980
0.15950000 0.15949700 9449.05556628 0 166.29967538 0 2617.18756203 0 -219.87976241 0 97.27745982 0 27777
0.16050000 0.16050000 9388.56745580 0 258.96506902 0 3009.29180084 0 -375.12482869 0 93.26407424 0 28224
0.16150000 0.16150500 9144.74379097 0 283.01194406 0 2936.91201350 0 -146.75591484 0 309.37072053 0 28075
0.16250000 0.16249700 9013.31529537 0 233.21859212 0 3009.24751154 0 46.71391696 0 723.68936461 0 28590
0.16350000 0.16349900 9013.97963486 0 -27.67106840 0 3222.79944031 0 263.25338042 0 650.89657956 0 29163
0.16450000 0.16449100 8848.08299210 0 -17.81271328 0 2876.19138419 0 425.27249503 0 581.35905800 0 28996
0.16550000 0.16550500 8881.37747283 0 50.75199382 0 3002.34945317 0 371.19083169 0 422.63396003 0 30777
0.16650000 0.16650700 8683.55931762 0 137.93902259 0 2546.94473338 0 319.80195774 0 509.62700166 0 29211
0.16750000 0.16749900 8671.46833892 0 58.53074490 0 2391.79931802 0 -39.00702527 0 142.95810743 0 30922
0.16850000 0.16850800 8608.19000258 0 24.63858008 0 2311.74640959 0 30.18271456 0 308.21809151 0 30867
0.16950000 0.16949900 8504.95164597 0 111.57249550 0 2174.99212575 0 -182.13199264 0 -254.97460316 0 30852
0.17050000 0.17049200 8438.87201145 0 96.86091896 0 2151.97276245 0 28.53891722 0 -29.37410268 0 31257
0.17150000 0.17149500 8426.52636928 0 117.24927643 0 2337.94353011 0 25.80117419 0 -10.44854326 0 32608
0.17250000 0.17250900 8410.08396693 0 55.54033142 0 2112.89852817 0 30.00223567 0 -253.16206358 0 32361
0.17350000 0.17350400 8336.96233382 0 144.57134516 0 2150.66622812 0 238.10038013 0 205.63964546 0 32508
0.17450000 0.17449800 8273.44040634 0 97.63421013 0 2167.03112421 0 -49.31259160 0 96.35513516 0 32791
0.17550000 0.17549800 8158.23286660 0 183.49167413 0 2460.35915330 0 251.38938438 0 277.91092402 0 33633
0.17650000 0.17650100 8125.23733864 0 151.68863555 0 2389.08659844 0 -25.74913426 0 314.83269836 0 33984
0.17750000 0.17750300 7838.19839004 0 61.26616275 0 2392.29757264 0 181.57173300 0 498.51038754 0 34069
0.17850000 0.17849800 7990.93003859 0 8.82927111 0 2450.92553256 0 -86.54937358 0 594.59491509 0 34536
