### header ###
fiducial parameters:
Omega_m = 0.31
Omega_nu = 0
Omega_de = 0.69
Omega_k = 0
H_0 = 100
w_de = -1
zeff = 0
beta = 0
fgrowth = 0
b_1 = 2
gamma = 0.55
Lx = 3500 Ly = 3500 Lz = 3500
nx = 700 ny = 700 nz = 700
xoffset = -685.467585 yoffset = -31.7331281 zoffset = 572.489161
bins = 400 dk = 0.001
kx_ny = 0.628318531 ky_ny = 0.628318531 kz_ny = 0.628318531
############################
A(data) = 7.95859748 (not used)
A(ran) = 7.94509583 (used)
Ngal = 472487
weighted Ngal = 0
Nran = 23820508
weighted Nran = 0
SN(data) = 3502.70267
SN(ran) = 69.2046661
SN(data+ran) = 3571.90734
############################
13 columns: k_central k_mean P_0(k) sigma^{lin}_{P_0(k)} P^img_1(k) sigma^{lin}_{P_1(k)} P_2(k) sigma^{lin}_{P_2(k)} P^img_3(k) sigma^{lin}_{P_3(k)} P_4(k) sigma^{lin}_{P_4(k)} N_modes
### header ###
0.00050000 0 0 0 0 0 0 0 0 0 0 0 0
0.00150000 0.00179520 41537.38366416 0 -46490.69889503 0 4587.05379819 0 -23231.73048799 0 -13025.15074691 0 3
0.00250000 0.00253879 46297.70827344 0 -16929.03103147 0 -4240.49003137 0 5831.51667386 0 33262.59243419 0 6
0.00350000 0.00331552 58458.99623800 0 -6746.56681385 0 -18435.42082305 0 21848.79711814 0 -7776.28194966 0 7
0.00450000 0.00420575 48069.05879793 0 2756.45526360 0 -18202.12693912 0 -18896.69387499 0 2264.15755752 0 24
0.00550000 0.00557378 47806.97686947 0 2670.21292559 0 -32637.78114468 0 -266.49314267 0 9078.88560295 0 45
0.00650000 0.00659388 38414.21300256 0 -4980.97389827 0 -30134.77139617 0 -2463.59227215 0 9797.75629180 0 40
0.00750000 0.00754703 42796.97133553 0 -4462.30191446 0 -48337.56267478 0 2498.90191600 0 3459.04963497 0 57
0.00850000 0.00846663 48494.90041045 0 -11901.19905457 0 -32806.63409816 0 -8229.32826426 0 5712.28988021 0 75
0.00950000 0.00948925 53182.92273867 0 -8387.20854385 0 -27637.74070307 0 -16234.13192585 0 -2612.57040258 0 112
0.01050000 0.01054430 61006.51673227 0 2965.52290083 0 -3002.59304432 0 -32128.89709601 0 35147.76645781 0 105
0.01150000 0.01145670 57868.17698568 0 6497.94883237 0 7256.94562636 0 -16262.58780063 0 28304.84827339 0 144
0.01250000 0.01249090 60914.94860602 0 2246.04323411 0 30361.64333171 0 -8289.36240943 0 46746.58032159 0 169
0.01350000 0.01339930 60798.57847218 0 2325.23250122 0 43283.26784156 0 -3509.92696751 0 16001.50238141 0 180
0.01450000 0.01448870 66870.08778648 0 -522.70009557 0 53231.97313761 0 17391.74348564 0 36141.50761029 0 267
0.01550000 0.01550050 66859.45835466 0 -484.00896373 0 59043.28281868 0 15650.73113116 0 38483.08286294 0 238
0.01650000 0.01653350 70930.86291372 0 2726.67070984 0 52928.25926784 0 12921.51378661 0 14494.89114334 0 315
0.01750000 0.01747870 70300.40473855 0 1624.67543761 0 52581.91694751 0 -5201.04742636 0 8028.89704039 0 297
0.01850000 0.01844180 66212.94530850 0 10434.99072976 0 53280.24847382 0 1739.06362532 0 1266.24213859 0 388
0.01950000 0.01947590 65613.93253581 0 1324.19468669 0 48919.52406725 0 -23.69123197 0 12919.29932164 0 399
0.02050000 0.02045430 63906.24787903 0 -3891.64536563 0 43784.62270935 0 20084.97577453 0 -4395.49150651 0 462
0.02150000 0.02154770 68339.93890616 0 -1897.39787022 0 38901.39529458 0 22924.69492077 0 -7945.13490314 0 571
0.02250000 0.02255340 60614.44571045 0 -2469.11736223 0 19506.11463301 0 20399.54052263 0 -10731.64045630 0 510
0.02350000 0.02348930 66372.38678589 0 -2238.61370416 0 21141.38628548 0 10667.66456350 0 -10094.18457184 0 555
0.02450000 0.02439640 65621.12954694 0 5564.35254831 0 17830.65044145 0 5811.59756151 0 763.79332510 0 592
0.02550000 0.02547300 57662.01029755 0 7382.79367025 0 13693.91916596 0 -2881.73861892 0 -3051.25591190 0 837
0.02650000 0.02652900 52380.84352880 0 5837.89433296 0 11009.29007345 0 -8415.28795959 0 6027.55218477 0 723
0.02750000 0.02749970 47829.01079586 0 4769.30426471 0 18575.59645525 0 -6228.76954370 0 -2900.61693274 0 826
0.02850000 0.02848090 49638.89301071 0 232.03938953 0 17063.44905477 0 2008.43114350 0 3132.91430744 0 831
0.02950000 0.02946900 48568.53137050 0 -3646.10549046 0 15284.12645641 0 7704.64400808 0 -2031.45050680 0 996
0.03050000 0.03053250 53236.40206754 0 -2175.95541801 0 15494.38990472 0 4017.59306045 0 -1480.72414265 0 1041
0.03150000 0.03150510 56071.58156060 0 -481.02275772 0 19521.17299476 0 -1504.41891776 0 -11034.20280430 0 1036
0.03250000 0.03246190 52279.08886372 0 1088.73173433 0 17673.53415228 0 -5147.05877055 0 -6865.09605103 0 1059
0.03350000 0.03345080 54752.97839795 0 3102.99688578 0 27167.05617503 0 -9637.71690887 0 -1004.69389618 0 1302
0.03450000 0.03451200 51196.32621971 0 1251.69310377 0 24724.05842704 0 15.11981316 0 -104.17485384 0 1339
0.03550000 0.03553350 52462.66800921 0 1459.83066571 0 27632.97960340 0 3143.72089646 0 -2135.05425013 0 1365
0.03650000 0.03647120 50457.46998456 0 43.46153227 0 22936.32086183 0 844.86710189 0 -4601.64712230 0 1308
0.03750000 0.03744890 50996.80292647 0 -530.68767070 0 24520.77054337 0 7705.03153945 0 -1970.17626126 0 1579
0.03850000 0.03847530 49673.32794090 0 1677.50149932 0 20899.89888118 0 6461.64267929 0 -4230.95675970 0 1662
0.03950000 0.03950240 47476.57869688 0 3099.30980161 0 19446.32407899 0 1278.33311729 0 -3608.14956098 0 1683
0.04050000 0.04050350 45827.90953138 0 3031.41430582 0 20362.11606474 0 -1473.64892709 0 -3435.43236613 0 1822
0.04150000 0.04152450 43392.66241077 0 1465.82079344 0 21794.76417302 0 -4149.37587044 0 1998.83143789 0 1887
0.04250000 0.04250150 43425.21504574 0 -535.12988742 0 18695.39900979 0 637.85116646 0 -3513.50332843 0 1920
0.04350000 0.04349210 44036.29665248 0 -1304.44165921 0 22115.52942302 0 5388.44652392 0 1387.31801048 0 2005
0.04450000 0.04448520 44357.50479547 0 912.56772476 0 17200.41371277 0 7652.40477959 0 -2460.95705884 0 2151
0.04550000 0.04548030 43299.43343580 0 840.99621714 0 18695.73117953 0 6985.19755834 0 913.63620411 0 2274
0.04650000 0.04648670 40860.53244800 0 1664.65760253 0 10678.84761157 0 3814.19445353 0 1560.25665182 0 2311
0.04750000 0.04749250 40204.71864899 0 1125.32466062 0 10453.75832033 0 3909.80397834 0 1059.11769437 0 2568
0.04850000 0.04851840 39120.84877249 0 1127.81593370 0 11553.08516227 0 -1557.08996692 0 5453.55179385 0 2493
0.04950000 0.04949480 38260.19696434 0 599.16114184 0 10190.59130404 0 -775.40155044 0 5769.32342535 0 2644
0.05050000 0.05050630 38169.51462407 0 577.72290653 0 13852.69630386 0 676.14148014 0 5949.16012506 0 2829
0.05150000 0.05149060 38297.62142222 0 486.41276545 0 13136.98122758 0 1049.90330565 0 7316.13827484 0 2784
0.05250000 0.05249300 37944.08209076 0 237.51908308 0 15666.12166265 0 1089.48575965 0 4734.81397290 0 3055
0.05350000 0.05348950 37374.07880910 0 980.16869671 0 14216.86506714 0 716.20336580 0 8737.19365904 0 3009
0.05450000 0.05448610 37991.80381073 0 252.71917059 0 16231.25312140 0 -834.35282224 0 7293.44000897 0 3336
0.05550000 0.05550870 37426.89379848 0 611.83120313 0 16955.49388779 0 -1212.72959274 0 6041.82441147 0 3349
0.05650000 0.05647670 37585.56021314 0 1540.21574390 0 18120.19173546 0 -627.71334585 0 5547.41189134 0 3324
0.05750000 0.05747970 36378.67680790 0 595.94906041 0 17533.80141306 0 -946.04822055 0 3088.60286351 0 3639
0.05850000 0.05849280 35881.64014679 0 254.42652308 0 16417.71107134 0 1260.20772156 0 2891.38261384 0 3846
0.05950000 0.05951020 34438.80549968 0 157.91349656 0 14547.48468623 0 3983.54566163 0 -315.70076862 0 3787
0.06050000 0.06049470 35485.25091829 0 203.81271187 0 12013.58315148 0 4683.41624109 0 -1903.87518024 0 3930
0.06150000 0.06148310 34393.40896792 0 -592.22322311 0 9696.54417063 0 3885.86561208 0 -2215.28431577 0 4083
0.06250000 0.06249100 33221.84627886 0 952.87209434 0 8712.29200053 0 131.91899959 0 -2135.69644497 0 4303
0.06350000 0.06350600 33996.02323018 0 1543.14990997 0 9126.58517827 0 -653.78313464 0 -2633.75175996 0 4470
0.06450000 0.06451750 32366.61990987 0 301.39643219 0 9684.47533658 0 -1726.35259642 0 -694.16611772 0 4479
0.06550000 0.06550280 32362.08025669 0 1146.37315010 0 9323.15216077 0 -1730.12825919 0 -3649.08394583 0 4636
0.06650000 0.06648880 31893.27802387 0 1026.67356818 0 11915.15018384 0 -654.60027221 0 -809.24411125 0 4653
0.06750000 0.06749660 31414.84286846 0 315.27559135 0 12065.95524787 0 850.93473589 0 -1610.31463232 0 5220
0.06850000 0.06852730 31205.46520614 0 -230.60330900 0 9773.03179048 0 1680.74569050 0 -1517.21852525 0 5029
0.06950000 0.06949320 31432.22641842 0 -323.78799467 0 9920.24942127 0 788.51671919 0 -2106.96376207 0 5040
0.07050000 0.07048030 30929.32142516 0 -203.67984397 0 9629.45695455 0 1155.36387785 0 -4110.19091290 0 5475
0.07150000 0.07148790 31729.40761655 0 926.38598614 0 10159.10161225 0 -511.94333201 0 -1800.21607529 0 5509
0.07250000 0.07249820 29952.63165291 0 1502.30410372 0 10285.32611519 0 -1065.11446549 0 -2249.30956993 0 5916
0.07350000 0.07351270 28967.30546729 0 1488.82908441 0 10877.07544279 0 -588.80076751 0 -1284.88793358 0 5721
0.07450000 0.07449140 28637.90380394 0 135.78766988 0 11773.64587266 0 324.94615985 0 -1841.53799151 0 6028
0.07550000 0.07549160 28518.76558889 0 -197.21471351 0 12332.57682950 0 328.33207678 0 -2398.15483247 0 6183
0.07650000 0.07648840 28703.00907387 0 117.74420935 0 12049.12531415 0 517.86591856 0 -1629.69120076 0 6330
0.07750000 0.07749960 28679.31429876 0 -34.56525145 0 11240.95632563 0 1614.57747738 0 -3439.97201931 0 6583
0.07850000 0.07848650 27477.08126995 0 1463.89420892 0 10181.50092536 0 1416.64859892 0 -376.17559232 0 6549
0.07950000 0.07947320 26525.08278205 0 1905.39208874 0 9625.88059364 0 1068.03313031 0 -566.87977883 0 6828
0.08050000 0.08048110 25879.67696837 0 193.13124011 0 8678.35532496 0 2888.08306105 0 364.85856912 0 7147
0.08150000 0.08149960 24948.49445112 0 181.59941382 0 8084.66834051 0 1208.74355580 0 -587.45658728 0 7386
0.08250000 0.08250610 25116.90451161 0 568.38118608 0 8191.64914290 0 700.58695888 0 -1425.09678276 0 7227
0.08350000 0.08350160 24149.29404571 0 772.43084570 0 8879.19622484 0 -1356.93555117 0 -903.22046815 0 7798
0.08450000 0.08449610 23558.36407014 0 585.42260121 0 9725.14398564 0 -1651.42617438 0 1710.80705238 0 7371
0.08550000 0.08548940 23288.97440730 0 624.36175313 0 11641.11014458 0 -992.21760058 0 908.66030133 0 8256
0.08650000 0.08650700 23111.48504046 0 656.80145038 0 11369.28457028 0 -63.56621678 0 2362.96698420 0 8037
0.08750000 0.08749060 23016.59521676 0 414.21234977 0 12528.00336255 0 708.41841422 0 2083.98868807 0 8155
0.08850000 0.08849210 22212.19081869 0 527.61842226 0 11034.26923824 0 1044.45461461 0 1950.67789725 0 8718
0.08950000 0.08949900 21975.68596056 0 42.08103481 0 11148.83458314 0 1618.35314014 0 2239.42198387 0 8571
0.09050000 0.09049190 21928.29641034 0 -178.31646951 0 10654.79852206 0 1315.19288661 0 1945.83929130 0 8932
0.09150000 0.09150830 21876.69937668 0 380.13173398 0 9556.09173031 0 1473.53820384 0 1736.08516994 0 9285
0.09250000 0.09250820 21164.85961409 0 326.74541263 0 8094.87702399 0 1165.37325949 0 401.19018855 0 9204
0.09350000 0.09350330 20476.27173362 0 270.70948396 0 6993.53501893 0 303.93310181 0 -419.60457195 0 9349
0.09450000 0.09448040 20376.06719401 0 490.58592467 0 7403.78679811 0 288.54146308 0 -1025.16441031 0 9564
0.09550000 0.09549270 19740.73719592 0 642.76727867 0 6587.34678296 0 -363.88309730 0 -2414.22077578 0 10155
0.09650000 0.09649430 18961.02408219 0 857.17177646 0 5701.66044839 0 -92.09029709 0 -797.41997558 0 9913
0.09750000 0.09749140 18589.54758452 0 276.22903788 0 5929.22994039 0 654.39100527 0 -1523.33044855 0 10476
0.09850000 0.09850240 18238.44416452 0 166.49233383 0 5671.16726584 0 1088.27666178 0 -1190.41885823 0 10575
0.09950000 0.09950330 18143.77578732 0 218.64519819 0 5408.85281856 0 762.75584827 0 -1763.13485947 0 10882
0.10050000 0.10051200 17643.08525902 0 907.49549276 0 6025.60345561 0 10.27192860 0 68.43549307 0 10875
0.10150000 0.10150300 17093.78722477 0 905.63091326 0 6327.20251134 0 -39.75174984 0 1657.73739952 0 11118
0.10250000 0.10250800 16660.19498487 0 377.30386222 0 6374.19345787 0 558.04849256 0 2575.25666794 0 11575
0.10350000 0.10349800 16377.62925550 0 118.76397047 0 6362.53429984 0 835.52205974 0 3062.15107952 0 11364
0.10450000 0.10450100 16663.07378933 0 106.16333266 0 7070.67590594 0 679.03689308 0 1881.25442064 0 12093
0.10550000 0.10551000 16113.88647832 0 448.68271139 0 7039.16406951 0 -799.71969744 0 2432.75584753 0 12067
0.10650000 0.10649700 15601.57000896 0 612.40474956 0 6953.33140751 0 -656.61211363 0 2163.37725702 0 12054
0.10750000 0.10749900 15686.82691007 0 -170.44958272 0 7007.26470170 0 -67.18387747 0 1796.14145976 0 12807
0.10850000 0.10850100 15864.42700016 0 -276.00980585 0 6951.24981045 0 675.41624287 0 1164.29924398 0 12736
0.10950000 0.10950300 15787.25289617 0 239.08470981 0 6654.43399903 0 191.27441124 0 75.42711258 0 12933
0.11050000 0.11050200 15483.09613340 0 501.15999487 0 6129.98226167 0 286.00147176 0 73.66185183 0 13428
0.11150000 0.11150900 15021.26946522 0 416.04149783 0 5747.17877572 0 897.26798633 0 73.97154476 0 13453
0.11250000 0.11250000 15128.78173921 0 2.42718647 0 6084.55251294 0 451.96565570 0 1049.68518085 0 13668
0.11350000 0.11349100 14943.20957525 0 -150.58251030 0 5616.20424544 0 334.57133181 0 4.34114854 0 13791
0.11450000 0.11448600 14985.94874905 0 57.61262773 0 5428.87158183 0 348.80148367 0 353.51386511 0 14205
0.11550000 0.11549300 15004.66097799 0 -11.52152904 0 5258.41314125 0 28.49241346 0 -71.77999950 0 14776
0.11650000 0.11649800 15121.69545132 0 142.23619185 0 5553.76740578 0 212.61299563 0 453.77265911 0 14553
0.11750000 0.11747300 15064.89442500 0 -43.60370092 0 5377.09739098 0 323.86439371 0 1025.67705895 0 14568
0.11850000 0.11849100 14691.31418562 0 233.61498135 0 5154.12291378 0 619.40910224 0 450.98464772 0 16015
0.11950000 0.11950300 14886.07637918 0 365.10658920 0 5212.83945229 0 277.71162217 0 1047.87485574 0 15270
0.12050000 0.12050700 14418.04920910 0 226.09244387 0 4931.05985798 0 112.14493469 0 598.27978479 0 15999
0.12150000 0.12150000 14180.99073473 0 132.04743855 0 4683.53803666 0 217.66086852 0 1183.37685964 0 15670
0.12250000 0.12250700 14145.78074181 0 215.07326621 0 4752.13108891 0 -47.79302574 0 463.97027027 0 16887
0.12350000 0.12352200 14053.65899932 0 290.28867593 0 5072.56416917 0 -187.35591549 0 711.50205668 0 16407
0.12450000 0.12449800 13592.82884036 0 223.14388377 0 4599.99734591 0 -194.64925585 0 114.71703575 0 16306
0.12550000 0.12549900 13558.94752642 0 210.08407664 0 4758.08799967 0 386.35880945 0 718.22960124 0 17523
0.12650000 0.12650100 13270.73491139 0 419.17828745 0 4657.21912057 0 673.94362367 0 341.36309586 0 17154
0.12750000 0.12750600 13117.82610564 0 4.80019605 0 4225.06628290 0 869.04905930 0 810.13654063 0 18007
0.12850000 0.12850300 12935.57563913 0 -170.12294914 0 3918.99400794 0 768.34405061 0 272.27621792 0 17496
0.12950000 0.12949900 12980.97217088 0 235.81948122 0 3498.98751059 0 472.67422481 0 346.42314830 0 18405
0.13050000 0.13049000 12710.58599881 0 435.13904368 0 3532.96847546 0 -259.98593737 0 854.88977032 0 18100
0.13150000 0.13148800 12265.58926435 0 317.70707388 0 3579.23972088 0 -305.89068883 0 888.30826109 0 19059
0.13250000 0.13249300 12409.75093349 0 -80.22862623 0 3471.10739670 0 -195.60369025 0 978.35172821 0 18957
0.13350000 0.13349100 12251.19524209 0 91.03056488 0 3746.57576586 0 -246.39465865 0 317.89973233 0 19468
0.13450000 0.13450700 12277.65809840 0 217.81698830 0 4043.32514332 0 285.48217973 0 593.78774261 0 19953
0.13550000 0.13551000 12077.47046568 0 154.93947012 0 3401.63963078 0 47.27915915 0 611.43149221 0 19956
0.13650000 0.13649900 12086.99266503 0 126.57660286 0 3418.27026266 0 611.52560697 0 490.50066777 0 19723
0.13750000 0.13749600 11944.15967487 0 -23.00574434 0 3629.03196559 0 205.90759572 0 47.25336063 0 20946
0.13850000 0.13851100 11771.43140770 0 314.52045880 0 3287.66111910 0 141.35926373 0 -102.43771680 0 20955
0.13950000 0.13949800 11564.82182658 0 412.31898222 0 3480.14241375 0 -191.89889036 0 -72.26828903 0 20506
0.14050000 0.14048300 11257.34336637 0 148.82201065 0 2910.31628928 0 -103.18432366 0 187.18207999 0 21447
0.14150000 0.14148400 11201.76029578 0 129.96473426 0 3603.43275060 0 -96.66084205 0 533.42253493 0 21771
0.14250000 0.14249400 11238.85258392 0 -109.89669914 0 3125.61764538 0 224.25997411 0 354.72960638 0 22470
0.14350000 0.14350900 11213.71840658 0 56.83734355 0 3236.01979615 0 765.92253317 0 649.57675844 0 22519
0.14450000 0.14449900 11183.60168307 0 113.72495544 0 3100.26202155 0 475.52313399 0 801.86440676 0 22218
0.14550000 0.14550500 11093.14078931 0 72.47822031 0 3360.60559501 0 416.11014624 0 913.14348565 0 23559
0.14650000 0.14650700 10990.66642311 0 161.50757320 0 3016.74347544 0 51.21636713 0 982.81498234 0 23044
0.14750000 0.14750500 10761.60216726 0 372.74538609 0 3117.39090804 0 11.79479401 0 1217.36889684 0 23649
0.14850000 0.14849900 10754.09513103 0 232.99936009 0 3275.93552712 0 -286.86511310 0 1053.58374642 0 23640
0.14950000 0.14949500 10378.17863112 0 351.38687151 0 3449.05132566 0 10.38362621 0 1528.53444121 0 24457
0.15050000 0.15050000 10180.80336890 0 403.50651890 0 3338.61595792 0 97.13019790 0 1332.93075097 0 24591
0.15150000 0.15149900 9816.50173772 0 342.88221882 0 3086.63198969 0 -92.91728903 0 1132.92027544 0 25020
0.15250000 0.15250500 9582.91997334 0 181.69352858 0 3308.25564326 0 293.49411397 0 822.43235734 0 25297
0.15350000 0.15350100 9440.57416547 0 53.07884289 0 3174.42445318 0 68.62660140 0 800.61434129 0 25452
0.15450000 0.15450400 9351.35337208 0 15.06843757 0 2835.76632628 0 218.18126778 0 827.81239997 0 26061
0.15550000 0.15549900 9428.52747607 0 -183.45845715 0 2716.57274961 0 210.34316904 0 776.02270787 0 26128
0.15650000 0.15649500 9549.80264981 0 -149.57825044 0 2559.42324345 0 252.78228284 0 396.18992666 0 26331
0.15750000 0.15749700 9646.57476872 0 15.51155201 0 2600.60121945 0 -48.37598364 0 17.90782455 0 27345
0.15850000 0.15849900 9598.26621554 0 152.61649637 0 2475.07427299 0 -179.50010103 0 -21.64794515 0 26980
0.15950000 0.15949700 9406.65963455 0 232.90413810 0 2706.44157240 0 -351.77772458 0 187.33044914 0 27777
0.16050000 0.16050000 9304.89389715 0 235.79290764 0 2889.54460792 0 -158.00318239 0 29.71014774 0 28224
0.16150000 0.16150500 9120.84971401 0 350.69595845 0 2857.87775894 0 73.26191946 0 204.44272715 0 28075
0.16250000 0.16249700 8890.71144265 0 282.26899107 0 2897.71598364 0 260.06455088 0 302.52027316 0 28590
0.16350000 0.16349900 8711.84910753 0 46.36115269 0 2685.74739731 0 249.27678480 0 218.83121325 0 29163
0.16450000 0.16449100 8729.21051285 0 -35.61468640 0 2699.93104540 0 627.21952016 0 302.75389921 0 28996
0.16550000 0.16550500 8739.83994468 0 0.56697943 0 2720.65843746 0 215.35561049 0 47.46074527 0 30777
0.16650000 0.16650700 8714.49539317 0 85.77652531 0 2518.57743720 0 -142.06346359 0 209.18832557 0 29211
0.16750000 0.16749900 8615.81883438 0 78.31554995 0 2493.89722518 0 -149.74544254 0 227.87951709 0 30922
0.16850000 0.16850800 8697.03433693 0 110.42994230 0 2683.03467773 0 -236.92117754 0 206.48778554 0 30867
0.16950000 0.16949900 8528.50248086 0 157.20708224 0 2688.59298479 0 26.27584475 0 434.42487872 0 30852
0.17050000 0.17049200 8444.88428383 0 138.24794045 0 2658.17730851 0 323.18455297 0 543.44188166 0 31257
0.17150000 0.17149500 8291.37757255 0 63.59832653 0 2410.33438977 0 645.74684128 0 804.66349048 0 32608
0.17250000 0.17250900 8243.86622675 0 14.19970296 0 2381.00380133 0 573.26075963 0 500.45690225 0 32361
0.17350000 0.17350400 8146.10867092 0 109.83546918 0 2003.19393386 0 146.40049322 0 327.68877471 0 32508
0.17450000 0.17449800 8096.18355832 0 97.38674367 0 2031.52801308 0 -208.55941752 0 274.12418893 0 32791
0.17550000 0.17549800 7984.50809020 0 148.76554180 0 2218.03025232 0 -307.52828568 0 558.77815876 0 33633
0.17650000 0.17650100 7923.61030369 0 154.66044753 0 2172.71122684 0 -339.41547392 0 215.86050850 0 33984
0.17750000 0.17750300 7889.37467535 0 89.99253443 0 2361.48329267 0 -268.25032061 0 115.37362461 0 34069
0.17850000 0.17849800 7785.84843830 0 170.68985217 0 2384.23692017 0 82.47531166 0 209.46845538 0 34536
