### header ###
fiducial parameters:
Omega_m = 0.31
Omega_nu = 0
Omega_de = 0.69
Omega_k = 0
H_0 = 100
w_de = -1
zeff = 0
beta = 0
fgrowth = 0
b_1 = 2
gamma = 0.55
Lx = 3500 Ly = 3500 Lz = 3500
nx = 700 ny = 700 nz = 700
xoffset = -685.467585 yoffset = -31.7331281 zoffset = 572.489161
bins = 400 dk = 0.001
kx_ny = 0.628318531 ky_ny = 0.628318531 kz_ny = 0.628318531
############################
A(data) = 8.00433875 (not used)
A(ran) = 7.99746035 (used)
Ngal = 475048
weighted Ngal = 0
Nran = 23820508
weighted Nran = 0
SN(data) = 3493.45467
SN(ran) = 69.66078
SN(data+ran) = 3563.11545
############################
13 columns: k_central k_mean P_0(k) sigma^{lin}_{P_0(k)} P^img_1(k) sigma^{lin}_{P_1(k)} P_2(k) sigma^{lin}_{P_2(k)} P^img_3(k) sigma^{lin}_{P_3(k)} P_4(k) sigma^{lin}_{P_4(k)} N_modes
### header ###
0.00050000 0 0 0 0 0 0 0 0 0 0 0 0
0.00150000 0.00179520 9522.39864588 0 10820.52907995 0 25564.00498779 0 6549.98875902 0 -13338.27609278 0 3
0.00250000 0.00253879 20974.96924345 0 12154.53384642 0 17723.24889071 0 -7359.64143906 0 -16987.16073677 0 6
0.00350000 0.00331552 23311.45122668 0 -1386.45436914 0 24505.49073512 0 688.50040911 0 28057.60326019 0 7
0.00450000 0.00420575 29654.12177579 0 -13050.28492425 0 34010.41725244 0 -217.15375604 0 16495.43879157 0 24
0.00550000 0.00557378 45040.11362054 0 5298.82712684 0 56930.57252003 0 7651.82901870 0 -16224.38828001 0 45
0.00650000 0.00659388 59324.29842258 0 934.77548665 0 56068.14913991 0 10304.84662384 0 -13198.65407682 0 40
0.00750000 0.00754703 72027.35524051 0 -11840.52271456 0 61298.16176800 0 15763.22595131 0 6133.60291189 0 57
0.00850000 0.00846663 70323.32445092 0 -4836.63507193 0 66541.35046262 0 4202.34587237 0 11212.72189735 0 75
0.00950000 0.00948925 75173.55633773 0 6548.12860845 0 67898.81748538 0 36689.80913531 0 14988.16321401 0 112
0.01050000 0.01054430 75670.70372209 0 5075.80836034 0 76064.21414614 0 43210.52266750 0 15289.21972583 0 105
0.01150000 0.01145670 64033.02599820 0 9956.00195811 0 57484.29948421 0 42100.74355093 0 22403.63131480 0 144
0.01250000 0.01249090 65791.64334915 0 3681.37084500 0 44924.85071918 0 28471.48676192 0 7188.90619035 0 169
0.01350000 0.01339930 64277.83509994 0 -10722.07396766 0 38918.66812130 0 25428.70117850 0 22059.72490593 0 180
0.01450000 0.01448870 74203.84213011 0 -8160.22588507 0 27664.31428264 0 7175.36473710 0 14440.63675173 0 267
0.01550000 0.01550050 75475.49863554 0 -725.84293179 0 9391.97773184 0 12588.45825606 0 12401.33596663 0 238
0.01650000 0.01653350 89240.61285008 0 -4672.22212070 0 6076.22612468 0 604.92982307 0 5815.20713940 0 315
0.01750000 0.01747870 80945.22709595 0 -3947.73776316 0 2345.31769844 0 -7973.70150117 0 5258.71209402 0 297
0.01850000 0.01844180 86618.79705627 0 5890.29964632 0 -5529.31971259 0 14114.99967881 0 -5365.88112594 0 388
0.01950000 0.01947590 83471.26728007 0 -2831.63634912 0 -5383.43076077 0 -4344.86883744 0 -7819.24256995 0 399
0.02050000 0.02045430 81998.64807919 0 4540.80469743 0 10558.83468286 0 -6204.85332210 0 -7507.24660121 0 462
0.02150000 0.02154770 75031.71985680 0 7760.26029564 0 17124.90045751 0 -4074.49373769 0 -1212.20919347 0 571
0.02250000 0.02255340 73038.25849646 0 3910.04756948 0 21943.46549534 0 5483.96747013 0 5184.37250519 0 510
0.02350000 0.02348930 67451.49556271 0 513.42480907 0 21263.18185848 0 3487.17334001 0 -216.37204991 0 555
0.02450000 0.02439640 72497.81832206 0 4470.31827763 0 28693.37615128 0 1421.09967350 0 5868.95220407 0 592
0.02550000 0.02547300 69405.76089320 0 -791.05892497 0 24474.15605589 0 924.84804022 0 -2600.28012203 0 837
0.02650000 0.02652900 71236.12690897 0 -1253.08821670 0 19044.95230431 0 1287.20204947 0 -8449.70074513 0 723
0.02750000 0.02749970 68283.35932634 0 3005.48292110 0 15971.16421141 0 -2559.63361763 0 -10854.68720201 0 826
0.02850000 0.02848090 67427.80078760 0 1857.63715180 0 11902.85990329 0 3470.77522695 0 -11697.68972440 0 831
0.02950000 0.02946900 64321.34933648 0 2266.29451621 0 11000.86403427 0 5672.46272784 0 -20240.20976849 0 996
0.03050000 0.03053250 59834.84331996 0 5691.17495678 0 2272.17392068 0 4278.99957709 0 -11909.50329818 0 1041
0.03150000 0.03150510 55324.19963534 0 4714.90593287 0 3752.27801314 0 883.60252304 0 -10823.10893163 0 1036
0.03250000 0.03246190 53667.55839598 0 2205.73997177 0 6530.34645479 0 -4036.70389308 0 1453.35335570 0 1059
0.03350000 0.03345080 51612.75635613 0 2877.66400339 0 13577.43830887 0 -1658.94428293 0 -419.40084118 0 1302
0.03450000 0.03451200 48483.16374614 0 1308.80415519 0 14100.71637979 0 -423.31380077 0 7595.37123445 0 1339
0.03550000 0.03553350 48745.13495135 0 -727.38641387 0 19057.35330811 0 6290.06593390 0 9461.45657008 0 1365
0.03650000 0.03647120 50914.20338333 0 -265.46230922 0 17884.12977033 0 5855.69863126 0 8381.56165819 0 1308
0.03750000 0.03744890 49183.15612118 0 -583.44397676 0 18399.32504414 0 3891.85573981 0 4080.45064844 0 1579
0.03850000 0.03847530 50838.91157456 0 1037.84665116 0 12430.67762740 0 2216.09259548 0 8118.05139983 0 1662
0.03950000 0.03950240 48274.33970006 0 875.25841905 0 12420.38036532 0 -1004.59092356 0 4072.30141737 0 1683
0.04050000 0.04050350 48737.27360073 0 1902.41363337 0 11030.16140574 0 -1307.70799503 0 51.80630059 0 1822
0.04150000 0.04152450 47121.82140969 0 634.23937410 0 8396.13283765 0 -2962.13476943 0 -820.86340892 0 1887
0.04250000 0.04250150 46310.44144698 0 91.79942712 0 9832.12478803 0 3181.90934476 0 -1658.75605341 0 1920
0.04350000 0.04349210 45413.14024368 0 331.33046234 0 9423.33455573 0 -904.93114234 0 -99.84457833 0 2005
0.04450000 0.04448520 46445.52380977 0 2187.29347862 0 12311.53941235 0 2540.26812152 0 -4103.84647078 0 2151
0.04550000 0.04548030 42893.74345444 0 3318.17644630 0 11722.27028550 0 -2611.16421733 0 627.35128083 0 2274
0.04650000 0.04648670 41421.89931630 0 3680.99438596 0 13825.90127780 0 -1291.77491962 0 913.88090249 0 2311
0.04750000 0.04749250 37634.83205858 0 2210.98825374 0 15337.93795503 0 -424.74655960 0 3841.12234749 0 2568
0.04850000 0.04851840 37650.11186683 0 -239.76122886 0 17583.29470500 0 -826.32427952 0 -501.05591502 0 2493
0.04950000 0.04949480 38591.81309265 0 -1034.47069932 0 18609.69921569 0 696.33850784 0 1427.18945215 0 2644
0.05050000 0.05050630 37958.69755952 0 242.12959913 0 15167.09198308 0 465.55693442 0 267.59151729 0 2829
0.05150000 0.05149060 38788.90047443 0 229.27573725 0 15563.48121159 0 4658.82460767 0 2166.03461497 0 2784
0.05250000 0.05249300 38915.90004010 0 -607.09556981 0 13289.77931008 0 2157.04388722 0 -1360.50083977 0 3055
0.05350000 0.05348950 37332.55759103 0 588.50845813 0 14712.90521902 0 5060.01922515 0 -150.38653015 0 3009
0.05450000 0.05448610 37445.93819717 0 2011.29887563 0 13197.87901408 0 983.35199010 0 2492.36924435 0 3336
0.05550000 0.05550870 34590.71779619 0 1544.09105758 0 12870.02747620 0 282.62441269 0 4095.01075558 0 3349
0.05650000 0.05647670 34823.67951037 0 1171.68448463 0 15398.39284854 0 -367.71190723 0 6971.47894789 0 3324
0.05750000 0.05747970 33480.38506337 0 538.08176921 0 16544.59991377 0 -194.61382441 0 8953.38080113 0 3639
0.05850000 0.05849280 33752.32136092 0 1435.81479318 0 17194.98827361 0 -40.42860106 0 8127.47394826 0 3846
0.05950000 0.05951020 33050.55741391 0 43.93376692 0 16433.10160284 0 -649.37856382 0 6108.57945780 0 3787
0.06050000 0.06049470 33507.62298243 0 995.50165212 0 17107.18473780 0 323.00296684 0 8424.20118107 0 3930
0.06150000 0.06148310 32384.77852257 0 1355.83939102 0 15765.77258602 0 2074.83187544 0 7956.27366191 0 4083
0.06250000 0.06249100 31228.27419526 0 -336.44476917 0 14290.71747368 0 3850.91028263 0 7515.25189206 0 4303
0.06350000 0.06350600 31732.17569776 0 -722.33964822 0 13479.33751097 0 5251.68116776 0 4521.88209431 0 4470
0.06450000 0.06451750 32432.94313553 0 -1182.56857993 0 11705.99396802 0 2015.89389043 0 2492.33602738 0 4479
0.06550000 0.06550280 32718.27694611 0 -76.25875489 0 10653.49198773 0 -979.10243183 0 141.67482498 0 4636
0.06650000 0.06648880 32181.37991565 0 1289.81511812 0 11611.21486757 0 -2699.47708009 0 2189.96190891 0 4653
0.06750000 0.06749660 31902.57877672 0 404.75547714 0 11592.39191538 0 -2393.20550328 0 1526.88466482 0 5220
0.06850000 0.06852730 31557.67585862 0 459.33428787 0 13325.21074950 0 -163.99663182 0 208.21838991 0 5029
0.06950000 0.06949320 31717.78167549 0 449.52199361 0 11375.04217919 0 591.44262421 0 -3245.75236966 0 5040
0.07050000 0.07048030 31314.52760560 0 867.42253478 0 13317.46012212 0 908.81974281 0 -1202.32160741 0 5475
0.07150000 0.07148790 29533.32271202 0 1295.73881190 0 11122.03955708 0 675.57236265 0 -1436.68950684 0 5509
0.07250000 0.07249820 29470.76407680 0 597.08065201 0 11110.63506252 0 2143.80138674 0 -1698.63856740 0 5916
0.07350000 0.07351270 28469.16157370 0 710.62291409 0 9529.69530794 0 1612.79483308 0 -2428.20512203 0 5721
0.07450000 0.07449140 27468.00196360 0 147.99601522 0 8416.67200019 0 1759.11560556 0 -3535.93585851 0 6028
0.07550000 0.07549160 27126.31001970 0 58.08751974 0 7810.20755290 0 589.61126169 0 -3118.37634495 0 6183
0.07650000 0.07648840 26743.42902747 0 55.17428036 0 6526.48221343 0 -56.18175119 0 -3675.56894680 0 6330
0.07750000 0.07749960 26528.73664924 0 1139.95120170 0 7744.32722023 0 -186.38597983 0 -3497.13843235 0 6583
0.07850000 0.07848650 25810.91783124 0 567.93829309 0 7651.89545264 0 491.86367095 0 -767.50033945 0 6549
0.07950000 0.07947320 25800.28839942 0 282.25681151 0 8482.34195869 0 344.31608489 0 -364.80099303 0 6828
0.08050000 0.08048110 25652.14069334 0 271.06933451 0 9947.79736541 0 -325.16096295 0 969.97772895 0 7147
0.08150000 0.08149960 26043.54737568 0 308.33102922 0 10908.10009694 0 -704.65271655 0 533.68162733 0 7386
0.08250000 0.08250610 24827.58466410 0 1180.07730685 0 11244.16729983 0 -1056.89990770 0 2928.13165992 0 7227
0.08350000 0.08350160 24404.95402577 0 1296.14848792 0 11994.42802954 0 -651.53545270 0 1728.10202375 0 7798
0.08450000 0.08449610 24063.26208187 0 659.36801528 0 11838.52969610 0 253.20967458 0 825.26244357 0 7371
0.08550000 0.08548940 23214.01476828 0 198.38173654 0 12002.40010341 0 204.82029343 0 43.79381274 0 8256
0.08650000 0.08650700 22496.41739678 0 530.90358103 0 10509.25281232 0 1550.04796834 0 -344.54417478 0 8037
0.08750000 0.08749060 22235.44270081 0 693.61471594 0 10371.56845320 0 1600.67063741 0 1.64050886 0 8155
0.08850000 0.08849210 21489.05728478 0 139.36513803 0 8869.84011037 0 2331.13405034 0 -359.11867594 0 8718
0.08950000 0.08949900 21256.75991009 0 421.27095684 0 8226.64876166 0 1862.73042122 0 503.81624560 0 8571
0.09050000 0.09049190 20743.55765474 0 720.37209610 0 8645.82483464 0 771.79418702 0 768.57214050 0 8932
0.09150000 0.09150830 20003.48346386 0 869.53734882 0 8613.29434432 0 -126.11045799 0 2381.08130760 0 9285
0.09250000 0.09250820 19489.50614578 0 386.85706407 0 7869.47770766 0 834.67391966 0 2812.54766113 0 9204
0.09350000 0.09350330 19490.83482476 0 -565.87330451 0 7870.02025157 0 785.08540573 0 3129.69226091 0 9349
0.09450000 0.09448040 19779.15816304 0 -330.17561886 0 7745.91056268 0 637.69283221 0 1924.96795902 0 9564
0.09550000 0.09549270 19875.48738896 0 329.30201243 0 7423.20765584 0 140.87540313 0 1137.39349467 0 10155
0.09650000 0.09649430 19747.26986756 0 254.30583474 0 6545.21658702 0 370.55528024 0 1605.53138800 0 9913
0.09750000 0.09749140 18670.04338595 0 643.76600237 0 6280.44408363 0 -862.45770433 0 950.44725520 0 10476
0.09850000 0.09850240 18716.87931994 0 786.30889762 0 6275.50582676 0 336.76586659 0 -316.99623063 0 10575
0.09950000 0.09950330 17899.40957858 0 330.39927982 0 6349.56860748 0 -200.22860032 0 -233.47325559 0 10882
0.10050000 0.10051200 17738.52869896 0 294.08648335 0 5928.06734628 0 793.56902101 0 -190.89684497 0 10875
0.10150000 0.10150300 17307.48309377 0 341.27783896 0 5884.24308465 0 988.76414247 0 -264.13805918 0 11118
0.10250000 0.10250800 16952.17219034 0 481.25306208 0 5643.45323682 0 1001.44859778 0 670.46580644 0 11575
0.10350000 0.10349800 16949.73627888 0 81.66736412 0 5075.33225037 0 1134.30431605 0 1161.48687348 0 11364
0.10450000 0.10450100 16553.23632712 0 187.41127711 0 5034.84075851 0 675.41624287 0 2027.40910824 0 12093
0.10550000 0.10551000 16766.71074963 0 -99.84911798 0 4528.22653643 0 390.08132506 0 2341.56418032 0 12067
0.10650000 0.10649700 16698.06233575 0 98.48091080 0 5070.13933003 0 -264.04394442 0 1861.46817619 0 12054
0.10750000 0.10749900 16523.89466636 0 348.54239127 0 5358.20800484 0 -677.37715159 0 1315.71328587 0 12807
0.10850000 0.10850100 16155.62914289 0 577.26340505 0 6217.98509933 0 -980.56287147 0 1292.36175283 0 12736
0.10950000 0.10950300 15718.49375905 0 951.41940532 0 5943.22535896 0 -1193.77377265 0 925.97298842 0 12933
0.11050000 0.11050200 15186.35782826 0 381.33086675 0 6544.55224753 0 -460.01080692 0 1076.28201230 0 13428
0.11150000 0.11150900 15131.77126691 0 -94.51978660 0 6247.71429147 0 990.55453739 0 1075.02751790 0 13453
0.11250000 0.11250000 15354.87861200 0 -414.30425006 0 5814.37671504 0 1751.26532727 0 742.40823695 0 13668
0.11350000 0.11349100 15542.00090144 0 -406.46947302 0 5120.29696146 0 1086.71435674 0 -439.30555950 0 13791
0.11450000 0.11448600 15541.11511545 0 179.12917815 0 4473.56246880 0 888.79876507 0 -334.08414952 0 14205
0.11550000 0.11549300 15176.94635217 0 472.76944680 0 4416.61750226 0 -438.87927500 0 58.96721595 0 14776
0.11650000 0.11649800 14734.27480592 0 748.82686365 0 4582.29269852 0 -543.18721819 0 1035.17600641 0 14553
0.11750000 0.11747300 14328.47410131 0 545.63088027 0 5057.20685464 0 -322.32976949 0 732.99454639 0 14568
0.11850000 0.11849100 14170.02913316 0 113.67180829 0 4629.27257273 0 136.46197446 0 524.56356784 0 16015
0.11950000 0.11950300 14025.64601752 0 -251.48349914 0 4671.65743213 0 481.33942621 0 1031.95063819 0 15270
0.12050000 0.12050700 14264.03317087 0 12.75686832 0 4448.45043611 0 663.54006727 0 605.03168846 0 15999
0.12150000 0.12150000 14133.60118451 0 -21.83008489 0 4604.49270978 0 629.79051399 0 946.85428580 0 15670
0.12250000 0.12250700 14073.14629100 0 107.05587276 0 4104.21185750 0 738.91159677 0 510.43085244 0 16887
0.12350000 0.12352200 13968.18065172 0 302.97091678 0 3743.30943004 0 226.31056867 0 1199.22135646 0 16407
0.12450000 0.12449800 13839.96313032 0 -35.81531692 0 3584.07832682 0 -66.46893746 0 584.85237648 0 16306
0.12550000 0.12549900 13720.16057578 0 -101.55104503 0 3718.36348222 0 196.89472332 0 941.18414826 0 17523
0.12650000 0.12650100 13614.75204350 0 403.87744178 0 3399.02656213 0 -11.64564980 0 304.15344107 0 17154
0.12750000 0.12750600 13585.96399898 0 277.48906844 0 3300.69324541 0 -136.29588959 0 481.91629434 0 18007
0.12850000 0.12850300 13029.35823034 0 213.79219823 0 3089.64366204 0 -26.27053003 0 186.21435880 0 17496
0.12950000 0.12949900 13151.59669634 0 140.67388682 0 3250.32523981 0 1.71632107 0 -77.21916835 0 18405
0.13050000 0.13049000 12870.35964595 0 129.76100348 0 3529.14852340 0 1.49104355 0 302.49037788 0 18100
0.13150000 0.13148800 13006.43851797 0 254.53946079 0 3711.49864083 0 192.06608247 0 -159.58431038 0 19059
0.13250000 0.13249300 12734.94511341 0 207.25952658 0 3291.08246747 0 -37.91186163 0 560.45783044 0 18957
0.13350000 0.13349100 12504.08714095 0 314.13846359 0 3643.04952881 0 201.58828181 0 635.90133005 0 19468
0.13450000 0.13450700 12234.47603161 0 437.22285521 0 3801.84881135 0 -105.56587001 0 428.34838686 0 19953
0.13550000 0.13551000 12002.40010341 0 288.60678979 0 3986.39124911 0 118.52259379 0 744.70131542 0 19956
0.13650000 0.13649900 11703.11516356 0 197.75725742 0 4043.97841049 0 70.30029402 0 1081.28227419 0 19723
0.13750000 0.13749600 11700.01491262 0 35.99767811 0 3860.23318012 0 283.97855802 0 1288.33142660 0 20946
0.13850000 0.13851100 11602.13556122 0 -26.01033040 0 3929.59022279 0 362.47580482 0 940.35704559 0 20955
0.13950000 0.13949800 11787.37555543 0 161.77884516 0 4052.76983639 0 184.78935060 0 1138.92147550 0 20506
0.14050000 0.14048300 11561.05723614 0 156.07327618 0 3630.85889918 0 -10.79104348 0 1327.70461365 0 21447
0.14150000 0.14148400 11413.57386956 0 217.25340696 0 3977.78805272 0 175.27933081 0 1737.74601866 0 21771
0.14250000 0.14249400 11374.37783970 0 81.59794064 0 3962.15393008 0 -13.27538529 0 1409.40729849 0 22470
0.14350000 0.14350900 11210.72887888 0 300.29695034 0 4316.64548147 0 11.34138231 0 1412.19752434 0 22519
0.14450000 0.14449900 11097.12682624 0 255.46067822 0 4272.81014752 0 46.13361642 0 1955.29505670 0 22218
0.14550000 0.14550500 10833.22903651 0 95.17814703 0 3957.24889018 0 311.14450696 0 1833.68771322 0 23559
0.14650000 0.14650700 10953.20874825 0 -151.91118928 0 3705.44207916 0 79.81551779 0 1361.97345897 0 23044
0.14750000 0.14750500 10941.71567509 0 -75.24342271 0 3712.26263125 0 435.25751755 0 734.60778412 0 23649
0.14850000 0.14849900 10790.41235644 0 237.51576138 0 3404.75095406 0 179.55103372 0 746.14403934 0 23640
0.14950000 0.14949500 10637.32639350 0 458.08643686 0 3223.16482703 0 -125.11062706 0 466.67745369 0 24457
0.15050000 0.15050000 10297.08492414 0 168.80091356 0 3078.93672395 0 113.21452127 0 869.34801207 0 24591
0.15150000 0.15149900 10106.59664796 0 39.15185128 0 2936.98951977 0 376.38707372 0 350.81443232 0 25020
0.15250000 0.15250500 10154.65053768 0 -26.14906663 0 2868.45182914 0 291.60849705 0 340.34001304 0 25297
0.15350000 0.15350100 10118.52154179 0 160.47895422 0 2916.45035723 0 -234.80082734 0 148.46105287 0 25452
0.15450000 0.15450400 9964.76016704 0 175.44763015 0 2901.33663385 0 -19.97934580 0 228.68558234 0 26061
0.15550000 0.15549900 9783.90481345 0 214.36131572 0 3008.37279788 0 43.21794113 0 790.62931877 0 26128
0.15650000 0.15649500 9679.91353875 0 88.25716896 0 2841.14747614 0 253.81200905 0 801.02512454 0 26331
0.15750000 0.15749700 9649.30963295 0 24.34339190 0 2764.48269910 0 673.59705990 0 1033.99680382 0 27345
0.15850000 0.15849900 9643.62953032 0 159.64631540 0 2577.93617055 0 573.56081963 0 951.89551529 0 26980
0.15950000 0.15949700 9438.24897726 0 172.15472075 0 2418.72721198 0 359.65457646 0 1379.23521336 0 27777
0.16050000 0.16050000 9284.63154273 0 97.95386814 0 2286.87796804 0 101.66741516 0 1366.54632912 0 28224
0.16150000 0.16150500 9261.46823921 0 130.83391175 0 2495.48056763 0 47.06302736 0 1524.81414008 0 28075
0.16250000 0.16249700 9041.31720484 0 203.83374928 0 2669.53751378 0 -207.88179124 0 1658.43495599 0 28590
0.16350000 0.16349900 8889.19453415 0 273.80530598 0 2665.24145175 0 -70.73599000 0 1761.83939747 0 29163
0.16450000 0.16449100 8838.10682744 0 98.31604389 0 2616.54536719 0 0.95715930 0 1455.82248413 0 28996
0.16550000 0.16550500 8692.17358633 0 114.30071634 0 2739.79141475 0 -81.66470676 0 1466.38548201 0 30777
0.16650000 0.16650700 8734.32592692 0 18.11886306 0 2671.01013298 0 51.30394922 0 1283.37102508 0 29211
0.16750000 0.16749900 8584.41772120 0 36.75048548 0 2707.51558790 0 46.39758064 0 964.56889827 0 30922
0.16850000 0.16850800 8547.83475999 0 67.38650102 0 2513.04127479 0 21.25022724 0 770.81096457 0 30867
0.16950000 0.16949900 8589.36705039 0 90.88363513 0 2452.45351338 0 41.52608989 0 636.51695131 0 30852
0.17050000 0.17049200 8409.86252043 0 74.85445194 0 2360.44249414 0 228.70108359 0 776.63832913 0 31257
0.17150000 0.17149500 8378.98180651 0 124.66441237 0 2100.97363434 0 286.24617014 0 588.81405430 0 32608
0.17250000 0.17250900 8334.83644746 0 25.26438788 0 1858.74438428 0 203.78170936 0 614.83733932 0 32361
0.17350000 0.17350400 8310.30017566 0 62.31294034 0 1764.15351335 0 265.72140163 0 645.84649221 0 32508
0.17450000 0.17449800 8234.89764365 0 28.95490446 0 1652.21230944 0 181.21077521 0 425.86264994 0 32791
0.17550000 0.17549800 8034.38891350 0 192.26427708 0 1673.19436497 0 -111.06206133 0 264.51341099 0 33633
0.17650000 0.17650100 8021.32357022 0 221.53950390 0 1722.87588643 0 -280.18628677 0 105.19804738 0 33984
0.17750000 0.17750300 7797.47437936 0 117.67777541 0 1628.22965388 0 -166.21220402 0 159.50348241 0 34069
0.17850000 0.17849800 7839.93674504 0 -15.18170745 0 1880.36863465 0 -32.24892110 0 141.39469517 0 34536
