### header ###
fiducial parameters:
Omega_m = 0.31
Omega_nu = 0
Omega_de = 0.69
Omega_k = 0
H_0 = 100
w_de = -1
zeff = 0
beta = 0
fgrowth = 0
b_1 = 2
gamma = 0.55
Lx = 3500 Ly = 3500 Lz = 3500
nx = 700 ny = 700 nz = 700
xoffset = -685.467585 yoffset = -31.7331281 zoffset = 572.489161
bins = 400 dk = 0.001
kx_ny = 0.628318531 ky_ny = 0.628318531 kz_ny = 0.628318531
############################
A(data) = 8.02293943 (not used)
A(ran) = 8.02168951 (used)
Ngal = 477013
weighted Ngal = 0
Nran = 23820508
weighted Nran = 0
SN(data) = 3485.15118
SN(ran) = 69.8718249
SN(data+ran) = 3555.02301
############################
13 columns: k_central k_mean P_0(k) sigma^{lin}_{P_0(k)} P^img_1(k) sigma^{lin}_{P_1(k)} P_2(k) sigma^{lin}_{P_2(k)} P^img_3(k) sigma^{lin}_{P_3(k)} P_4(k) sigma^{lin}_{P_4(k)} N_modes
### header ###
0.00050000 0 0 0 0 0 0 0 0 0 0 0 0
0.00150000 0.00179520 1584.87042989 0 -1753.95590220 0 14328.25265482 0 -21292.52351925 0 -5646.15488407 0 3
0.00250000 0.00253879 9629.66732873 0 -8727.25071136 0 -3246.62708332 0 -5024.13382041 0 -16256.27657549 0 6
0.00350000 0.00331552 16455.68914547 0 -10297.08492414 0 4587.55205281 0 -11018.45795840 0 12079.68493065 0 7
0.00450000 0.00420575 28022.39326727 0 -12691.20943038 0 7558.23465700 0 -18754.19305457 0 -2318.56696167 0 24
0.00550000 0.00557378 48383.06992978 0 -7981.87287689 0 34481.21250373 0 -18653.65634522 0 4652.52445485 0 45
0.00650000 0.00659388 58147.42101760 0 -9765.15936753 0 10348.50480060 0 -14805.69130100 0 2084.46479803 0 40
0.00750000 0.00754703 67494.56690626 0 -12620.12510504 0 31623.22402154 0 23158.65314418 0 10804.15311154 0 57
0.00850000 0.00846663 76218.56235412 0 -4384.64062818 0 42603.20565120 0 -7626.82770926 0 -8877.34714660 0 75
0.00950000 0.00948925 81623.62843759 0 -457.13753863 0 27444.75008148 0 32037.55041626 0 -7865.12628400 0 112
0.01050000 0.01054430 75959.46995336 0 1935.44237830 0 26826.91435660 0 2590.47004225 0 5667.94521931 0 105
0.01150000 0.01145670 78710.61050105 0 2652.94009887 0 8203.25293931 0 12468.98787127 0 7371.20094617 0 144
0.01250000 0.01249090 88540.50975179 0 -8759.65940610 0 19371.25371672 0 4088.35628836 0 1276.66119624 0 169
0.01350000 0.01339930 93784.69495565 0 -5634.48465371 0 8516.45579146 0 -3303.56097754 0 18623.20745197 0 180
0.01450000 0.01448870 89988.32694508 0 1161.47580115 0 10284.94965614 0 -9166.17981182 0 -16255.94440574 0 267
0.01550000 0.01550050 91273.60241003 0 6439.38730640 0 12371.88358261 0 -7201.75008714 0 -2705.50042479 0 238
0.01650000 0.01653350 80720.23745563 0 12672.16503169 0 17638.54560585 0 -6236.21014598 0 -13463.94697947 0 315
0.01750000 0.01747870 76101.86005053 0 13974.49187686 0 20607.81095246 0 2551.72797771 0 -7286.90733732 0 297
0.01850000 0.01844180 65114.23851674 0 3427.00632694 0 7955.34358662 0 11866.43195464 0 -8650.51950036 0 388
0.01950000 0.01947590 66222.13533810 0 -8276.27492149 0 12973.11082026 0 10548.96924144 0 -12159.29494609 0 399
0.02050000 0.02045430 77528.63982666 0 -6386.60553399 0 18698.83143048 0 -2730.93355490 0 -17295.63570621 0 462
0.02150000 0.02154770 77621.75807838 0 4938.44509864 0 22710.22398903 0 -7895.13228426 0 -6109.01127847 0 571
0.02250000 0.02255340 67910.88631944 0 10756.71927202 0 24870.21311465 0 -13905.06840025 0 1785.14664121 0 510
0.02350000 0.02348930 67556.01830900 0 7936.54277908 0 32102.65568619 0 5718.77826256 0 8646.47810180 0 555
0.02450000 0.02439640 60690.95547494 0 294.87261841 0 32790.35778068 0 4315.17286227 0 2433.24302982 0 592
0.02550000 0.02547300 64736.78296368 0 204.17366966 0 37041.02327855 0 17092.90143879 0 1196.09896086 0 837
0.02650000 0.02652900 60703.35647874 0 -1260.06378134 0 29651.35369459 0 8364.91995399 0 8353.90299080 0 723
0.02750000 0.02749970 64364.42068002 0 -838.82271977 0 25342.11559842 0 7770.96723374 0 11949.36366753 0 826
0.02850000 0.02848090 66763.23985198 0 -3041.51226606 0 26156.70653533 0 3834.47895260 0 11571.13305173 0 831
0.02950000 0.02946900 67483.71602793 0 70.17982712 0 22333.10060571 0 2221.46267301 0 6332.11862356 0 996
0.03050000 0.03053250 66143.30038539 0 3746.28788541 0 24704.12824237 0 1719.54311666 0 11662.14756174 0 1041
0.03150000 0.03150510 63677.16147853 0 2036.37769135 0 29528.11871936 0 1199.85247897 0 16677.13564185 0 1036
0.03250000 0.03246190 62745.20389855 0 1915.73364012 0 22864.01858076 0 8501.54136993 0 4949.74994228 0 1059
0.03350000 0.03345080 62018.41649745 0 488.18987358 0 22466.85428952 0 3671.12894455 0 8282.73008686 0 1302
0.03450000 0.03451200 59246.12780936 0 824.92916659 0 12779.23441269 0 5157.72141935 0 -3076.56724643 0 1339
0.03550000 0.03553350 58105.56762979 0 1581.30514130 0 16007.92432981 0 -4919.68858040 0 -3872.41273742 0 1365
0.03650000 0.03647120 55899.07473993 0 2204.57737767 0 12697.85282527 0 -4963.34675716 0 -9562.08185803 0 1308
0.03750000 0.03744890 54205.45193567 0 3087.17453361 0 13566.69815379 0 -8079.94045781 0 -12297.03466684 0 1579
0.03850000 0.03847530 49909.50062928 0 2664.16743624 0 11107.97770456 0 -1477.20314335 0 -11344.92545568 0 1662
0.03950000 0.03950240 50002.50815776 0 2089.58021210 0 10095.50217850 0 -1311.91547846 0 -10962.49842877 0 1683
0.04050000 0.04050350 49066.89671058 0 -506.64301012 0 13170.41964853 0 4066.72096567 0 -9377.32904611 0 1822
0.04150000 0.04152450 48565.98473579 0 2081.47527033 0 14782.21797238 0 1520.34092085 0 -7181.10020136 0 1887
0.04250000 0.04250150 48729.63369661 0 739.98118335 0 15630.91166973 0 4003.61978652 0 -4115.49455649 0 1920
0.04350000 0.04349210 45487.54626646 0 2514.87928071 0 16820.52224825 0 585.96293066 0 -377.29611159 0 2005
0.04450000 0.04448520 45304.41001396 0 3372.19831909 0 16349.50555046 0 -2418.67185036 0 3546.78673683 0 2151
0.04550000 0.04548030 43322.68531792 0 1408.23363206 0 20543.81291501 0 2590.97936919 0 2861.77521728 0 2274
0.04650000 0.04648670 41972.41530628 0 137.66442894 0 18011.24005924 0 1504.46320706 0 4412.50966975 0 2311
0.04750000 0.04749250 41169.00741744 0 1729.12067763 0 17946.57768230 0 1860.78169205 0 -1337.27110230 0 2568
0.04850000 0.04851840 40648.27598122 0 1177.54174446 0 17410.01282159 0 -8.80721504 0 -792.74302558 0 2493
0.04950000 0.04949480 38503.56666385 0 1441.94886113 0 16520.01935267 0 875.33592533 0 -405.11200600 0 2644
0.05050000 0.05050630 36968.83172074 0 1531.43539032 0 16616.12713209 0 2894.83717919 0 1972.08070112 0 2829
0.05150000 0.05149060 36382.88429133 0 -285.88078342 0 14998.79264583 0 4361.18944422 0 -44.87867912 0 2784
0.05250000 0.05249300 36424.29478616 0 858.79719375 0 14417.38486961 0 4373.91154543 0 -575.62027204 0 3055
0.05350000 0.05348950 35286.83485754 0 254.29476241 0 12718.89024243 0 1903.88625257 0 769.02832028 0 3009
0.05450000 0.05448610 35215.97197870 0 1545.33115796 0 13379.79731085 0 -62.42687456 0 -1133.38531309 0 3336
0.05550000 0.05550870 33702.49589924 0 779.21043018 0 13459.18587980 0 -1646.83115958 0 1339.39698866 0 3349
0.05650000 0.05647670 33986.72247733 0 -289.41285504 0 12489.80384193 0 617.37400894 0 1627.11134907 0 3324
0.05750000 0.05747970 34044.52001288 0 -1207.52560007 0 11966.19360126 0 2005.44161580 0 1217.42425846 0 3639
0.05850000 0.05849280 34122.91207260 0 37.85240324 0 9373.78590217 0 4437.16773712 0 -2521.94342394 0 3846
0.05950000 0.05951020 34788.02662446 0 44.23493416 0 7674.70444177 0 1203.99352845 0 -3945.83332330 0 3787
0.06050000 0.06049470 33002.06063121 0 1069.40609859 0 5608.75257083 0 2099.24635167 0 -2080.14659135 0 3930
0.06150000 0.06148310 32363.74110541 0 1384.84888204 0 5652.00107158 0 1043.39388589 0 -549.88597470 0 4083
0.06250000 0.06249100 31895.04959584 0 60.58920081 0 4996.36442976 0 252.77674668 0 -190.74626135 0 4303
0.06350000 0.06350600 31519.47633799 0 564.37411173 0 5306.35630771 0 1097.81657684 0 -978.24543389 0 4470
0.06450000 0.06451750 30520.86336260 0 918.14153308 0 4482.60855818 0 -437.66796266 0 -781.05286503 0 4479
0.06550000 0.06550280 31346.52662433 0 538.38515091 0 6875.41545776 0 -1054.91131817 0 133.40490558 0 4636
0.06650000 0.06648880 31249.64378216 0 -1210.11652408 0 7329.39184765 0 -1181.60528767 0 510.36109680 0 4653
0.06750000 0.06749660 31068.27910163 0 650.34407055 0 9010.28147837 0 -1591.08200411 0 -1506.79946760 0 5220
0.06850000 0.06852730 30783.49890730 0 1269.75206555 0 8998.31229524 0 -1527.89224637 0 -510.05992956 0 5029
0.06950000 0.06949320 29835.70790282 0 1119.37882219 0 9481.56391195 0 -1604.94455479 0 -292.49096134 0 5040
0.07050000 0.07048030 29186.75894520 0 1226.76930061 0 10560.79448435 0 -1564.02124226 0 -1793.08549811 0 5475
0.07150000 0.07148790 28358.65977201 0 467.68171355 0 11796.45486179 0 110.04130370 0 -3767.60211069 0 5509
0.07250000 0.07249820 27899.93335478 0 525.74830660 0 11776.30323062 0 1004.71936253 0 -2324.77853590 0 5916
0.07350000 0.07351270 28099.89954100 0 -18.43220985 0 9767.19667530 0 1269.25381094 0 -3762.25417780 0 5721
0.07450000 0.07449140 28082.51599104 0 -321.40301591 0 10092.76731427 0 1358.34173643 0 -4487.77933387 0 6028
0.07550000 0.07549160 28190.80332776 0 616.49375911 0 8530.40692073 0 1047.23930430 0 -4284.63539042 0 6183
0.07650000 0.07648840 26855.70240113 0 848.67376716 0 7683.59551860 0 831.49948414 0 -2621.79364916 0 6330
0.07750000 0.07749960 26630.49131432 0 693.69332945 0 7213.22101565 0 987.07782740 0 -3930.22134530 0 6583
0.07850000 0.07848650 25650.81201437 0 544.78827635 0 7618.86670771 0 684.72031741 0 -2534.97555025 0 6549
0.07950000 0.07947320 24651.31325299 0 1149.04158038 0 6686.02334174 0 1122.81124288 0 -2715.65374665 0 6828
0.08050000 0.08048110 23932.60864901 0 320.29910512 0 5879.91380564 0 926.61961219 0 -1014.21055937 0 7147
0.08150000 0.08149960 23569.87928795 0 28.52895213 0 5587.38298393 0 1870.21531279 0 -1966.02413945 0 7386
0.08250000 0.08250610 23933.16226525 0 -99.03652006 0 4797.57190997 0 1377.50793069 0 -1788.36868773 0 7227
0.08350000 0.08350160 23474.65729451 0 454.99947270 0 4744.86764383 0 784.24169458 0 -2356.97685647 0 7798
0.08450000 0.08449610 22943.51787296 0 -45.14386130 0 4050.90968583 0 -683.50900508 0 -2052.47685163 0 7371
0.08550000 0.08548940 23148.24515885 0 111.67103919 0 4261.59388247 0 145.64425343 0 -1711.64854906 0 8256
0.08650000 0.08650700 22918.82658861 0 359.59146421 0 5224.11107896 0 -1309.54600095 0 -2668.65172779 0 8037
0.08750000 0.08749060 22948.50041913 0 820.32529393 0 4807.09410931 0 -357.42239577 0 -2249.32064226 0 8155
0.08850000 0.08849210 21466.46974215 0 955.34233000 0 5094.19949186 0 -832.46499086 0 -2718.51040645 0 8718
0.08950000 0.08949900 21434.80289317 0 703.58755890 0 6085.63760077 0 101.28918455 0 -1329.26581145 0 8571
0.09050000 0.09049190 20735.03196463 0 146.47799949 0 5820.04574535 0 -192.76031723 0 -1827.59793457 0 8932
0.09150000 0.09150830 20261.57935539 0 410.71017343 0 6272.04018910 0 231.74597292 0 -2153.85505767 0 9285
0.09250000 0.09250820 20212.63967969 0 590.23574081 0 6020.21123342 0 -119.79148221 0 -1899.84485401 0 9204
0.09350000 0.09350330 19717.59603705 0 616.25791859 0 5770.39744086 0 70.71318101 0 -2420.70915813 0 9349
0.09450000 0.09448040 19294.41178248 0 359.89816760 0 5497.20997061 0 -175.40112638 0 -849.43886481 0 9564
0.09550000 0.09549270 19090.34883607 0 133.38165370 0 5757.52032710 0 283.88776496 0 -1859.02119240 0 10155
0.09650000 0.09649430 18999.66649580 0 203.46171917 0 5142.40839412 0 67.42248607 0 -1255.11445214 0 9913
0.09750000 0.09749140 19043.07000909 0 481.73581544 0 5594.57999507 0 297.81896404 0 -1615.69578219 0 10476
0.09850000 0.09850240 18412.05821768 0 402.44468295 0 5784.09390666 0 -301.61898592 0 -780.35863027 0 10575
0.09950000 0.09950330 18259.14941193 0 436.81096472 0 6430.45194028 0 401.89660287 0 -602.34222076 0 10882
0.10050000 0.10051200 17376.02078440 0 820.84015704 0 6289.89984903 0 545.05844108 0 -241.85832718 0 10875
0.10150000 0.10150300 17100.43061966 0 266.10782576 0 6383.42777677 0 603.56349819 0 29.05366960 0 11118
0.10250000 0.10250800 16971.21658903 0 36.53069983 0 6428.07139044 0 273.85956037 0 296.30869894 0 11575
0.10350000 0.10349800 16808.78558394 0 403.63938680 0 6187.09331309 0 219.84654544 0 -2.15778573 0 11364
0.10450000 0.10450100 16415.27515988 0 196.53376553 0 5309.22403984 0 367.14943313 0 124.62676646 0 12093
0.10550000 0.10551000 16360.91004502 0 107.14566931 0 5420.16873452 0 411.52066760 0 11.73345333 0 12067
0.10650000 0.10649700 16377.62925550 0 160.69707902 0 5268.16785941 0 386.73305403 0 -53.90107373 0 12054
0.10750000 0.10749900 15842.28235052 0 264.03397932 0 5184.80432585 0 46.42293627 0 -975.23154707 0 12807
0.10850000 0.10850100 15816.70528019 0 760.66650058 0 4982.01469680 0 233.41678673 0 208.87940770 0 12736
0.10950000 0.10950300 15225.11096513 0 260.65027686 0 4854.68296139 0 -100.46363201 0 424.48193104 0 12933
0.11050000 0.11050200 15112.06252873 0 -208.25160689 0 4940.73706988 0 792.44628727 0 742.29419200 0 13428
0.11150000 0.11150900 15233.19376225 0 -103.92196194 0 4938.91013628 0 802.31394315 0 -203.76620810 0 13453
0.11250000 0.11250000 15470.14151336 0 209.76519369 0 5090.18023795 0 195.46307172 0 447.30309972 0 13668
0.11350000 0.11349100 15034.11336201 0 273.49528088 0 4452.35896677 0 6.29065277 0 443.03914743 0 13791
0.11450000 0.11448600 14818.75664428 0 302.19253235 0 4870.21743311 0 -259.77002704 0 861.47337465 0 14205
0.11550000 0.11549300 15013.51883784 0 70.17705904 0 4865.58920133 0 -201.70232676 0 295.13171081 0 14776
0.11650000 0.11649800 14692.08924836 0 77.75827984 0 4959.02855048 0 268.89030099 0 347.60345812 0 14553
0.11750000 0.11747300 14595.53857594 0 416.64383230 0 5034.37572087 0 -190.41409160 0 -226.24524195 0 14568
0.11850000 0.11849100 14155.96728064 0 244.84896211 0 4779.02576590 0 12.24455185 0 372.79853325 0 16015
0.11950000 0.11950300 14037.05051209 0 61.88510571 0 4518.51610757 0 792.68434225 0 403.18542148 0 15270
0.12050000 0.12050700 14042.91884424 0 123.20618719 0 4602.44432969 0 481.65498747 0 -121.90961795 0 15999
0.12150000 0.12150000 13986.33926442 0 -89.37049122 0 4389.27993228 0 41.51889288 0 -628.18834859 0 15670
0.12250000 0.12250700 13742.08377892 0 218.58651487 0 4466.28795140 0 -494.64061002 0 -984.83346716 0 16887
0.12350000 0.12352200 13828.00501951 0 287.91144779 0 4527.81686041 0 -539.50899188 0 -781.46364828 0 16407
0.12450000 0.12449800 13599.69368175 0 140.88204653 0 4580.04501658 0 -92.67912332 0 -519.47251289 0 16306
0.12550000 0.12549900 13691.15108475 0 40.53002355 0 4449.66839184 0 630.38841953 0 -441.83226403 0 17523
0.12650000 0.12650100 13291.99377504 0 132.49254601 0 4098.94143089 0 945.07607043 0 -727.05867305 0 17154
0.12750000 0.12750600 13490.18838929 0 116.35020366 0 3841.95277185 0 878.26455524 0 -730.99156283 0 18007
0.12850000 0.12850300 13066.33979524 0 106.72082421 0 3480.41922187 0 302.26007353 0 -549.62577507 0 17496
0.12950000 0.12949900 13053.05300545 0 432.26909708 0 3339.95570922 0 47.88769412 0 45.41258663 0 18405
0.13050000 0.13049000 12821.64141674 0 186.20439371 0 3629.59665415 0 64.49385616 0 1146.93783866 0 18100
0.13150000 0.13148800 12645.70217538 0 -32.74418619 0 3649.96973182 0 13.09689941 0 986.78551802 0 19059
0.13250000 0.13249300 12772.03740156 0 83.82735325 0 3529.29246362 0 96.21562387 0 959.73804296 0 18957
0.13350000 0.13349100 12689.65930491 0 338.86296491 0 4073.17613104 0 30.13842526 0 849.57062547 0 19468
0.13450000 0.13450700 12430.89907389 0 269.59671531 0 3765.27692248 0 -127.41256339 0 1351.89764338 0 19953
0.13550000 0.13551000 12384.06313991 0 141.05809649 0 3990.78696206 0 118.73739689 0 1239.85678854 0 19956
0.13650000 0.13649900 12174.79620084 0 190.06309891 0 4132.32449022 0 48.19262594 0 1208.35602443 0 19723
0.13750000 0.13749600 12003.83950564 0 226.35928689 0 4111.46423026 0 14.31751250 0 509.13096151 0 20946
0.13850000 0.13851100 11814.39202799 0 345.42331737 0 4204.43854176 0 -238.31075430 0 116.71116145 0 20955
0.13950000 0.13949800 11742.86480966 0 -8.22508756 0 4328.01675906 0 -336.85001626 0 -136.90043852 0 20506
0.14050000 0.14048300 11580.21235808 0 182.95577361 0 4005.19205665 0 1.77446185 0 -782.07705508 0 21447
0.14150000 0.14148400 11375.48507218 0 187.83423992 0 3989.34755983 0 -203.10851201 0 -633.39566295 0 21771
0.14250000 0.14249400 11196.11341012 0 73.27952445 0 3572.03163742 0 460.71389954 0 -791.42652615 0 22470
0.14350000 0.14350900 11297.31445896 0 7.81607589 0 3476.80964398 0 553.48890920 0 -930.94556950 0 22519
0.14450000 0.14449900 11056.05957349 0 108.38355523 0 3137.84149198 0 716.90645843 0 -701.63550804 0 22218
0.14550000 0.14550500 10922.97022917 0 256.16155638 0 2942.54782683 0 284.95956600 0 -938.15365295 0 23559
0.14650000 0.14650700 10680.20950752 0 232.80227271 0 2695.35817525 0 276.58667397 0 -474.65838542 0 23044
0.14750000 0.14750500 10665.62725573 0 49.37526096 0 2738.65096529 0 -57.50190448 0 -6.43197992 0 23649
0.14850000 0.14849900 10669.25897827 0 -42.09941487 0 2715.41015550 0 131.02989190 0 471.98774067 0 23640
0.14950000 0.14949500 10719.25052483 0 -18.22094989 0 2807.97479098 0 118.56909755 0 307.30130302 0 24457
0.15050000 0.15050000 10613.34373794 0 186.00619909 0 2863.92324829 0 102.01087868 0 359.24157874 0 24591
0.15150000 0.15149900 10545.13821706 0 138.49596053 0 2456.81600936 0 418.25485556 0 188.59712310 0 25020
0.15250000 0.15250500 10401.84018925 0 0.32868086 0 2442.98667566 0 136.85725646 0 440.25445774 0 25297
0.15350000 0.15350100 10306.25280909 0 129.48640982 0 2344.87480544 0 220.27615164 0 42.25841346 0 25452
0.15450000 0.15450400 10240.15102993 0 153.65840214 0 2264.14648519 0 48.78942425 0 162.91708015 0 26061
0.15550000 0.15549900 10073.12501004 0 228.37002108 0 2180.11861214 0 129.31921772 0 314.63893267 0 26128
0.15650000 0.15649500 9995.33085586 0 178.76711313 0 2232.63464876 0 -35.03106415 0 165.68294689 0 26331
0.15750000 0.15749700 9762.64594980 0 244.26102166 0 2348.24079219 0 -119.84020044 0 438.55485588 0 27345
0.15850000 0.15849900 9609.91430125 0 269.42952321 0 2398.96311218 0 -58.54978930 0 471.15620908 0 26980
0.15950000 0.15949700 9489.31453932 0 246.26068352 0 2567.29566640 0 -217.46156667 0 493.13809554 0 27777
0.16050000 0.16050000 9341.13361628 0 118.27457371 0 2958.62484247 0 -160.72254537 0 233.17208836 0 28224
0.16150000 0.16150500 9153.41342130 0 222.24481099 0 2881.34001523 0 -1.16251660 0 345.56504312 0 28075
0.16250000 0.16249700 9075.16530181 0 170.93565778 0 2851.61082309 0 -83.40250814 0 89.46969925 0 28590
0.16350000 0.16349900 9060.26195260 0 -30.54455814 0 2966.39761449 0 91.66999164 0 157.89356638 0 29163
0.16450000 0.16449100 9041.98154433 0 -17.81935667 0 2966.84050748 0 27.97898975 0 -68.54854151 0 28996
0.16550000 0.16550500 9056.06554150 0 168.03692315 0 2797.40072078 0 91.96960875 0 -101.35694718 0 30777
0.16650000 0.16650700 8951.77531403 0 -21.52659247 0 2738.18592765 0 175.53067258 0 -4.69581724 0 29211
0.16750000 0.16749900 8882.35183742 0 9.22873845 0 2543.68946989 0 302.13163456 0 -429.19541971 0 30922
0.16850000 0.16850800 8877.54644844 0 158.94765170 0 2389.11981542 0 179.51117335 0 -353.14847839 0 30867
0.16950000 0.16949900 8697.75403804 0 180.99929381 0 2101.28365943 0 186.68603984 0 -304.53654351 0 30852
0.17050000 0.17049200 8449.68967280 0 250.70843640 0 2262.12024975 0 34.60799062 0 -204.02972943 0 31257
0.17150000 0.17149500 8284.49058651 0 165.04850268 0 2067.42449014 0 99.32030375 0 -195.14861770 0 32608
0.17250000 0.17250900 8216.59509072 0 57.88356752 0 2238.40332999 0 197.59560148 0 -335.00204525 0 32361
0.17350000 0.17350400 8159.04114631 0 58.77477894 0 2120.31698580 0 -125.17484654 0 26.65872574 0 32508
0.17450000 0.17449800 8125.71344861 0 -2.31387230 0 2059.85101996 0 150.52714868 0 -139.43821537 0 32791
0.17550000 0.17549800 8205.34560870 0 50.13404738 0 2226.84382288 0 119.00313269 0 197.49927226 0 33633
0.17650000 0.17650100 8099.74884691 0 120.45803617 0 2123.36187512 0 9.77283249 0 -171.31211683 0 33984
0.17750000 0.17750300 7995.52505339 0 98.45610880 0 1904.88276180 0 263.27331061 0 285.46778571 0 34069
0.17850000 0.17849800 7987.98480019 0 70.50003876 0 1813.76860087 0 378.62479057 0 250.24450599 0 34536
