### header ###
fiducial parameters:
Omega_m = 0.31
Omega_nu = 0
Omega_de = 0.69
Omega_k = 0
H_0 = 100
w_de = -1
zeff = 0
beta = 0
fgrowth = 0
b_1 = 2
gamma = 0.55
Lx = 3500 Ly = 3500 Lz = 3500
nx = 700 ny = 700 nz = 700
xoffset = -685.467585 yoffset = -31.7331281 zoffset = 572.489161
bins = 400 dk = 0.001
kx_ny = 0.628318531 ky_ny = 0.628318531 kz_ny = 0.628318531
############################
A(data) = 7.99361417 (not used)
A(ran) = 7.98910795 (used)
Ngal = 475401
weighted Ngal = 0
Nran = 23820508
weighted Nran = 0
SN(data) = 3490.85806
SN(ran) = 69.5880276
SN(data+ran) = 3560.44609
############################
13 columns: k_central k_mean P_0(k) sigma^{lin}_{P_0(k)} P^img_1(k) sigma^{lin}_{P_1(k)} P_2(k) sigma^{lin}_{P_2(k)} P^img_3(k) sigma^{lin}_{P_3(k)} P_4(k) sigma^{lin}_{P_4(k)} N_modes
### header ###
0.00050000 0 0 0 0 0 0 0 0 0 0 0 0
0.00150000 0.00179520 25791.87343255 0 -13585.85327573 0 68634.68419283 0 -122771.04482163 0 -33509.06238465 0 3
0.00250000 0.00253879 48657.66358529 0 -16141.78873686 0 -3119.59430068 0 23606.08579011 0 3595.95893135 0 6
0.00350000 0.00331552 47351.46142643 0 -14887.51578141 0 -17987.21311439 0 24415.14056460 0 67714.79544690 0 7
0.00450000 0.00420575 50506.07749051 0 -19424.62232234 0 -44883.88311735 0 5983.61719989 0 -1701.00804491 0 24
0.00550000 0.00557378 81923.13482393 0 -48012.58994135 0 -22165.02271496 0 -15380.12351259 0 -44201.71718527 0 45
0.00650000 0.00659388 101664.86852908 0 -27376.21239085 0 -22977.95280314 0 -52785.31555443 0 1529.84097554 0 40
0.00750000 0.00754703 111844.87469059 0 12502.97990846 0 -1349.40637030 0 -67893.39204622 0 -26605.68930673 0 57
0.00850000 0.00846663 110799.64722771 0 20004.92286609 0 -21454.73307784 0 -46137.82390306 0 40143.26724624 0 75
0.00950000 0.00948925 92923.26808476 0 17373.36342644 0 886.57212055 0 -52177.88781488 0 -2047.68253499 0 112
0.01050000 0.01054430 90857.28299685 0 -2978.83183526 0 15724.80498419 0 2775.24499882 0 -5463.17364412 0 105
0.01150000 0.01145670 91960.64016503 0 3008.48352112 0 20583.67328436 0 -9657.95711864 0 -21571.21393493 0 144
0.01250000 0.01249090 97575.96969680 0 859.37849080 0 11754.49075072 0 5233.89901410 0 -27923.40668339 0 169
0.01350000 0.01339930 91650.39362361 0 11196.22413337 0 13157.90792149 0 -54.29336619 0 -20836.23301347 0 180
0.01450000 0.01448870 81204.65166645 0 13500.04275838 0 15208.17030816 0 -944.92770128 0 -21987.64407136 0 267
0.01550000 0.01550050 71272.44413438 0 6122.91811844 0 23003.75131997 0 -1126.77513517 0 -26219.04372406 0 238
0.01650000 0.01653350 64289.46104100 0 6235.20256442 0 21830.41705894 0 -2626.86477392 0 -37696.28346132 0 315
0.01750000 0.01747870 62641.78838474 0 -1167.73166467 0 24577.79301619 0 -10556.29912047 0 -35366.00197999 0 297
0.01850000 0.01844180 59056.01599222 0 3141.34034662 0 20448.81236807 0 834.05829840 0 -25154.66113924 0 388
0.01950000 0.01947590 65348.30746341 0 -693.27701003 0 16342.86215557 0 -9777.18391228 0 -25592.01796958 0 399
0.02050000 0.02045430 70879.48732656 0 -7652.13904379 0 20575.25831750 0 566.70151440 0 -32509.67434652 0 462
0.02150000 0.02154770 72017.83304117 0 -4860.99418653 0 19018.04655500 0 502.40784588 0 -22755.62052079 0 571
0.02250000 0.02255340 80125.87505937 0 -3500.53763606 0 23720.35218223 0 -2052.43256233 0 -15803.63993690 0 510
0.02350000 0.02348930 83226.12600859 0 1510.51976873 0 25074.16533781 0 6196.93660985 0 -26290.46021914 0 555
0.02450000 0.02439640 78775.16215474 0 3857.66440077 0 32023.37784049 0 198.21454444 0 -6684.70573509 0 592
0.02550000 0.02547300 74437.02529080 0 11813.72768850 0 33276.87573321 0 -3770.79094024 0 -8394.82630333 0 837
0.02650000 0.02652900 67117.11135319 0 7875.26853354 0 36946.13345486 0 4025.12224132 0 12754.10023535 0 723
0.02750000 0.02749970 59705.07567309 0 3575.22046697 0 31951.85062216 0 7073.11181740 0 3184.44490714 0 826
0.02850000 0.02848090 57041.40649147 0 341.24683645 0 37576.25946029 0 5769.24591908 0 2197.81218720 0 831
0.02950000 0.02946900 58846.97049965 0 -208.40883390 0 29697.41456584 0 8654.47232032 0 -5458.77793117 0 996
0.03050000 0.03053250 55957.75806147 0 901.54633264 0 26870.20714664 0 10929.90150450 0 3924.22014525 0 1041
0.03150000 0.03150510 57201.06941535 0 -481.71145633 0 17760.78407185 0 455.36153772 0 -2645.48842427 0 1036
0.03250000 0.03246190 55788.13004525 0 1509.01393256 0 21139.61471350 0 5510.26424157 0 -1241.66157749 0 1059
0.03350000 0.03345080 54006.15008893 0 3952.77567096 0 19904.49687998 0 -5708.94603812 0 2535.40737092 0 1302
0.03450000 0.03451200 50068.94210667 0 3543.33217149 0 23057.00920235 0 -638.72809458 0 465.30227095 0 1339
0.03550000 0.03553350 47849.71604327 0 760.45834087 0 21243.47312030 0 5539.52839607 0 3450.20284744 0 1365
0.03650000 0.03647120 46518.71187682 0 181.61934400 0 20966.22210684 0 3595.58247231 0 -1877.21302208 0 1308
0.03750000 0.03744890 47823.25318695 0 -462.16658856 0 17412.22728656 0 9242.45705749 0 -504.67324354 0 1579
0.03850000 0.03847530 48600.19821948 0 -355.33304808 0 15489.85025154 0 7253.12567430 0 -1269.48632976 0 1662
0.03950000 0.03950240 47565.60018842 0 1122.14690340 0 13297.64066070 0 -158.96868912 0 1594.10474879 0 1683
0.04050000 0.04050350 47624.94784945 0 2285.49392744 0 13718.72117355 0 1884.79756458 0 1098.03470164 0 1822
0.04150000 0.04152450 44864.39582567 0 2055.21171586 0 13021.71832622 0 -1504.07567569 0 -497.50612768 0 1887
0.04250000 0.04250150 43121.50117596 0 2003.91363498 0 13782.27631801 0 -1156.72577380 0 2554.96109655 0 1920
0.04350000 0.04349210 42372.56912523 0 535.04795221 0 13181.04908036 0 914.84973091 0 -2795.75094438 0 2005
0.04450000 0.04448520 40833.40525219 0 565.46695019 0 13225.44910288 0 -137.20824915 0 31.16538339 0 2151
0.04550000 0.04548030 40982.32802100 0 1196.64150478 0 13059.03206086 0 1793.24051065 0 -335.33753669 0 2274
0.04650000 0.04648670 39802.57181157 0 763.97934016 0 13318.89952435 0 2357.24259227 0 1198.49058302 0 2311
0.04750000 0.04749250 39921.48858013 0 324.41358102 0 14122.19668994 0 1847.47275762 0 -585.38938423 0 2568
0.04850000 0.04851840 37819.85060630 0 1587.49457087 0 11975.71580060 0 2442.79844614 0 4751.01278411 0 2493
0.04950000 0.04949480 38788.78975118 0 703.53330451 0 15321.66163755 0 349.26430685 0 5619.95776355 0 2644
0.05050000 0.05050630 38127.99340600 0 964.02303266 0 15465.49113694 0 927.48546799 0 6841.84416891 0 2829
0.05150000 0.05149060 38604.10337320 0 956.91460013 0 18750.31774089 0 -829.90285490 0 4417.92403659 0 2784
0.05250000 0.05249300 35799.15132690 0 1501.09722031 0 17896.97366712 0 -990.67190403 0 4579.11494130 0 3055
0.05350000 0.05348950 34859.11094979 0 1396.50804008 0 19579.63486981 0 -1167.59879678 0 6367.59435228 0 3009
0.05450000 0.05448610 34915.35835987 0 -234.63142077 0 19125.89099874 0 3099.08835512 0 4193.01190255 0 3336
0.05550000 0.05550870 35510.16364913 0 -442.90517230 0 17371.37040797 0 3185.09817431 0 4607.29400796 0 3349
0.05650000 0.05647670 34468.92222318 0 1736.33983341 0 17490.17645328 0 1568.49446148 0 2303.19857483 0 3324
0.05750000 0.05747970 33591.88337430 0 755.68949057 0 15086.70690489 0 1529.64167370 0 5655.24526275 0 3639
0.05850000 0.05849280 32649.96070198 0 228.25154721 0 15055.59367215 0 2850.81361571 0 6536.01548510 0 3846
0.05950000 0.05951020 32998.07459427 0 1.31740735 0 15315.35041240 0 1043.46917770 0 6302.99840929 0 3787
0.06050000 0.06049470 32514.21399970 0 1083.17010557 0 14993.03503693 0 803.79209851 0 5502.92329022 0 3930
0.06150000 0.06148310 31594.98959326 0 1565.06204079 0 15472.57742482 0 -722.54227176 0 3419.42178444 0 4083
0.06250000 0.06249100 30374.15505875 0 462.87632458 0 13881.48434839 0 -500.03726113 0 3534.31929909 0 4303
0.06350000 0.06350600 30747.40312839 0 -711.91616163 0 13871.85142579 0 2535.68417904 0 3209.98876050 0 4470
0.06450000 0.06451750 31799.60615590 0 -832.81819802 0 12634.74057381 0 1603.79303301 0 -280.90709511 0 4479
0.06550000 0.06550280 31048.12747046 0 571.50358168 0 11454.65219463 0 846.57113268 0 -1840.35325276 0 4636
0.06650000 0.06648880 30937.73639202 0 1272.43156816 0 10165.84465807 0 557.40851218 0 -1453.47515127 0 4653
0.06750000 0.06749660 29677.59510441 0 340.02888072 0 9295.44920407 0 683.83896036 0 123.70776350 0 5220
0.06850000 0.06852730 29292.05675423 0 -324.01608456 0 9626.38992058 0 1459.11096460 0 -1159.38313176 0 5029
0.06950000 0.06949320 30971.50698272 0 -149.89270446 0 10559.02291238 0 333.34783992 0 118.25575076 0 5040
0.07050000 0.07048030 30703.77816860 0 1089.26652761 0 10543.46629601 0 -768.95081401 0 -749.62185657 0 5475
0.07150000 0.07148790 29102.49855333 0 2038.96861535 0 12401.77885962 0 -963.48048874 0 3574.47862120 0 5509
0.07250000 0.07249820 28011.98528194 0 1168.93854808 0 12968.23899734 0 -852.06300579 0 3724.27610368 0 5916
0.07350000 0.07351270 27099.62571689 0 695.38518068 0 12565.20637394 0 3385.17508378 0 3631.51216634 0 5721
0.07450000 0.07449140 26771.77417900 0 108.22964991 0 12595.87671369 0 2126.21853492 0 1822.23892935 0 6028
0.07550000 0.07549160 25495.02440417 0 791.89820719 0 10338.49541897 0 1809.92650416 0 901.09790348 0 6183
0.07650000 0.07648840 25346.98742134 0 500.43807929 0 9166.83307898 0 1741.02342681 0 906.32957696 0 6330
0.07750000 0.07749960 24492.75756158 0 -318.37694953 0 8020.34920563 0 605.68827732 0 -283.44155027 0 6583
0.07850000 0.07848650 24722.50830157 0 -403.84422481 0 6670.04597703 0 657.16130094 0 -826.58890808 0 6549
0.07950000 0.07947320 24864.78767549 0 55.47434036 0 7645.80567399 0 -207.95819028 0 -2916.42821258 0 6828
0.08050000 0.08048110 24460.86926611 0 1116.22320962 0 7349.39953860 0 -1365.29515641 0 -2395.25388337 0 7147
0.08150000 0.08149960 24150.40127819 0 948.01245097 0 7751.77889483 0 -260.59602247 0 -1088.10061181 0 7386
0.08250000 0.08250610 22824.82255090 0 722.80025693 0 8493.40321119 0 -88.83005105 0 873.69389956 0 7227
0.08350000 0.08350160 22858.37169510 0 360.02549934 0 7792.76864131 0 1605.65318358 0 513.08156700 0 7798
0.08450000 0.08449610 22572.37354504 0 -298.82433114 0 8231.18841483 0 1631.46277273 0 666.76875718 0 7371
0.08550000 0.08548940 22640.80051242 0 349.86664132 0 7479.58793382 0 612.68266491 0 785.55819400 0 8256
0.08650000 0.08650700 21991.85155480 0 818.17726292 0 7858.28358726 0 39.86778780 0 -41.94539883 0 8037
0.08750000 0.08749060 21083.25658018 0 1093.56258964 0 8068.79062672 0 -609.65992023 0 732.90486056 0 8155
0.08850000 0.08849210 20711.33718952 0 871.31224249 0 8188.17243291 0 -75.91872380 0 601.30252946 0 8718
0.08950000 0.08949900 20266.56190155 0 -61.25796923 0 7622.09982656 0 400.52474183 0 775.83669281 0 8571
0.09050000 0.09049190 20154.06708140 0 -236.61558137 0 7330.31085061 0 1052.74557143 0 975.14296848 0 8932
0.09150000 0.09150830 20464.20289957 0 -202.86602809 0 6940.03354540 0 1721.48077350 0 1095.60432634 0 9285
0.09250000 0.09250820 20101.03064552 0 212.12692057 0 6537.54346592 0 829.15325851 0 646.85518100 0 9204
0.09350000 0.09350330 19734.20452427 0 569.76854838 0 5726.70604713 0 911.55349981 0 1045.46773233 0 9349
0.09450000 0.09448040 19487.73457381 0 473.74824032 0 5318.84589011 0 82.91067547 0 1419.61598197 0 9564
0.09550000 0.09549270 18771.57660454 0 712.69122437 0 4695.06432680 0 -590.59226966 0 331.87079179 0 10155
0.09650000 0.09649430 18569.50667660 0 443.26059393 0 5685.60557740 0 -735.70948043 0 697.05488726 0 9913
0.09750000 0.09749140 18071.58422951 0 570.89128211 0 5705.94543809 0 -964.29098292 0 -22.24108959 0 10476
0.09850000 0.09850240 17760.89479509 0 227.84519289 0 5849.53134634 0 77.25127809 0 47.69902170 0 10575
0.09950000 0.09950330 17907.82454544 0 -123.60700535 0 5958.68232440 0 328.82036630 0 31.23270313 0 10882
0.10050000 0.10051200 17848.03399142 0 1.09773132 0 6020.49911387 0 750.90513902 0 -251.74591324 0 10875
0.10150000 0.10150300 18169.79575065 0 198.88552732 0 6479.31410970 0 233.22523552 0 -499.35299146 0 11118
0.10250000 0.10250800 17574.76901489 0 647.28921613 0 6257.28078011 0 -134.97496124 0 225.51225405 0 11575
0.10350000 0.10349800 17071.31040539 0 947.88511924 0 6923.32540725 0 -463.37568643 0 1635.91384731 0 11364
0.10450000 0.10450100 16281.18930633 0 709.14475873 0 7066.83380923 0 44.33403147 0 1088.63540510 0 12093
0.10550000 0.10551000 15970.05697893 0 257.18463919 0 7384.60953152 0 971.01742025 0 1235.22855677 0 12067
0.10650000 0.10649700 15621.50019364 0 -214.86842820 0 6188.13411162 0 1453.08761990 0 901.57622792 0 12054
0.10750000 0.10749900 15894.98661666 0 -247.93260457 0 5391.77929369 0 1170.21186543 0 451.11862285 0 12807
0.10850000 0.10850100 15821.57710311 0 -15.01661909 0 5202.96293856 0 745.53063255 0 406.85811162 0 12736
0.10950000 0.10950300 15691.47728649 0 612.18662476 0 4480.46052716 0 -28.31082733 0 354.28117722 0 12933
0.11050000 0.11050200 14991.92780445 0 493.50237503 0 4192.72402210 0 -276.09506275 0 590.52805018 0 13428
0.11150000 0.11150900 15006.98616620 0 243.89231325 0 4723.52020158 0 -592.26086901 0 310.34508511 0 13453
0.11250000 0.11250000 14515.48566750 0 411.18185447 0 5230.89841407 0 34.29110069 0 286.13987582 0 13668
0.11350000 0.11349100 14638.16702649 0 100.09758095 0 5328.60060827 0 73.60881539 0 -328.84693988 0 13791
0.11450000 0.11448600 14437.53650078 0 153.54657166 0 5520.01895974 0 -369.14134436 0 52.68411451 0 14205
0.11550000 0.11549300 14168.47900768 0 361.96204895 0 5333.54993747 0 140.83775723 0 -548.83078215 0 14776
0.11650000 0.11649800 14217.75085313 0 -83.81151982 0 5005.11156637 0 462.23412974 0 267.40771670 0 14553
0.11750000 0.11747300 14204.79623309 0 -109.57205858 0 4703.30213646 0 751.07233112 0 305.29610499 0 14568
0.11850000 0.11849100 14211.32890473 0 39.55100859 0 4431.85302121 0 1050.09928580 0 202.46520994 0 16015
0.11950000 0.11950300 13937.17814222 0 96.33863740 0 4017.44912022 0 756.52655833 0 524.08524341 0 15270
0.12050000 0.12050700 13806.41398611 0 161.77441623 0 3426.91774835 0 789.92733337 0 549.12309152 0 15999
0.12150000 0.12150000 13627.15304730 0 65.04514721 0 3304.19210006 0 245.99605496 0 1069.60982936 0 15670
0.12250000 0.12250700 13788.14465016 0 -53.39163606 0 3472.49143730 0 -36.28101890 0 383.10908212 0 16887
0.12350000 0.12352200 13486.42379886 0 198.16693344 0 3373.57128737 0 -431.18843818 0 923.60793984 0 16407
0.12450000 0.12449800 13584.08170376 0 435.96393187 0 3309.29644180 0 -115.87520092 0 797.78425507 0 16306
0.12550000 0.12549900 13349.68058735 0 118.29450390 0 3783.44660751 0 -519.79250308 0 918.07288466 0 17523
0.12650000 0.12650100 13221.79523569 0 121.37150296 0 4148.58973538 0 -214.03025321 0 332.35686685 0 17154
0.12750000 0.12750600 13272.06359037 0 195.02792936 0 4553.23891820 0 -150.38985185 0 483.28704815 0 18007
0.12850000 0.12850300 13320.00675683 0 208.33575656 0 4796.74148561 0 -22.84907094 0 468.38702064 0 17496
0.12950000 0.12949900 13033.89788352 0 111.20157262 0 4529.44449216 0 365.60373658 0 718.75664390 0 18405
0.13050000 0.13049000 12954.62003782 0 106.77098184 0 4388.02875958 0 505.46270030 0 610.63539205 0 18100
0.13150000 0.13148800 12883.97860547 0 313.36672255 0 4690.94542197 0 604.80692027 0 403.95051913 0 19059
0.13250000 0.13249300 12455.92252798 0 134.43131009 0 3970.33637812 0 211.31642640 0 384.76107298 0 18957
0.13350000 0.13349100 12386.05615838 0 35.64723903 0 3899.11918489 0 99.03541283 0 470.38557527 0 19468
0.13450000 0.13450700 12323.27607666 0 129.06676871 0 3945.47900890 0 -231.70279085 0 307.64011616 0 19953
0.13550000 0.13551000 12293.15935315 0 220.72679526 0 3847.55536821 0 89.15768114 0 369.90312031 0 19956
0.13650000 0.13649900 11984.79510695 0 490.63353567 0 4048.71736551 0 169.21834020 0 482.27946659 0 19723
0.13750000 0.13749600 11811.07033055 0 242.33443714 0 4022.21021990 0 179.07160206 0 738.31369123 0 20946
0.13850000 0.13851100 11541.12705147 0 179.87877454 0 4060.65333167 0 120.12365196 0 285.27955618 0 20955
0.13950000 0.13949800 11402.83371448 0 239.76122886 0 4092.48626552 0 -77.18019376 0 509.85509155 0 20506
0.14050000 0.14048300 11356.99428973 0 62.50681675 0 4400.24153385 0 -135.23405364 0 422.83104741 0 21447
0.14150000 0.14148400 11321.23068057 0 61.95441846 0 3948.32459638 0 112.28444599 0 751.59826655 0 21771
0.14250000 0.14249400 11215.26853206 0 89.57067885 0 3925.41595633 0 257.00416030 0 402.84328664 0 22470
0.14350000 0.14350900 11340.49652575 0 -23.44144032 0 3582.84929877 0 333.98117690 0 0.46599651 0 22519
0.14450000 0.14449900 11080.40761576 0 100.78495088 0 3601.63903398 0 324.69703254 0 145.88563011 0 22218
0.14550000 0.14550500 11006.82094502 0 290.21670582 0 3388.49678122 0 -16.61568424 0 -240.92382296 0 23559
0.14650000 0.14650700 10865.25019989 0 347.59017133 0 3589.97987595 0 -148.99141722 0 95.51142401 0 23044
0.14750000 0.14750500 10479.60112645 0 266.37023986 0 3424.07216087 0 153.70490590 0 -121.61177241 0 23649
0.14850000 0.14849900 10381.05743557 0 263.85350043 0 3654.01113038 0 90.15540833 0 151.00325864 0 23640
0.14950000 0.14949500 10029.40039933 0 140.02172689 0 3330.36707593 0 163.93794850 0 -215.63795477 0 24457
0.15050000 0.15050000 10091.68222643 0 56.29524252 0 3319.77086108 0 141.62057059 0 -187.33044914 0 24591
0.15150000 0.15149900 9877.34416259 0 21.17571049 0 2997.58835350 0 7.05538503 0 -177.10515717 0 25020
0.15250000 0.15250500 9875.16291460 0 161.40681504 0 3290.88316562 0 87.61563846 0 -299.01920405 0 25297
0.15350000 0.15350100 9784.38092342 0 311.41910062 0 3275.82480387 0 -227.76547215 0 -282.90122081 0 25452
0.15450000 0.15450400 9433.99720453 0 226.95387074 0 3422.66597562 0 -85.20165020 0 54.74899236 0 26061
0.15550000 0.15549900 9365.58130948 0 185.78475260 0 3409.74457255 0 189.87929831 0 36.59801956 0 26128
0.15650000 0.15649500 9284.36580693 0 27.13151401 0 3452.91556702 0 357.40800175 0 44.59478472 0 26331
0.15750000 0.15749700 9254.76948269 0 41.85881325 0 3241.15735486 0 386.67658518 0 60.12969933 0 27345
0.15850000 0.15849900 9162.59237858 0 11.81549926 0 3032.21151321 0 371.06903611 0 377.37472510 0 26980
0.15950000 0.15949700 9208.93005794 0 -5.30230384 0 2724.57804045 0 400.15935511 0 445.69982709 0 27777
0.16050000 0.16050000 9073.64839331 0 52.59321072 0 2547.35440940 0 314.57582042 0 96.66095277 0 28224
0.16150000 0.16150500 9100.53199797 0 25.43379445 0 2448.42318715 0 159.30528779 0 40.49326343 0 28075
0.16250000 0.16249700 8974.86111128 0 87.73256221 0 2328.06701637 0 -41.50593826 0 334.43182052 0 28590
0.16350000 0.16349900 9084.16710189 0 136.84839860 0 2406.68052258 0 -63.66741783 0 55.94059596 0 29163
0.16450000 0.16449100 8956.51426905 0 94.93433444 0 2507.29473821 0 -129.32475388 0 254.06445806 0 28996
0.16550000 0.16550500 8881.70964258 0 137.95563108 0 2705.88795616 0 -242.65553456 0 125.48708610 0 30777
0.16650000 0.16650700 8869.80689340 0 227.26832476 0 3032.65440620 0 -274.26702192 0 296.21126248 0 29211
0.16750000 0.16749900 8658.79052700 0 196.29460331 0 2929.92537654 0 -82.87059366 0 296.23119266 0 30922
0.16850000 0.16850800 8552.48513642 0 84.58071423 0 3006.20262221 0 345.45431988 0 409.07589828 0 30867
0.16950000 0.16949900 8460.41875555 0 119.84462937 0 2923.56986209 0 262.09300078 0 60.89767578 0 30852
0.17050000 0.17049200 8288.07801975 0 170.76625121 0 2834.91375727 0 250.36297987 0 297.09261953 0 31257
0.17150000 0.17149500 8206.09852679 0 118.24135674 0 2488.34999044 0 80.58703739 0 261.66007288 0 32608
0.17250000 0.17250900 8070.13037802 0 33.48437110 0 2554.15281684 0 136.22281224 0 371.77655767 0 32361
0.17350000 0.17350400 8264.72648671 0 -14.21797230 0 2462.87257104 0 161.38024146 0 303.45699184 0 32508
0.17450000 0.17449800 8111.69588539 0 5.56571444 0 2522.38631694 0 248.96565248 0 613.17759783 0 32791
0.17550000 0.17549800 8099.92600411 0 171.23682502 0 2358.06194430 0 202.75309038 0 627.44096666 0 33633
0.17650000 0.17650100 7980.27846212 0 196.97887299 0 2399.33957123 0 189.73535809 0 543.35441029 0 33984
0.17750000 0.17750300 7710.84450998 0 351.35365454 0 2432.68941358 0 55.18424545 0 727.45506228 0 34069
0.17850000 0.17849800 7548.59066209 0 215.53719662 0 2453.39466099 0 -111.43187697 0 852.00100077 0 34536
