### header ###
fiducial parameters:
Omega_m = 0.31
Omega_nu = 0
Omega_de = 0.69
Omega_k = 0
H_0 = 100
w_de = -1
zeff = 0
beta = 0
fgrowth = 0
b_1 = 2
gamma = 0.55
Lx = 3500 Ly = 3500 Lz = 3500
nx = 700 ny = 700 nz = 700
xoffset = -685.467585 yoffset = -31.7331281 zoffset = 572.489161
bins = 400 dk = 0.001
kx_ny = 0.628318531 ky_ny = 0.628318531 kz_ny = 0.628318531
############################
A(data) = 8.06776506 (not used)
A(ran) = 8.06528761 (used)
Ngal = 478950
weighted Ngal = 0
Nran = 23820508
weighted Nran = 0
SN(data) = 3489.48927
SN(ran) = 70.2515801
SN(data+ran) = 3559.74085
############################
13 columns: k_central k_mean P_0(k) sigma^{lin}_{P_0(k)} P^img_1(k) sigma^{lin}_{P_1(k)} P_2(k) sigma^{lin}_{P_2(k)} P^img_3(k) sigma^{lin}_{P_3(k)} P_4(k) sigma^{lin}_{P_4(k)} N_modes
### header ###
0.00050000 0 0 0 0 0 0 0 0 0 0 0 0
0.00150000 0.00179520 32593.60256865 0 -67772.81442895 0 -27822.31635780 0 -50007.04781093 0 93145.04675088 0 3
0.00250000 0.00253879 45374.82999981 0 -52012.35655884 0 -12680.13710556 0 -62611.56093798 0 -9722.24303653 0 6
0.00350000 0.00331552 77420.46321318 0 -23261.40431850 0 6595.80603912 0 -22824.26893466 0 -16051.99218258 0 7
0.00450000 0.00420575 92516.47087092 0 -979.23197803 0 27200.38387273 0 -47544.89494101 0 55225.32377471 0 24
0.00550000 0.00557378 72376.35491880 0 24535.60745863 0 14333.89954047 0 -7051.05574636 0 46247.21847227 0 45
0.00650000 0.00659388 76372.35694585 0 2439.66497822 0 3543.13286964 0 28771.87893425 0 34972.71300243 0 40
0.00750000 0.00754703 67513.38985845 0 -17357.75144845 0 11067.97339499 0 20664.39053229 0 -17785.91824918 0 57
0.00850000 0.00846663 81973.18173211 0 -10367.57134394 0 13978.14574405 0 -7544.62676980 0 -11695.14308970 0 75
0.00950000 0.00948925 80031.31740542 0 16531.75601698 0 17816.36714244 0 -23114.36384491 0 -16765.60351715 0 112
0.01050000 0.01054430 63929.94265414 0 20980.17323612 0 25775.15422208 0 -31231.70661596 0 26223.58337723 0 105
0.01150000 0.01145670 54308.42455648 0 8689.31692653 0 25335.25075703 0 -9574.29463231 0 16982.39963710 0 144
0.01250000 0.01249090 59496.25162701 0 -7797.49652401 0 32167.42878638 0 20663.94763930 0 9319.12183454 0 169
0.01350000 0.01339930 74136.41167197 0 -20255.60029998 0 29241.89912280 0 33068.16241038 0 -4653.39916851 0 180
0.01450000 0.01448870 80304.25021220 0 -13970.06294693 0 19263.07710324 0 35583.01954644 0 2512.39907995 0 267
0.01550000 0.01550050 93009.07860210 0 1897.45323185 0 3040.06179151 0 16281.18930633 0 15934.84698600 0 238
0.01650000 0.01653350 86642.15966164 0 9384.17174285 0 7816.16446365 0 5824.02070996 0 31048.79180995 0 315
0.01750000 0.01747870 82016.91741514 0 7753.37330961 0 7589.86828901 0 -10083.53299537 0 51740.64170779 0 297
0.01850000 0.01844180 79839.10184656 0 7440.89015858 0 23109.71346849 0 -3330.16777408 0 51731.56240144 0 388
0.01950000 0.01947590 74042.51835751 0 -1498.10769261 0 31611.81952698 0 -1434.51933118 0 51851.80784897 0 399
0.02050000 0.02045430 79313.05569443 0 2217.57628700 0 37360.90274257 0 -2619.67883512 0 31897.37478405 0 462
0.02150000 0.02154770 80564.33912219 0 3975.47393684 0 47343.15718282 0 607.15868206 0 35139.13004446 0 571
0.02250000 0.02255340 77730.04541511 0 1115.21562806 0 52338.87941774 0 -9986.25154951 0 4828.44155156 0 510
0.02350000 0.02348930 74095.66551664 0 6882.88927702 0 54759.40034635 0 7333.32252296 0 17473.12507306 0 555
0.02450000 0.02439640 73747.77307083 0 2633.84033856 0 52895.81735612 0 988.70767361 0 4808.56672852 0 592
0.02550000 0.02547300 71909.65642769 0 -2964.17207720 0 45816.61576007 0 13031.46197206 0 -13268.63116967 0 837
0.02650000 0.02652900 68353.33641919 0 5663.93703773 0 41705.46155491 0 6715.91861875 0 -11229.77327757 0 723
0.02750000 0.02749970 66602.91258861 0 9890.18805938 0 42540.09339974 0 3455.30718918 0 -8072.56628948 0 826
0.02850000 0.02848090 57689.69110960 0 5527.21597087 0 34908.16134874 0 9383.73992218 0 -705.45656733 0 831
0.02950000 0.02946900 54749.65670051 0 1156.65933986 0 31631.19609541 0 10465.76072043 0 -3292.74331619 0 996
0.03050000 0.03053250 54092.40349927 0 -489.43772459 0 30692.59512054 0 3160.45117926 0 937.32765752 0 1041
0.03150000 0.03150510 57639.75492467 0 -1309.31348213 0 33012.46861654 0 5421.87387255 0 -4116.33605318 0 1036
0.03250000 0.03246190 57287.21210244 0 -3746.19930682 0 27933.26105248 0 4198.93559633 0 -548.60379949 0 1059
0.03350000 0.03345080 57164.97363644 0 162.41439660 0 18996.89841460 0 6179.86308498 0 -3673.23268626 0 1302
0.03450000 0.03451200 60438.06357608 0 2617.11005576 0 25905.47548519 0 1730.21683779 0 -10128.84094852 0 1339
0.03550000 0.03553350 53218.68634783 0 4702.00667446 0 14608.16102623 0 1264.30448174 0 -12685.45182147 0 1365
0.03650000 0.03647120 50450.27297342 0 4212.60991748 0 17614.85083074 0 4789.26766636 0 -4815.23226806 0 1308
0.03750000 0.03744890 46216.88030226 0 1420.46855098 0 13632.57848646 0 1006.51307915 0 -4093.41634080 0 1579
0.03850000 0.03847530 46150.00346036 0 -1209.67363109 0 15018.05849102 0 3823.90488239 0 -9123.49599964 0 1662
0.03950000 0.03950240 49167.98703618 0 -544.07411140 0 12909.99856880 0 -285.71580578 0 -3447.57870646 0 1683
0.04050000 0.04050350 47687.39576143 0 2210.83324119 0 18548.80142919 0 -5825.21652104 0 2053.11904647 0 1822
0.04150000 0.04152450 46372.88935896 0 4007.25150907 0 19930.73828980 0 915.44210029 0 1156.52647196 0 1887
0.04250000 0.04250150 44520.15724705 0 529.33352537 0 22562.40845270 0 -660.11871890 0 8818.53095716 0 1920
0.04350000 0.04349210 43536.27046367 0 1635.31594177 0 22994.78273687 0 8373.30170388 0 928.95587273 0 2005
0.04450000 0.04448520 43976.83826820 0 84.71480008 0 23678.16662468 0 28.09148457 0 2915.67529449 0 2151
0.04550000 0.04548030 42257.85984011 0 826.11944151 0 20696.50027426 0 2030.03324923 0 3243.77042352 0 2274
0.04650000 0.04648670 42205.93063671 0 66.03335220 0 18560.53809350 0 3707.08078323 0 4017.58198812 0 2311
0.04750000 0.04749250 42211.79896886 0 -555.88717475 0 16585.23534585 0 2977.66924115 0 3570.47043962 0 2568
0.04850000 0.04851840 42851.89006663 0 130.36223072 0 19246.80078576 0 874.67490754 0 3711.37684526 0 2493
0.04950000 0.04949480 42714.81468537 0 1729.64107690 0 16186.96382212 0 835.04262808 0 1963.74324054 0 2644
0.05050000 0.05050630 40210.69770439 0 2140.42432767 0 19283.67162740 0 63.49524318 0 5953.77728451 0 2829
0.05150000 0.05149060 40306.69476057 0 814.02181941 0 17863.42452291 0 -655.88355465 0 6659.82622122 0 2784
0.05250000 0.05249300 39392.67434679 0 -336.92530807 0 19477.54803498 0 1242.65808672 0 4038.67476690 0 3055
0.05350000 0.05348950 40603.98668195 0 736.38489225 0 18738.47035333 0 1315.27039288 0 1400.33906446 0 3009
0.05450000 0.05448610 39216.95655192 0 530.69652856 0 17679.29176118 0 -1495.41711768 0 -672.49868528 0 3336
0.05550000 0.05550870 38538.88738002 0 117.35335629 0 17938.82705493 0 927.93721884 0 -2918.27729083 0 3349
0.05650000 0.05647670 37729.05754279 0 1183.62045079 0 16019.55027087 0 -668.23694745 0 -137.59245882 0 3324
0.05750000 0.05747970 36647.95574749 0 2076.02768652 0 17250.68206745 0 1795.55462654 0 -2670.99906065 0 3639
0.05850000 0.05849280 35378.73515353 0 688.20809973 0 16718.87830641 0 2245.30138835 0 1667.48104536 0 3846
0.05950000 0.05951020 35346.18251856 0 940.13781356 0 17663.67978319 0 3418.63564938 0 786.85808493 0 3787
0.06050000 0.06049470 33816.09795188 0 935.70666917 0 17949.56721000 0 -553.52212617 0 3886.34172205 0 3930
0.06150000 0.06148310 33358.25732062 0 1109.01512616 0 18305.32100643 0 856.26938199 0 3326.90143826 0 4083
0.06250000 0.06249100 32661.69736628 0 174.46772940 0 19897.74276184 0 463.99020046 0 4306.00497732 0 4303
0.06350000 0.06350600 32823.68547838 0 -534.48326365 0 18072.24856899 0 3342.42483765 0 2806.60182271 0 4470
0.06450000 0.06451750 33472.30226626 0 -468.20654175 0 15589.16900516 0 1613.09378585 0 -107.83159984 0 4479
0.06550000 0.06550280 32639.44199340 0 1069.29316087 0 13364.62822585 0 2772.76479806 0 710.82443040 0 4636
0.06650000 0.06648880 30925.00321848 0 2186.09766754 0 12011.36868652 0 1382.11401781 0 -345.19522748 0 4653
0.06750000 0.06749660 30396.63187813 0 924.98312258 0 11082.40063423 0 1834.69529477 0 1791.61287891 0 5220
0.06850000 0.06852730 29242.67418553 0 -47.15813864 0 11546.22032088 0 1065.08457021 0 559.96511198 0 5029
0.06950000 0.06949320 29736.94276544 0 752.34786294 0 13196.43961186 0 1210.84729752 0 4266.58750097 0 5040
0.07050000 0.07048030 28708.54523628 0 148.64153176 0 12414.62275641 0 871.05093562 0 5079.63938473 0 5475
0.07150000 0.07148790 29572.18657214 0 -725.81857267 0 13771.97905593 0 163.86044222 0 6460.74582098 0 5509
0.07250000 0.07249820 30024.71248748 0 94.88362319 0 14221.62616681 0 1255.64592373 0 5716.90703966 0 5916
0.07350000 0.07351270 29577.72273455 0 1175.37156880 0 15299.07409492 0 378.68015219 0 6182.24363482 0 5721
0.07450000 0.07449140 27881.88546532 0 2106.18869933 0 14177.55831404 0 -445.94563270 0 6681.22902509 0 6028
0.07550000 0.07549160 26250.59984979 0 1577.15301949 0 13552.96847102 0 1525.42311794 0 6464.01215680 0 6183
0.07650000 0.07648840 25027.99374332 0 848.77231086 0 10982.87150644 0 2194.64550230 0 5587.08403116 0 6330
0.07750000 0.07749960 24875.30638407 0 -363.56199989 0 9446.71930575 0 2371.38195106 0 3403.66586623 0 6583
0.07850000 0.07848650 24396.64978216 0 -421.39053795 0 7399.45751910 0 1762.96877460 0 3296.40825571 0 6549
0.07950000 0.07947320 24587.86883178 0 329.82905509 0 7186.25990472 0 981.39218860 0 1966.42274314 0 6828
0.08050000 0.08048110 24261.45669612 0 352.18518613 0 5919.51951152 0 -64.04697713 0 2211.91832902 0 7147
0.08150000 0.08149960 23726.33123764 0 186.84215962 0 6870.13395882 0 124.97775916 0 1924.24825791 0 7386
0.08250000 0.08250610 23470.22836458 0 598.18677726 0 6371.68004014 0 -797.64031484 0 2008.14326306 0 7227
0.08350000 0.08350160 23590.80598186 0 455.90518887 0 7358.09131358 0 499.37402888 0 1825.90386887 0 7798
0.08450000 0.08449610 23312.22628942 0 527.83433259 0 7096.96160506 0 -844.12193443 0 1696.60125964 0 7371
0.08550000 0.08548940 23072.73190359 0 571.26331223 0 8221.63299851 0 -863.55607895 0 2479.30390107 0 8256
0.08650000 0.08650700 22697.93370848 0 178.57888361 0 8562.47237341 0 -430.99910143 0 1617.51164346 0 8037
0.08750000 0.08749060 22464.08620831 0 574.48314429 0 8428.20936265 0 50.27012625 0 1803.51562809 0 8155
0.08850000 0.08849210 21651.37756662 0 1069.15918574 0 9901.45968605 0 -440.55451774 0 224.83130607 0 8718
0.08950000 0.08949900 20659.18653962 0 882.03911077 0 9411.32108330 0 630.06178595 0 1377.80688346 0 8571
0.09050000 0.09049190 20692.95713032 0 74.37225219 0 9328.78797410 0 931.14930027 0 1033.88497334 0 8932
0.09150000 0.09150830 19804.62451012 0 101.89174046 0 9330.24952098 0 378.10439130 0 1656.38657590 0 9285
0.09250000 0.09250820 20470.51412471 0 368.05404206 0 9820.84208904 0 1091.45884793 0 1218.19932120 0 9204
0.09350000 0.09350330 19782.92275348 0 100.20930071 0 9288.68401361 0 253.35472204 0 1465.72114252 0 9349
0.09450000 0.09448040 19985.32485116 0 641.33562708 0 8937.50308734 0 569.52163553 0 2019.14915393 0 9564
0.09550000 0.09549270 18824.72376367 0 678.88520223 0 7915.25069846 0 631.24652470 0 2599.77079509 0 10155
0.09650000 0.09649430 18801.91477454 0 309.42054599 0 7584.23247568 0 1427.17837982 0 2625.85719237 0 9913
0.09750000 0.09749140 18500.96898597 0 -178.16477866 0 6915.90694962 0 1184.62803235 0 1387.71661417 0 10476
0.09850000 0.09850240 18165.36682072 0 435.02832043 0 5567.41958229 0 871.93339991 0 587.80093658 0 10575
0.09950000 0.09950330 17857.99908375 0 578.75706167 0 6154.67354602 0 -371.54846778 0 315.70519755 0 10882
0.10050000 0.10051200 17312.46563994 0 374.94545703 0 5591.50188877 0 181.65698990 0 1075.94098469 0 10875
0.10150000 0.10150300 17075.51788882 0 202.93799821 0 6087.24308787 0 70.01706395 0 619.32716703 0 11118
0.10250000 0.10250800 17111.17077474 0 -22.46153957 0 5785.36722402 0 547.90402856 0 205.76254827 0 11575
0.10350000 0.10349800 17316.89456987 0 26.62008333 0 6082.40448193 0 556.88146952 0 1685.09711415 0 11364
0.10450000 0.10450100 16994.46847115 0 371.51967973 0 6001.06718381 0 -264.95187505 0 1440.34337403 0 12093
0.10550000 0.10551000 16726.07531754 0 353.60576541 0 6228.61453116 0 507.76795832 0 2290.00036364 0 12067
0.10650000 0.10649700 16458.01433368 0 202.17732949 0 6484.23022192 0 -47.47148543 0 1428.39633555 0 12054
0.10750000 0.10749900 16182.53489220 0 579.84547120 0 6289.37944976 0 309.32532399 0 1303.52265625 0 12807
0.10850000 0.10850100 15802.53270442 0 320.26145922 0 6357.86177876 0 264.61306191 0 1315.49183938 0 12736
0.10950000 0.10950300 15272.94340834 0 376.38153756 0 6073.44697115 0 101.49490834 0 1951.88478066 0 12933
0.11050000 0.11050200 15447.11107774 0 59.20671033 0 6019.74619578 0 24.35601435 0 800.14819641 0 13428
0.11150000 0.11150900 15155.46604202 0 16.50562533 0 6235.77832531 0 192.08490542 0 1207.42594915 0 13453
0.11250000 0.11250000 15177.83213815 0 436.36475003 0 6173.34148566 0 -95.05391555 0 1294.36584362 0 13668
0.11350000 0.11349100 15150.70494235 0 138.20586562 0 6597.67726201 0 17.60953611 0 1672.89541220 0 13791
0.11450000 0.11448600 14992.70286718 0 13.93186343 0 6326.07313421 0 315.77827490 0 2700.80575906 0 14205
0.11550000 0.11549300 15270.17532714 0 -17.60233910 0 6557.42936130 0 1136.80666146 0 3486.88545956 0 14776
0.11650000 0.11649800 15116.93435165 0 48.03152362 0 6468.89505205 0 933.74797491 0 3254.23377047 0 14553
0.11750000 0.11747300 15102.31888289 0 359.39769852 0 5904.81546416 0 810.80863075 0 2979.16400500 0 14568
0.11850000 0.11849100 14584.57697437 0 340.49170389 0 5969.58856435 0 -94.61567293 0 3010.78656469 0 16015
0.11950000 0.11950300 14282.08106032 0 471.08977513 0 5970.71794148 0 -313.42983480 0 2763.08758617 0 15270
0.12050000 0.12050700 13912.37613463 0 196.86814974 0 5531.17986315 0 25.81014277 0 1942.58402781 0 15999
0.12150000 0.12150000 13718.61045030 0 -45.79148158 0 5112.90064848 0 477.72874109 0 1719.68705688 0 15670
0.12250000 0.12250700 13862.32922645 0 -167.42794528 0 4720.67461411 0 466.62541376 0 83.59339502 0 16887
0.12350000 0.12352200 13936.29235624 0 52.56087953 0 4507.72059087 0 115.61500129 0 -242.21928497 0 16407
0.12450000 0.12449800 13821.91524086 0 443.84189098 0 4166.02864696 0 -258.72258511 0 -1.28054758 0 16306
0.12550000 0.12549900 13304.72694858 0 374.77826493 0 4297.98861415 0 -186.17117673 0 470.80853808 0 17523
0.12650000 0.12650100 13329.63967942 0 188.53843978 0 4598.81260715 0 203.33770913 0 59.99029876 0 17154
0.12750000 0.12750600 13275.16384132 0 -77.08940070 0 4614.49101909 0 466.51469051 0 686.77866260 0 18007
0.12850000 0.12850300 13212.93737584 0 -115.60725066 0 4674.04905429 0 539.19010893 0 1165.35111484 0 17496
0.12950000 0.12949900 13371.05017425 0 80.47509618 0 4747.49178482 0 363.61293258 0 1160.56787052 0 18405
0.13050000 0.13049000 13274.61022508 0 363.47342129 0 4565.52919875 0 331.88740028 0 1758.19660260 0 18100
0.13150000 0.13148800 13131.55578842 0 327.52047537 0 4674.06012662 0 -82.90613582 0 2040.10906481 0 19059
0.13250000 0.13249300 12612.48520092 0 263.43164485 0 4532.97656378 0 132.81142897 0 2105.87867423 0 18957
0.13350000 0.13349100 12749.11768918 0 48.93148218 0 4709.20368559 0 134.41248714 0 1571.91580985 0 19468
0.13450000 0.13450700 12594.65875796 0 106.18016259 0 4676.30780856 0 -118.75732707 0 1122.04725247 0 19953
0.13550000 0.13551000 12302.34938275 0 325.16207018 0 4766.40331561 0 -311.86752977 0 826.26891789 0 19956
0.13650000 0.13649900 12234.25458512 0 126.40941076 0 4501.38722107 0 -34.14372804 0 521.64490302 0 19723
0.13750000 0.13749600 12003.50733589 0 39.75440720 0 4481.46810872 0 111.06427579 0 409.10357910 0 20946
0.13850000 0.13851100 12058.86895999 0 42.83328856 0 4286.79449376 0 370.25522024 0 -655.05202306 0 20955
0.13950000 0.13949800 11840.74416106 0 152.20460589 0 4057.51986374 0 203.03875636 0 -712.30480023 0 20506
0.14050000 0.14048300 11619.18694144 0 345.94260940 0 3745.13636363 0 340.63896581 0 -975.61022058 0 21447
0.14150000 0.14148400 11407.70553740 0 263.94761519 0 3306.81624104 0 184.62658742 0 -371.18197383 0 21771
0.14250000 0.14249400 11186.92338052 0 156.63685751 0 3490.41753118 0 365.24831496 0 -886.38167657 0 22470
0.14350000 0.14350900 11201.31740278 0 191.57779294 0 3379.05208815 0 29.32859543 0 -577.61218328 0 22519
0.14450000 0.14449900 10880.79574393 0 250.96199264 0 3353.38643922 0 290.56769852 0 -117.22602455 0 22218
0.14550000 0.14550500 10748.32644980 0 193.14563414 0 3010.28831007 0 222.34114022 0 331.84200374 0 23559
0.14650000 0.14650700 10651.76470506 0 -114.76907568 0 2905.24516451 0 586.08804793 0 256.71406539 0 23044
0.14750000 0.14750500 10861.86206849 0 -63.63176495 0 2921.98651964 0 516.54609744 0 -86.89748747 0 23649
0.14850000 0.14849900 10747.67318264 0 39.39466737 0 2833.19754692 0 225.39267294 0 -8.37395497 0 23640
0.14950000 0.14949500 10559.68725187 0 239.97603196 0 2667.20125324 0 -187.99589586 0 168.62264913 0 24457
0.15050000 0.15050000 10455.19772255 0 267.76313832 0 2756.69885475 0 -149.08110306 0 548.52740045 0 24591
0.15150000 0.15149900 10412.41425945 0 70.00654524 0 2885.13782264 0 -169.01018050 0 300.99450680 0 25020
0.15250000 0.15250500 10117.54717721 0 229.62672995 0 3017.46317655 0 -63.21865651 0 210.22580240 0 25297
0.15350000 0.15350100 10096.26616891 0 252.04597324 0 3355.16908352 0 -151.59784249 0 330.11250661 0 25452
0.15450000 0.15450400 9838.84568920 0 257.20014044 0 3447.58977878 0 -212.69714530 0 654.04776320 0 26061
0.15550000 0.15549900 9822.14862337 0 104.40870134 0 3333.42303758 0 275.52594525 0 523.04001595 0 26128
0.15650000 0.15649500 9617.46562678 0 32.66679064 0 3374.40171173 0 -104.32543746 0 344.16660850 0 26331
0.15750000 0.15749700 9607.45624514 0 154.08800834 0 3458.15277666 0 97.11513954 0 176.72426920 0 27345
0.15850000 0.15849900 9545.71696195 0 191.87896018 0 3548.69117670 0 -150.10529310 0 225.70159080 0 26980
0.15950000 0.15949700 9433.14463552 0 178.94427032 0 3360.92669243 0 201.11217184 0 164.09738997 0 27777
0.16050000 0.16050000 9172.42460301 0 42.39980704 0 3148.57057473 0 203.87250242 0 372.62137605 0 28224
0.16150000 0.16150500 9269.56210865 0 28.37294307 0 2971.31372671 0 536.02231680 0 -17.02115277 0 28075
0.16250000 0.16249700 9173.68684804 0 83.87374629 0 2641.83455708 0 366.39983674 0 -40.94291054 0 28590
0.16350000 0.16349900 9162.10519628 0 102.14275007 0 2625.74646912 0 127.25533637 0 -217.62543708 0 29163
0.16450000 0.16449100 8878.04470306 0 252.61176904 0 2461.89820645 0 -30.84306801 0 -25.23294248 0 28996
0.16550000 0.16550500 8776.73293097 0 193.73136012 0 2511.97833161 0 -18.75673969 0 -77.50870964 0 30777
0.16650000 0.16650700 8456.01197027 0 72.45784723 0 2376.03232748 0 164.08742488 0 -7.53210397 0 29211
0.16750000 0.16749900 8598.57922464 0 0.31339330 0 2507.58261865 0 322.97971496 0 -171.61439129 0 30922
0.16850000 0.16850800 8586.54360756 0 51.10497954 0 2418.60541641 0 350.21099062 0 -156.71989995 0 30867
0.16950000 0.16949900 8439.44777235 0 131.24358777 0 2279.12734067 0 75.92913178 0 179.64514849 0 30852
0.17050000 0.17049200 8382.10420211 0 112.33537868 0 2105.12575615 0 -114.74471656 0 257.70614569 0 31257
0.17150000 0.17149500 8408.45633518 0 67.08345149 0 2263.99147264 0 199.57090423 0 541.78656910 0 32608
0.17250000 0.17250900 8251.65007110 0 102.75571397 0 2247.81480608 0 61.75733108 0 315.88014029 0 32361
0.17350000 0.17350400 8292.66196222 0 225.43696224 0 2200.83493188 0 -15.85025442 0 447.38614216 0 32508
0.17450000 0.17449800 7974.97481853 0 246.24739673 0 2350.32238925 0 -102.27982545 0 358.94041151 0 32791
0.17550000 0.17549800 7839.94781736 0 258.01063462 0 2236.79784289 0 -301.20709544 0 444.81404110 0 33633
0.17650000 0.17650100 7841.73046166 0 25.12631599 0 2565.76768558 0 -12.48758938 0 304.87867835 0 33984
0.17750000 0.17750300 7681.33676434 0 5.36443065 0 2666.86908349 0 148.28168120 0 497.91801816 0 34069
0.17850000 0.17849800 7804.80425839 0 50.15021297 0 2562.99960437 0 169.86717844 0 251.94964402 0 34536
