### header ###
fiducial parameters:
Omega_m = 0.31
Omega_nu = 0
Omega_de = 0.69
Omega_k = 0
H_0 = 100
w_de = -1
zeff = 0
beta = 0
fgrowth = 0
b_1 = 2
gamma = 0.55
Lx = 3500 Ly = 3500 Lz = 3500
nx = 700 ny = 700 nz = 700
xoffset = -685.467585 yoffset = -31.7331281 zoffset = 572.489161
bins = 400 dk = 0.001
kx_ny = 0.628318531 ky_ny = 0.628318531 kz_ny = 0.628318531
############################
A(data) = 8.03025637 (not used)
A(ran) = 8.02399362 (used)
Ngal = 476606
weighted Ngal = 0
Nran = 23820508
weighted Nran = 0
SN(data) = 3497.30478
SN(ran) = 69.8918945
SN(data+ran) = 3567.19668
############################
13 columns: k_central k_mean P_0(k) sigma^{lin}_{P_0(k)} P^img_1(k) sigma^{lin}_{P_1(k)} P_2(k) sigma^{lin}_{P_2(k)} P^img_3(k) sigma^{lin}_{P_3(k)} P_4(k) sigma^{lin}_{P_4(k)} N_modes
### header ###
0.00050000 0 0 0 0 0 0 0 0 0 0 0 0
0.00150000 0.00179520 54851.07919584 0 -71924.93623594 0 -32399.61543783 0 -28576.89529419 0 44130.85430643 0 3
0.00250000 0.00253879 79770.12126294 0 -52211.32623583 0 -5436.09073761 0 -124497.22026086 0 -41595.29192296 0 6
0.00350000 0.00331552 98488.21853861 0 -6239.08895043 0 -24834.44950549 0 2853.18309322 0 -10764.50311636 0 7
0.00450000 0.00420575 103332.13920027 0 15111.06601950 0 7584.56464542 0 -41284.04887231 0 72312.02471160 0 24
0.00550000 0.00557378 76133.52689951 0 26925.79021723 0 41609.68594522 0 -6467.22313100 0 41016.32005819 0 45
0.00650000 0.00659388 73985.16371495 0 11473.80731657 0 66731.46227975 0 42624.90740785 0 63108.37615260 0 40
0.00750000 0.00754703 69754.98201798 0 975.68440516 0 83340.28167747 0 53436.81114676 0 19569.89122396 0 57
0.00850000 0.00846663 73702.70870882 0 973.62605998 0 78715.26087747 0 60985.14714537 0 66350.68502924 0 75
0.00950000 0.00948925 76106.51042695 0 -6093.89755509 0 84276.33601764 0 49762.34943244 0 80199.61674266 0 112
0.01050000 0.01054430 90889.72490857 0 -1373.23401331 0 92111.66667555 0 60896.78999332 0 60938.97555088 0 105
0.01150000 0.01145670 99347.32022129 0 -10093.03305006 0 87567.69529323 0 49263.09830637 0 74330.39880279 0 144
0.01250000 0.01249090 105096.51416012 0 -7246.50442406 0 84945.32588318 0 24231.00780287 0 48717.89703230 0 169
0.01350000 0.01339930 117722.06470433 0 5774.73779219 0 84723.65794031 0 -6895.05776199 0 40991.40732735 0 180
0.01450000 0.01448870 106513.43956717 0 15166.09547384 0 81683.30826836 0 1093.63345252 0 16892.93525256 0 267
0.01550000 0.01550050 86646.36714507 0 15983.89738495 0 63249.43757079 0 -12342.20975210 0 20838.22603194 0 238
0.01650000 0.01653350 80652.47482774 0 6221.87148534 0 49442.91286142 0 29011.81621307 0 -14403.87663333 0 315
0.01750000 0.01747870 77824.04945282 0 -6648.42172666 0 34786.91939197 0 37715.32786001 0 -21209.92397610 0 297
0.01850000 0.01844180 85715.62752081 0 -6651.04586764 0 24257.91355218 0 26027.49250470 0 -43292.56859441 0 388
0.01950000 0.01947590 82860.51784308 0 -812.41301062 0 2327.39160455 0 23125.76833947 0 -22316.04922549 0 399
0.02050000 0.02045430 73780.32570580 0 6549.74516787 0 -2510.31748288 0 3417.21839180 0 -8875.61986393 0 462
0.02150000 0.02154770 72692.80196211 0 5781.37011476 0 1549.11789305 0 4069.52226385 0 5288.49664778 0 571
0.02250000 0.02255340 72081.60963212 0 2676.12554704 0 16627.86379640 0 7101.82235565 0 17636.66331063 0 510
0.02350000 0.02348930 63460.58680508 0 3980.99902692 0 13295.75836548 0 -8217.24835788 0 21138.95037401 0 555
0.02450000 0.02439640 67457.80678786 0 1240.51005571 0 14902.79558966 0 6645.70900707 0 24325.78690332 0 592
0.02550000 0.02547300 68401.72247865 0 -3143.46623299 0 15632.57251845 0 2245.75535367 0 20656.30773517 0 837
0.02650000 0.02652900 68870.41398822 0 -3864.62889308 0 10332.29491707 0 3762.40919035 0 13416.33598275 0 723
0.02750000 0.02749970 76966.49789562 0 -2460.01591123 0 9904.80352814 0 -926.02281388 0 -1976.78643917 0 826
0.02850000 0.02848090 71923.71828021 0 1773.46533853 0 5245.61353376 0 -5016.29461444 0 -552.08050948 0 831
0.02950000 0.02946900 68637.12010429 0 5411.74269534 0 7219.78690427 0 -5781.22617453 0 -13947.91829730 0 996
0.03050000 0.03053250 64420.22519711 0 6065.41953565 0 10159.00196133 0 -7415.50131777 0 -6645.59828383 0 1041
0.03150000 0.03150510 59135.84745416 0 8123.31075412 0 14168.25756119 0 -1338.83230010 0 -5662.38691226 0 1036
0.03250000 0.03246190 54576.04264735 0 4345.09028393 0 17515.08918412 0 486.17913939 0 -7862.66822789 0 1059
0.03350000 0.03345080 51757.91453451 0 1693.77781681 0 22506.82538211 0 4512.72528169 0 4170.52401084 0 1302
0.03450000 0.03451200 50278.98410848 0 1473.17281712 0 23888.76224273 0 4172.73847580 0 -3907.20198200 0 1339
0.03550000 0.03553350 49292.10779739 0 548.71784443 0 21563.46330756 0 3834.70039909 0 10107.12811956 0 1365
0.03650000 0.03647120 49521.52636764 0 -1614.57747738 0 20975.63358294 0 5194.08293405 0 1305.57103634 0 1308
0.03750000 0.03744890 51349.56719520 0 1559.04976841 0 19323.64272000 0 -1329.90800629 0 1840.07644464 0 1579
0.03850000 0.03847530 49279.92824009 0 1286.77022880 0 15404.03973420 0 25.15565765 0 -3266.94479937 0 1662
0.03950000 0.03950240 46893.28862543 0 1134.24895442 0 10279.43563838 0 931.83024825 0 -1394.02783932 0 1683
0.04050000 0.04050350 47504.70240192 0 -1581.10583945 0 11200.32089355 0 3392.91463883 0 -9449.63132717 0 1822
0.04150000 0.04152450 47406.60160403 0 -984.35071379 0 10005.97136001 0 1255.01480122 0 -12985.73327056 0 1887
0.04250000 0.04250150 46099.84582893 0 3357.35033151 0 8031.02292676 0 1952.47161387 0 -8447.43091854 0 1920
0.04350000 0.04349210 43752.18079763 0 3467.08814279 0 9966.73104085 0 -1281.47765754 0 -9460.41577155 0 2005
0.04450000 0.04448520 40929.07013862 0 2095.31567636 0 10913.61411470 0 -520.60189002 0 -1650.82826884 0 2151
0.04550000 0.04548030 39812.75835041 0 1632.89110263 0 11576.77993738 0 -17.79665840 0 -3308.11170304 0 2274
0.04650000 0.04648670 40470.12227489 0 212.04166367 0 13842.39904178 0 1801.30116312 0 1501.57333028 0 2311
0.04750000 0.04749250 38684.37772814 0 587.94598403 0 15372.92650146 0 2296.63268621 0 4757.10256276 0 2568
0.04850000 0.04851840 38829.53590651 0 1217.36889684 0 14644.03535865 0 200.57073516 0 3716.87979070 0 2493
0.04950000 0.04949480 37863.25411959 0 693.71879579 0 14837.69031972 0 -1513.81932153 0 4530.15312095 0 2644
0.05050000 0.05050630 37235.45330237 0 -138.65872370 0 14028.85699172 0 -145.56010376 0 3609.54467390 0 2829
0.05150000 0.05149060 37313.95608533 0 797.41333218 0 16192.16781479 0 457.11760844 0 2578.34584657 0 2784
0.05250000 0.05249300 38297.39997573 0 112.85799241 0 14497.54850129 0 394.11497299 0 -224.69068754 0 3055
0.05350000 0.05348950 36735.42711356 0 1291.65312404 0 14495.88765257 0 1046.12653566 0 1138.47858250 0 3009
0.05450000 0.05448610 36272.93610589 0 1399.48649545 0 12676.81540812 0 -724.76670182 0 -138.17264864 0 3336
0.05550000 0.05550870 35110.78489292 0 531.03755616 0 13000.34873932 0 2675.76016032 0 1330.17374209 0 3349
0.05650000 0.05647670 34893.65660323 0 -74.93118315 0 13667.78847939 0 1720.52855357 0 1115.55887013 0 3324
0.05750000 0.05747970 34751.82012230 0 769.96282449 0 12826.73468616 0 1357.97634971 0 -42.70817129 0 3639
0.05850000 0.05849280 33630.85795766 0 1378.24977645 0 14913.20357499 0 546.33729460 0 1946.21575035 0 3846
0.05950000 0.05951020 32050.06214330 0 1489.62629180 0 12607.17048501 0 -974.68235976 0 1721.99010045 0 3787
0.06050000 0.06049470 31345.86228484 0 1240.78686383 0 12479.17441010 0 430.36354998 0 2790.77947054 0 3930
0.06150000 0.06148310 30196.99786165 0 908.13436591 0 13341.70851348 0 -676.12154996 0 896.78191127 0 4083
0.06250000 0.06249100 29814.22759267 0 526.15576815 0 13929.98113109 0 667.41759542 0 1078.79321557 0 4303
0.06350000 0.06350600 29158.52451691 0 542.66349722 0 13277.93192252 0 -415.80012115 0 -1870.18209582 0 4470
0.06450000 0.06451750 29545.83443907 0 -83.93497624 0 14081.56125786 0 -882.27273683 0 -1495.97073392 0 4479
0.06550000 0.06550280 29781.34278796 0 85.00035534 0 14477.83976312 0 413.41846408 0 644.85662637 0 4636
0.06650000 0.06648880 30334.84830565 0 23.31255846 0 14807.68431946 0 1837.36372506 0 -627.72109648 0 4653
0.06750000 0.06749660 29765.73080997 0 650.50351203 0 15376.35892215 0 -129.18856429 0 778.00465401 0 5220
0.06850000 0.06852730 29926.50096633 0 746.90470806 0 15784.15264522 0 801.53334425 0 1239.66855902 0 5029
0.06950000 0.06949320 28659.27339084 0 657.51118640 0 16630.52115436 0 16.23767507 0 1953.08059174 0 5040
0.07050000 0.07048030 28939.73537850 0 858.80383714 0 15622.93959586 0 742.58428691 0 3494.78002716 0 5475
0.07150000 0.07148790 28604.13321324 0 -208.59817065 0 15369.49408076 0 3176.02994028 0 3040.60433542 0 5509
0.07250000 0.07249820 28403.28124103 0 -273.46981453 0 14153.19919943 0 2543.15799830 0 2775.85397668 0 5916
0.07350000 0.07351270 28111.30403556 0 281.16175858 0 12104.26549174 0 2917.49115576 0 857.82061470 0 5721
0.07450000 0.07449140 27563.99901978 0 500.69938616 0 11809.07731208 0 1569.83421279 0 505.58449587 0 6028
0.07550000 0.07549160 26591.40600771 0 1232.17259512 0 9753.85452389 0 -353.16508688 0 -460.49134581 0 6183
0.07650000 0.07648840 26087.06161222 0 411.43319624 0 9900.68462331 0 -768.35401570 0 886.47911303 0 6330
0.07750000 0.07749960 26211.40381993 0 704.63942976 0 10490.97240404 0 -1528.08047590 0 -185.46697687 0 6583
0.07850000 0.07848650 25336.24726627 0 734.27893607 0 10045.16738987 0 401.44263755 0 -676.54340553 0 6549
0.07950000 0.07947320 24876.74578629 0 334.85589056 0 10659.86964683 0 189.85826090 0 -1112.33682361 0 6828
0.08050000 0.08048110 25088.55936007 0 415.15349738 0 10771.68905517 0 964.35298794 0 -1537.86841104 0 7147
0.08150000 0.08149960 23839.26895079 0 -199.39263980 0 10042.45467029 0 1399.67472497 0 -2142.97096238 0 7386
0.08250000 0.08250610 24011.77577146 0 424.64358698 0 9509.13400075 0 1229.39344159 0 -600.04471336 0 7227
0.08350000 0.08350160 23731.64595355 0 457.85502527 0 9250.01945534 0 1737.86781424 0 -1483.09362016 0 7798
0.08450000 0.08449610 23111.59576371 0 690.92635547 0 9312.95454961 0 842.64931523 0 458.28906041 0 7371
0.08550000 0.08548940 22588.64986252 0 570.42513724 0 8490.03722444 0 316.34849963 0 -66.21648845 0 8256
0.08650000 0.08650700 21963.28495676 0 829.61165276 0 8734.07126344 0 46.60142214 0 1012.67261345 0 8037
0.08750000 0.08749060 21499.46527011 0 445.97442074 0 8347.42568078 0 255.04325157 0 833.12933035 0 8155
0.08850000 0.08849210 21302.26716509 0 95.79155383 0 8753.52533815 0 108.99995155 0 305.37914743 0 8718
0.08950000 0.08949900 20904.99215060 0 269.95545864 0 8745.12144361 0 393.72411992 0 -63.45372196 0 8571
0.09050000 0.09049190 20253.93945126 0 754.41949491 0 8010.25124540 0 -66.41545813 0 -1225.36311535 0 8932
0.09150000 0.09150830 19888.10983925 0 671.41027575 0 7882.75342511 0 202.22161879 0 -152.36626183 0 9285
0.09250000 0.09250820 19413.88216727 0 79.00347349 0 7792.13751880 0 303.65629369 0 -102.66791043 0 9204
0.09350000 0.09350330 19122.79074779 0 616.33099594 0 7701.55482946 0 199.68494917 0 -1425.77219457 0 9349
0.09450000 0.09448040 18738.24890684 0 691.23859503 0 7770.76793190 0 -74.36981628 0 -1324.54900108 0 9564
0.09550000 0.09549270 18097.49346958 0 674.40533961 0 7421.69074734 0 -500.20888217 0 -870.98339444 0 10155
0.09650000 0.09649430 17829.76465547 0 376.17669955 0 8130.09808924 0 -61.99394666 0 -3.35199133 0 9913
0.09750000 0.09749140 17796.43695776 0 -270.92760875 0 6711.87722019 0 1441.47275117 0 -779.68764738 0 10476
0.09850000 0.09850240 17750.48680976 0 -538.47483674 0 6694.88120159 0 1078.48097601 0 -1855.24552964 0 10575
0.09950000 0.09950330 18522.22784962 0 -227.84962182 0 5681.55310652 0 1183.22184710 0 -1914.22780395 0 10882
0.10050000 0.10051200 17998.83905545 0 159.50126794 0 5495.47161561 0 490.47298696 0 -1906.49932122 0 10875
0.10150000 0.10150300 18013.23307771 0 575.78857138 0 4933.00858715 0 317.81890436 0 -922.34680204 0 11118
0.10250000 0.10250800 17407.46618688 0 263.82028345 0 5010.29341439 0 528.23625798 0 -765.41984962 0 11575
0.10350000 0.10349800 17095.55879674 0 519.93644330 0 4629.09541553 0 761.25665549 0 832.03317019 0 11364
0.10450000 0.10450100 16920.28389486 0 -82.95884009 0 5021.29930526 0 895.01366100 0 903.73754572 0 12093
0.10550000 0.10551000 16946.85747443 0 291.82330015 0 5263.35139812 0 57.26838915 0 608.08986458 0 12067
0.10650000 0.10649700 16825.06190142 0 361.09397868 0 5533.30574952 0 -214.91382473 0 682.36634116 0 12054
0.10750000 0.10749900 16549.47173669 0 359.43977336 0 5966.05649273 0 -567.72902615 0 1516.27737764 0 12807
0.10850000 0.10850100 16068.26850007 0 698.40903259 0 6450.34890797 0 -1018.64170376 0 1859.38657912 0 12736
0.10950000 0.10950300 16105.13934171 0 296.89885385 0 7016.01183831 0 -410.01150973 0 1368.25146714 0 12933
0.11050000 0.11050200 15639.43735984 0 210.51036115 0 6913.24959167 0 140.70046040 0 910.43740947 0 13428
0.11150000 0.11150900 15857.67288202 0 -13.69879099 0 7076.36708090 0 125.52583924 0 377.87962311 0 13453
0.11250000 0.11250000 15643.75556652 0 278.75242070 0 6851.43280221 0 41.04344725 0 621.70439517 0 13668
0.11350000 0.11349100 15422.08762365 0 137.04659321 0 6435.86630711 0 497.21603277 0 550.28457839 0 13791
0.11450000 0.11448600 15488.52157256 0 -116.27601908 0 5897.57416373 0 920.05261634 0 892.51242282 0 14205
0.11550000 0.11549300 15266.30001345 0 80.67262646 0 5504.73915149 0 975.63790140 0 -108.09733563 0 14776
0.11650000 0.11649800 15071.86998964 0 381.93763015 0 5325.19033223 0 613.71017665 0 315.05525209 0 14553
0.11750000 0.11747300 14709.58352157 0 451.04665274 0 5257.74880176 0 253.81533075 0 525.70069560 0 14568
0.11850000 0.11849100 14235.57729609 0 278.65166255 0 5016.20603584 0 434.94859969 0 964.03631945 0 16015
0.11950000 0.11950300 14310.31548861 0 -78.50854057 0 4703.20248554 0 457.05671065 0 1142.07708807 0 15270
0.12050000 0.12050700 14191.73088980 0 243.88234815 0 4888.73036020 0 379.20719485 0 1242.14875978 0 15999
0.12150000 0.12150000 14031.07145668 0 405.42424556 0 5226.46948415 0 -3.86863707 0 1551.74203403 0 15670
0.12250000 0.12250700 13559.83331240 0 462.83424974 0 5280.95639458 0 7.64860697 0 1441.19594304 0 16887
0.12350000 0.12352200 13335.39728833 0 332.30704139 0 5452.67708019 0 -113.35292533 0 1628.03035203 0 16407
0.12450000 0.12449800 13222.57029843 0 -15.97005698 0 5439.32385646 0 -218.27759701 0 1249.79973623 0 16306
0.12550000 0.12549900 13198.98624656 0 -70.97991331 0 5539.48410677 0 -196.70870826 0 1168.20777464 0 17523
0.12650000 0.12650100 13513.44027141 0 34.43349078 0 5750.66655803 0 -40.15245728 0 644.91198799 0 17154
0.12750000 0.12750600 13166.10144185 0 156.93248858 0 5517.84878407 0 -225.48457323 0 216.70643412 0 18007
0.12850000 0.12850300 13217.14485927 0 314.25250854 0 5251.36007034 0 -162.33578310 0 228.79187666 0 17496
0.12950000 0.12949900 12743.24935703 0 301.47393846 0 5377.63993489 0 116.29594927 0 -302.87901648 0 18405
0.13050000 0.13049000 12788.53516554 0 140.80786195 0 5203.54977177 0 595.56152904 0 -360.01221255 0 18100
0.13150000 0.13148800 12302.90299899 0 237.44822020 0 5032.81452307 0 733.90136979 0 -183.85484638 0 19059
0.13250000 0.13249300 12377.97336126 0 47.63402716 0 4645.59317951 0 715.00866195 0 157.58243405 0 18957
0.13350000 0.13349100 12164.27749226 0 -28.75261309 0 4080.68316726 0 607.29819335 0 8.08419223 0 19468
0.13450000 0.13450700 12418.27662360 0 30.36928324 0 4029.39615870 0 527.75129016 0 256.76942701 0 19953
0.13550000 0.13551000 12095.96124813 0 87.12136988 0 3874.80435958 0 134.98492633 0 798.35115810 0 19956
0.13650000 0.13649900 12180.44308650 0 258.34723330 0 3916.72418135 0 190.44066518 0 908.56065041 0 19723
0.13750000 0.13749600 11837.86535661 0 182.06998762 0 3894.26950662 0 306.47087866 0 1443.07823826 0 20946
0.13850000 0.13851100 11672.77699356 0 303.77698203 0 3595.77070183 0 414.65634999 0 1264.13839687 0 20955
0.13950000 0.13949800 11490.30508055 0 128.52533203 0 3426.58557860 0 427.75048132 0 1379.63381705 0 20506
0.14050000 0.14048300 11508.35297000 0 -128.49875845 0 3248.97441619 0 409.12904544 0 1065.23847552 0 21447
0.14150000 0.14148400 11287.34936662 0 28.50005336 0 2861.29910731 0 357.65491459 0 1198.88918671 0 21771
0.14250000 0.14249400 11393.42223839 0 212.14463629 0 2767.25078030 0 -247.79087881 0 472.47713743 0 22470
0.14350000 0.14350900 11030.51572013 0 300.83285086 0 2803.98875405 0 -313.65903193 0 435.89860516 0 22519
0.14450000 0.14449900 10746.10091251 0 452.68757128 0 3064.59806330 0 -342.09940546 0 -182.37447655 0 22218
0.14550000 0.14550500 10470.04571014 0 310.39712504 0 2803.21369131 0 -282.55908598 0 -222.08426228 0 23559
0.14650000 0.14650700 10343.68833931 0 217.54239464 0 3370.68141059 0 -98.10511610 0 -316.73270930 0 23044
0.14750000 0.14750500 10178.07957699 0 178.23896323 0 3159.80898442 0 -275.93451404 0 -523.34561211 0 23649
0.14850000 0.14849900 10095.03714085 0 92.11520982 0 3456.21511982 0 238.78132811 0 35.34219648 0 23640
0.14950000 0.14949500 9992.69564255 0 105.22927133 0 3321.32098655 0 281.05324980 0 23.37301335 0 24457
0.15050000 0.15050000 9920.95805005 0 65.82441743 0 3151.13935409 0 608.94354082 0 215.42758060 0 24591
0.15150000 0.15149900 10034.69297059 0 34.59791481 0 3012.31454551 0 141.71468535 0 283.25996414 0 25020
0.15250000 0.15250500 9880.63264307 0 -4.95765558 0 3190.31323930 0 167.44123207 0 513.75587159 0 25297
0.15350000 0.15350100 9924.94408699 0 57.30891386 0 3126.93525203 0 76.05701714 0 704.18767891 0 25452
0.15450000 0.15450400 9712.77619881 0 210.44392720 0 2902.84247003 0 118.16385046 0 636.48705604 0 26061
0.15550000 0.15549900 9732.82817906 0 181.67913455 0 2934.69754853 0 1.15998104 0 463.90494355 0 26128
0.15650000 0.15649500 9449.81955670 0 206.34938148 0 2777.24908961 0 -46.46744701 0 132.09062062 0 26331
0.15750000 0.15749700 9381.00505795 0 171.94545381 0 2921.39968643 0 -116.33138071 0 123.82513014 0 27345
0.15850000 0.15849900 9138.36613187 0 109.27222002 0 2719.93873635 0 7.13653409 0 223.33100606 0 26980
0.15950000 0.15949700 9171.16235799 0 18.84421106 0 2758.17147395 0 252.53204830 0 -78.85189337 0 27777
0.16050000 0.16050000 9077.56799629 0 0.94154400 0 2630.07574812 0 294.68881782 0 32.98013743 0 28224
0.16150000 0.16150500 9174.89373145 0 135.58393910 0 2726.84786704 0 61.69311159 0 -259.09018629 0 28075
0.16250000 0.16249700 8866.51841293 0 342.47807897 0 2692.91119147 0 -74.42993900 0 178.35190095 0 28590
0.16350000 0.16349900 8688.02146452 0 305.93497813 0 2918.45444802 0 -385.01020029 0 23.33647468 0 29163
0.16450000 0.16449100 8640.01186411 0 59.98133018 0 2824.20681917 0 -115.13999856 0 135.04914581 0 28996
0.16550000 0.16550500 8517.75125346 0 27.96337778 0 3230.31754887 0 -66.04542103 0 -63.20581261 0 30777
0.16650000 0.16650700 8638.50602793 0 110.13420051 0 2992.27363759 0 -48.69486660 0 -57.22155322 0 29211
0.16750000 0.16749900 8511.65040249 0 97.85155986 0 2998.34127159 0 317.28078938 0 -53.90107373 0 30922
0.16850000 0.16850800 8419.14112863 0 40.58516373 0 2820.94048335 0 342.48029343 0 123.58264623 0 30867
0.16950000 0.16949900 8401.15967312 0 140.56427081 0 2681.61742015 0 356.70933805 0 -13.05017420 0 30852
0.17050000 0.17049200 8202.18999613 0 134.44681134 0 2595.49687771 0 363.53653354 0 207.54851426 0 31257
0.17150000 0.17149500 8002.26809921 0 252.25856188 0 2501.28246583 0 230.18366789 0 468.22425747 0 32608
0.17250000 0.17250900 7883.96030852 0 91.49150576 0 2460.72454002 0 229.86589217 0 385.06556192 0 32361
0.17350000 0.17350400 7795.33742067 0 84.33424428 0 2254.74608142 0 310.91088091 0 880.98170375 0 32508
0.17450000 0.17449800 7860.81914965 0 -56.01289824 0 2212.80411501 0 243.77273214 0 616.84475181 0 32791
0.17550000 0.17549800 7888.43352775 0 -35.50352025 0 2140.36896604 0 223.03094605 0 1029.88343515 0 33633
0.17650000 0.17650100 7925.42616496 0 -39.31771471 0 2116.78491418 0 -53.89121936 0 635.48501064 0 33984
0.17750000 0.17750300 8020.38242261 0 73.66019098 0 2167.59581277 0 -172.61090053 0 811.45968345 0 34069
0.17850000 0.17849800 7989.93352936 0 144.65438759 0 2495.39198903 0 -359.55824723 0 759.64784669 0 34536
