### header ###
fiducial parameters:
Omega_m = 0.31
Omega_nu = 0
Omega_de = 0.69
Omega_k = 0
H_0 = 100
w_de = -1
zeff = 0
beta = 0
fgrowth = 0
b_1 = 2
gamma = 0.55
Lx = 3500 Ly = 3500 Lz = 3500
nx = 700 ny = 700 nz = 700
xoffset = -685.467585 yoffset = -31.7331281 zoffset = 572.489161
bins = 400 dk = 0.001
kx_ny = 0.628318531 ky_ny = 0.628318531 kz_ny = 0.628318531
############################
A(data) = 8.01463321 (not used)
A(ran) = 8.0131031 (used)
Ngal = 476188
weighted Ngal = 0
Nran = 23820508
weighted Nran = 0
SN(data) = 3487.46442
SN(ran) = 69.7970341
SN(data+ran) = 3557.26145
############################
13 columns: k_central k_mean P_0(k) sigma^{lin}_{P_0(k)} P^img_1(k) sigma^{lin}_{P_1(k)} P_2(k) sigma^{lin}_{P_2(k)} P^img_3(k) sigma^{lin}_{P_3(k)} P_4(k) sigma^{lin}_{P_4(k)} N_modes
### header ###
0.00050000 0 0 0 0 0 0 0 0 0 0 0 0
0.00150000 0.00179520 51656.82420891 0 -25177.80229811 0 47210.62145474 0 21143.04713420 0 -219215.42292197 0 3
0.00250000 0.00253879 106148.27429465 0 -34207.94752721 0 18258.70651894 0 29323.83432645 0 128028.18464553 0 6
0.00350000 0.00331552 91538.00952670 0 4872.29903017 0 21833.62803314 0 -11338.17133754 0 149249.40239294 0 7
0.00450000 0.00420575 88263.14801509 0 29677.70582766 0 12046.02506320 0 -32949.90998131 0 10824.91372057 0 24
0.00550000 0.00557378 78172.38479161 0 -1168.10812372 0 31356.93460965 0 14040.81510253 0 -29085.00428012 0 45
0.00650000 0.00659388 59121.23198540 0 7539.21240297 0 38341.02493551 0 -1982.38903553 0 -13318.12446161 0 40
0.00750000 0.00754703 66756.15356410 0 14137.69794469 0 44232.27680177 0 16470.41533748 0 -1396.85128215 0 57
0.00850000 0.00846663 62296.44257365 0 8373.85532012 0 53948.79544637 0 3548.87940622 0 -5693.50014500 0 75
0.00950000 0.00948925 58812.97846245 0 2653.15047304 0 44538.20513651 0 31338.00093421 0 26301.08965096 0 112
0.01050000 0.01054430 67639.28219164 0 -9770.60695134 0 22333.76494520 0 30040.98880496 0 -22411.16049568 0 105
0.01150000 0.01145670 71813.21647852 0 -8181.03078340 0 44336.79954806 0 247.89163697 0 -7461.67291226 0 144
0.01250000 0.01249090 76815.36066184 0 3725.74872288 0 28307.94852434 0 4567.03503492 0 -4320.46543354 0 169
0.01350000 0.01339930 74986.65549479 0 892.08060215 0 41307.19003118 0 -10978.35399791 0 -1961.72807742 0 180
0.01450000 0.01448870 80705.84343337 0 3366.91682015 0 47412.13776644 0 3695.94202446 0 -4529.53307076 0 267
0.01550000 0.01550050 72805.51822877 0 1430.37828170 0 59918.32864910 0 5470.41494455 0 21675.51523473 0 238
0.01650000 0.01653350 77268.66163992 0 1816.16022303 0 51234.30429383 0 15439.02828062 0 -12497.00085306 0 315
0.01750000 0.01747870 77246.29554378 0 -4815.03296621 0 54757.51805113 0 4632.62748715 0 -7101.78913868 0 297
0.01850000 0.01844180 74070.42061605 0 2555.85795486 0 37316.17055030 0 7366.07445978 0 -27101.72945860 0 388
0.01950000 0.01947590 77616.00046948 0 493.08273392 0 55975.47378118 0 -9391.67877907 0 -4048.47377437 0 399
0.02050000 0.02045430 72550.19041845 0 5006.35166675 0 49154.25735340 0 2764.26125260 0 -4537.67122950 0 462
0.02150000 0.02154770 70671.88123621 0 2587.76839499 0 36199.96948533 0 12310.43217987 0 -284.76247862 0 571
0.02250000 0.02255340 68177.50790107 0 2321.03609011 0 36588.05447022 0 9014.53325110 0 -5139.04240738 0 510
0.02350000 0.02348930 71448.16192925 0 -5139.92819336 0 31879.99123409 0 10868.01828109 0 -106.37614274 0 555
0.02450000 0.02439640 69893.49680146 0 -484.59136801 0 25665.53820637 0 11816.71721620 0 1968.75900368 0 592
0.02550000 0.02547300 69567.63828205 0 3755.95402498 0 27305.90312826 0 7300.64809242 0 15837.74269734 0 837
0.02650000 0.02652900 69201.25505380 0 1022.03094239 0 20427.99639741 0 7329.25897975 0 12385.05964915 0 723
0.02750000 0.02749970 70228.65607372 0 -2055.54388561 0 23070.07454564 0 6438.05862743 0 14805.46985450 0 826
0.02850000 0.02848090 70048.73079542 0 585.32737921 0 16187.84960811 0 2695.66820035 0 10875.85748706 0 831
0.02950000 0.02946900 69566.53104957 0 204.31539541 0 17737.53218973 0 -3798.17279951 0 7855.68159093 0 996
0.03050000 0.03053250 70412.89955871 0 3600.03354689 0 20491.55154187 0 -5359.00521222 0 -9167.45312917 0 1041
0.03150000 0.03150510 61531.78782167 0 6547.25389479 0 17134.09048711 0 -3888.81085048 0 -3875.97802602 0 1036
0.03250000 0.03246190 58465.63963289 0 9099.66835663 0 17872.94672226 0 1296.41422372 0 -7401.21801875 0 1059
0.03350000 0.03345080 50733.28159579 0 2950.87421509 0 14323.04866215 0 3976.70296489 0 -5848.66770500 0 1302
0.03450000 0.03451200 47525.40764933 0 2462.21930387 0 16518.46922719 0 9380.88326238 0 -9517.62647389 0 1339
0.03550000 0.03553350 47109.30968265 0 1195.03601768 0 11441.14395836 0 2734.54313279 0 -6404.13302418 0 1365
0.03650000 0.03647120 45783.73095536 0 18.30044918 0 10800.02313438 0 -19.91424053 0 -2227.07634170 0 1308
0.03750000 0.03744890 46905.02528974 0 -1412.97258708 0 15064.56225526 0 -4082.45473923 0 -4302.11859131 0 1579
0.03850000 0.03847530 49717.50651693 0 -1238.57239886 0 17895.64498814 0 -1671.07955093 0 847.86659469 0 1662
0.03950000 0.03950240 50039.04682966 0 13.11151488 0 17473.45724280 0 -2098.21662546 0 -1711.78141696 0 1683
0.04050000 0.04050350 48232.04341926 0 2549.34742787 0 20279.51652159 0 2140.36896604 0 -521.41349143 0 1822
0.04150000 0.04152450 48083.67426669 0 2309.93054832 0 17233.18779424 0 6676.83331214 0 -2840.92602964 0 1887
0.04250000 0.04250150 45024.16947280 0 1529.18770838 0 15424.30208862 0 4832.98120474 0 -2419.72372122 0 1920
0.04350000 0.04349210 43119.95105049 0 531.81704783 0 12867.81301124 0 5339.96081354 0 -4727.94913151 0 2005
0.04450000 0.04448520 42751.02118753 0 1907.30760094 0 13690.70819176 0 -1055.11394171 0 -2494.81622814 0 2151
0.04550000 0.04548030 40239.04285592 0 1828.42835893 0 9770.35228787 0 1892.51497498 0 -1580.02075162 0 2274
0.04650000 0.04648670 40911.57586541 0 -358.26832139 0 11131.67247967 0 -697.42359568 0 2170.47461722 0 2311
0.04750000 0.04749250 40480.75170672 0 -563.39421098 0 11219.36529224 0 1587.50564320 0 -3938.19341917 0 2568
0.04850000 0.04851840 40427.71527083 0 1062.46817986 0 8907.90676310 0 -1099.92031855 0 126.74379497 0 2493
0.04950000 0.04949480 39626.63257021 0 1405.45447853 0 10892.42168499 0 -781.30531404 0 -2448.00243880 0 2644
0.05050000 0.05050630 37313.29174585 0 2004.61119144 0 11358.65513846 0 -894.58405479 0 1426.82406543 0 2829
0.05150000 0.05149060 38597.34925506 0 1172.73635549 0 11251.69648071 0 138.12060872 0 -1403.59432796 0 2784
0.05250000 0.05249300 35058.41279653 0 377.34704428 0 10559.98620464 0 1374.52947531 0 452.16606478 0 3055
0.05350000 0.05348950 36777.72339437 0 -405.89149767 0 12059.64402273 0 482.51973604 0 623.27998699 0 3009
0.05450000 0.05448610 37177.76649007 0 -1477.39137288 0 11092.03355682 0 2256.66159361 0 -850.34900991 0 3336
0.05550000 0.05550870 37266.45581186 0 104.53857971 0 11425.08908737 0 2328.47669239 0 -3858.48375280 0 3349
0.05650000 0.05647670 38822.22817213 0 271.70931489 0 9599.58382219 0 -1752.12896860 0 -2769.94135523 0 3324
0.05750000 0.05747970 36052.04322575 0 2174.67102833 0 11676.32013750 0 -1687.84305070 0 -3277.57423119 0 3639
0.05850000 0.05849280 35015.56289948 0 2430.05420027 0 10741.73841654 0 -2664.32244879 0 -2966.78514586 0 3846
0.05950000 0.05951020 33354.82489993 0 1481.87566443 0 13532.15250036 0 -1126.01114476 0 -3645.66259746 0 3787
0.06050000 0.06049470 32619.95470172 0 2249.04383414 0 13776.96160210 0 -2189.68510079 0 -5023.08194955 0 3930
0.06150000 0.06148310 30126.02425957 0 820.84680043 0 14646.91416310 0 1328.16965130 0 -3245.09910250 0 4083
0.06250000 0.06249100 30560.28083895 0 453.09835453 0 14021.32781084 0 2511.76795743 0 -4087.44835773 0 4303
0.06350000 0.06350600 30085.94244372 0 -148.84083361 0 13721.59997800 0 1204.11532403 0 -3864.78390562 0 4470
0.06450000 0.06451750 30456.97604839 0 -391.35907134 0 14377.19233052 0 1949.78103894 0 -2788.56500558 0 4479
0.06550000 0.06550280 30441.14262390 0 -153.05274597 0 11762.90571759 0 740.59569738 0 -2070.29222227 0 4636
0.06650000 0.06648880 31356.15954692 0 -253.79097163 0 14163.05356852 0 879.95419201 0 -584.42941367 0 4653
0.06750000 0.06749660 31431.34063244 0 253.86183451 0 13355.21674975 0 252.05815280 0 834.90643849 0 5220
0.06850000 0.06852730 31346.30517783 0 665.48879643 0 13778.29028108 0 1733.46102896 0 1904.30700091 0 5029
0.06950000 0.06949320 30481.66733274 0 -168.70347710 0 13032.56920454 0 1646.57649611 0 3159.87541837 0 5040
0.07050000 0.07048030 30159.13051077 0 757.59725214 0 12386.16688163 0 1895.57093663 0 1159.89245870 0 5475
0.07150000 0.07148790 30438.70671244 0 99.96670607 0 12141.46850313 0 1021.92686253 0 3356.28738833 0 5509
0.07250000 0.07249820 30003.67507032 0 41.06116297 0 11916.81103256 0 202.33566374 0 3758.20170692 0 5916
0.07350000 0.07351270 29915.09647177 0 534.79550321 0 10748.37073910 0 719.48852458 0 2447.93600486 0 5721
0.07450000 0.07449140 29449.72665964 0 1231.22037518 0 11202.53535851 0 78.17338130 0 1595.52200637 0 6028
0.07550000 0.07549160 27986.29748836 0 1054.77734304 0 9331.54498298 0 1304.07627249 0 2284.59706913 0 6183
0.07650000 0.07648840 26649.75715950 0 1058.32602314 0 9024.33225857 0 2165.83531313 0 1404.72370509 0 6330
0.07750000 0.07749960 26119.39280069 0 561.58388587 0 7680.93816064 0 2242.14577578 0 441.56984993 0 6583
0.07850000 0.07848650 25479.08025643 0 148.76664903 0 8210.73783089 0 936.05101847 0 -659.64039447 0 6549
0.07950000 0.07947320 24955.13784601 0 945.01849434 0 6613.39996325 0 -1246.75484690 0 1294.42120525 0 6828
0.08050000 0.08048110 24286.03725722 0 933.59185513 0 7859.26902417 0 -676.96083218 0 2229.32402364 0 7147
0.08150000 0.08149960 23868.61061156 0 230.79818191 0 8159.36224373 0 232.58746961 0 2108.24815174 0 7386
0.08250000 0.08250610 24046.09997840 0 2.99297119 0 8736.04213726 0 384.08787563 0 1859.32014517 0 7227
0.08350000 0.08350160 23512.19247564 0 618.21882732 0 8488.55353292 0 1048.07194313 0 1102.53781614 0 7798
0.08450000 0.08449610 22801.23849904 0 663.16803715 0 8454.34004923 0 338.14215657 0 1456.36502805 0 7371
0.08550000 0.08548940 22658.95912512 0 452.71303763 0 7691.55652014 0 1255.59056211 0 2774.18205564 0 8256
0.08650000 0.08650700 22243.30405143 0 -4.40809181 0 7127.96411455 0 1056.30089493 0 1807.98884731 0 8037
0.08750000 0.08749060 22374.17893078 0 4.86710611 0 6005.09751004 0 235.81726676 0 1634.31943253 0 8155
0.08850000 0.08849210 22322.24972738 0 368.11161815 0 6975.47605715 0 197.26564620 0 966.97934339 0 8718
0.08950000 0.08949900 21427.49515879 0 631.84443024 0 6577.61420944 0 -245.30071296 0 524.87359294 0 8571
0.09050000 0.09049190 20933.78019513 0 1017.55883039 0 6695.05835879 0 -656.53350012 0 -174.89069221 0 8932
0.09150000 0.09150830 20122.73240216 0 818.86485429 0 6587.90039920 0 277.06278394 0 778.15523763 0 9285
0.09250000 0.09250820 19599.56505448 0 79.22536288 0 6127.83423066 0 919.38716962 0 520.12356559 0 9204
0.09350000 0.09350330 19307.58784901 0 19.22609554 0 5130.42813867 0 1661.32483276 0 -89.42518850 0 9349
0.09450000 0.09448040 19718.70326953 0 -334.25355609 0 5489.59221114 0 978.02952356 0 -152.02966315 0 9564
0.09550000 0.09549270 19462.82184297 0 398.70223716 0 4854.98191416 0 -107.41051932 0 -359.02123948 0 10155
0.09650000 0.09649430 19156.33989199 0 856.73663410 0 5704.88249491 0 -464.73315345 0 456.85297988 0 9913
0.09750000 0.09749140 18253.61324952 0 835.49548617 0 6237.08485964 0 -532.59986119 0 1460.15176313 0 10476
0.09850000 0.09850240 17785.03246320 0 696.10820349 0 6552.39145350 0 467.86551414 0 2206.68111938 0 10575
0.09950000 0.09950330 17452.30910240 0 398.68230698 0 6345.46077497 0 804.07555003 0 1159.87031405 0 10882
0.10050000 0.10051200 17052.70889969 0 58.76381734 0 5894.57356370 0 690.86213599 0 2057.27116828 0 10875
0.10150000 0.10150300 16859.60755486 0 152.01526913 0 5836.10061634 0 29.64005992 0 663.61757354 0 11118
0.10250000 0.10250800 16918.29087640 0 313.83729636 0 5709.62144993 0 -147.27188518 0 879.21788241 0 11575
0.10350000 0.10349800 16519.35501318 0 313.87051333 0 5429.72415084 0 -485.36310905 0 260.80196771 0 11364
0.10450000 0.10450100 16164.04410975 0 352.57936090 0 5747.33378826 0 -242.43187360 0 167.96163134 0 12093
0.10550000 0.10551000 16086.20566627 0 452.56356124 0 5619.99098053 0 140.00844010 0 -482.38354644 0 12067
0.10650000 0.10649700 15525.83530720 0 247.97689387 0 5644.68226487 0 755.97294209 0 -576.16503043 0 12054
0.10750000 0.10749900 15273.82919433 0 326.05449956 0 5016.53820558 0 545.81246640 0 449.99921081 0 12807
0.10850000 0.10850100 15145.61167293 0 151.33764285 0 5086.01704382 0 1485.98349694 0 422.19992489 0 12736
0.10950000 0.10950300 14993.47792992 0 109.03028972 0 4310.22353308 0 560.09797988 0 906.32625526 0 12933
0.11050000 0.11050200 14898.03448998 0 92.31484384 0 4583.25599078 0 427.58439645 0 1104.76003173 0 13428
0.11150000 0.11150900 14562.43232473 0 395.82121824 0 4366.84740220 0 -236.80823983 0 928.76985767 0 13453
0.11250000 0.11250000 14453.92354151 0 310.77579854 0 4730.72828504 0 155.92047810 0 1876.80334606 0 13668
0.11350000 0.11349100 14167.15032871 0 -19.87305148 0 4380.79853147 0 187.64268870 0 1711.42710257 0 13791
0.11450000 0.11448600 14315.40875803 0 198.78476917 0 4453.83158598 0 256.62216509 0 1282.46309444 0 14205
0.11550000 0.11549300 14197.26705221 0 64.75427724 0 4877.08227449 0 -37.47649781 0 727.33215948 0 14776
0.11650000 0.11649800 14070.71037954 0 205.71383004 0 4507.91989271 0 82.03009348 0 1200.88220518 0 14553
0.11750000 0.11747300 13900.86091682 0 132.41393251 0 4882.46342436 0 -407.13491974 0 676.91986458 0 14568
0.11850000 0.11849100 14120.53584122 0 -222.26031225 0 4290.57015652 0 389.48009782 0 648.98992522 0 16015
0.11950000 0.11950300 14107.35977469 0 -41.88594045 0 4235.75107635 0 172.20122451 0 113.45589795 0 15270
0.12050000 0.12050700 14380.95692095 0 -124.97554469 0 3943.64100298 0 265.70368591 0 -16.01943955 0 15999
0.12150000 0.12150000 13873.51227452 0 240.09450583 0 3882.27817884 0 193.39586868 0 433.84690337 0 15670
0.12250000 0.12250700 14197.15632896 0 182.43869604 0 3715.59540102 0 255.39756596 0 -232.17447189 0 16887
0.12350000 0.12352200 13738.87280472 0 200.05808652 0 3489.76426402 0 758.92482388 0 688.79493295 0 16407
0.12450000 0.12449800 13673.10319530 0 168.76880382 0 3235.74298803 0 266.70905300 0 516.94802283 0 16306
0.12550000 0.12549900 13640.66128358 0 170.48390693 0 3368.30086076 0 234.86726129 0 618.04167012 0 17523
0.12650000 0.12650100 13384.55841052 0 464.01788127 0 3734.60658273 0 -557.25128517 0 196.60130671 0 17154
0.12750000 0.12750600 12910.77363153 0 561.69018019 0 3964.44590132 0 -549.25263772 0 936.47508851 0 18007
0.12850000 0.12850300 12850.98307751 0 224.87891707 0 3972.71692796 0 -250.34194245 0 727.10628405 0 17496
0.12950000 0.12949900 12595.32309745 0 -131.77505936 0 4407.83714868 0 306.71557703 0 1328.69005056 0 18405
0.13050000 0.13049000 12878.44244306 0 -39.24884485 0 4202.05799192 0 671.02495884 0 705.96367981 0 18100
0.13150000 0.13148800 12778.34862670 0 12.94387988 0 4289.28576685 0 503.96793645 0 880.91526980 0 19059
0.13250000 0.13249300 12631.30815311 0 416.48549805 0 3856.04784134 0 393.38198509 0 1577.36339366 0 18957
0.13350000 0.13349100 12169.59220817 0 411.32911639 0 3675.38071728 0 256.59448428 0 1441.20701537 0 19468
0.13450000 0.13450700 11887.69081829 0 158.22684336 0 3684.42680665 0 263.07400876 0 1419.90386242 0 19953
0.13550000 0.13551000 11762.57354784 0 57.50013291 0 3479.25662776 0 215.12530613 0 886.15247944 0 19956
0.13650000 0.13649900 11786.37904620 0 66.86499452 0 3626.16423346 0 -318.63604193 0 507.15898046 0 19723
0.13750000 0.13749600 11611.43631407 0 189.09980665 0 3603.47703990 0 -335.81143219 0 643.20906443 0 20946
0.13850000 0.13851100 11818.48878817 0 -1.68277193 0 3266.42440010 0 -81.09093889 0 323.02954042 0 20955
0.13950000 0.13949800 11569.02931001 0 -9.44423910 0 3286.05563200 0 -168.01256403 0 -275.99209013 0 20506
0.14050000 0.14048300 11555.63179698 0 295.47938181 0 3347.70633659 0 31.68744351 0 -590.10730184 0 21447
0.14150000 0.14148400 11444.79782555 0 201.83408742 0 3255.60673875 0 255.72198508 0 -589.63340633 0 21771
0.14250000 0.14249400 11098.56622847 0 112.35752333 0 2663.00484213 0 351.08681151 0 -878.01542793 0 22470
0.14350000 0.14350900 11050.03622879 0 182.29807751 0 2547.90802564 0 241.88047183 0 -673.69117466 0 22519
0.14450000 0.14449900 10826.56349697 0 166.99169568 0 2478.14130696 0 245.47565569 0 -783.74011827 0 22218
0.14550000 0.14550500 10747.23028965 0 119.12714272 0 2646.66209070 0 -241.49294046 0 -733.01779827 0 23559
0.14650000 0.14650700 10757.48326243 0 18.96578518 0 2695.02600551 0 48.97222833 0 -522.02579099 0 23044
0.14750000 0.14750500 10735.80365043 0 -2.93463111 0 3022.26856552 0 -61.20471135 0 -805.68103713 0 23649
0.14850000 0.14849900 10690.36282938 0 173.93182888 0 2809.54706111 0 26.10223070 0 -595.94463148 0 23640
0.14950000 0.14949500 10692.76552386 0 178.93209077 0 3161.38125454 0 106.54134183 0 -191.32755840 0 24457
0.15050000 0.15050000 10406.66772287 0 250.09281514 0 2958.61377014 0 139.43489367 0 362.71275257 0 24591
0.15150000 0.15149900 10277.87444058 0 155.70678223 0 2766.45357291 0 520.93848870 0 91.43702992 0 25020
0.15250000 0.15250500 10194.80985979 0 140.46683435 0 2797.63323960 0 355.86230521 0 687.75413441 0 25297
0.15350000 0.15350100 9992.21953259 0 220.58839120 0 2835.44522886 0 106.02315702 0 395.57984156 0 25452
0.15450000 0.15450400 9698.49289980 0 380.84479169 0 2938.69465779 0 -91.88844861 0 819.38193186 0 26061
0.15550000 0.15549900 9502.81170328 0 273.05792405 0 2850.13820389 0 63.78777400 0 799.26683936 0 26128
0.15650000 0.15649500 9313.76282932 0 49.83476244 0 2770.71641797 0 233.50093640 0 833.60654755 0 26331
0.15750000 0.15749700 9332.77401104 0 -46.38949785 0 2779.46355458 0 -42.69776331 0 417.45543371 0 27345
0.15850000 0.15849900 9360.33302751 0 48.40787194 0 2686.72176189 0 155.66360016 0 216.61453382 0 26980
0.15950000 0.15949700 9245.18084940 0 132.42721930 0 2451.50129345 0 -58.11497911 0 -0.88998572 0 27777
0.16050000 0.16050000 9125.83226018 0 115.89402388 0 2277.15646685 0 59.52625763 0 128.07247394 0 28224
0.16150000 0.16150500 9091.31982372 0 11.29377132 0 2280.94320194 0 242.28461168 0 -63.40168204 0 28075
0.16250000 0.16249700 9060.82664117 0 24.34604926 0 2159.02583336 0 264.05058781 0 107.75730454 0 28590
0.16350000 0.16349900 9057.70424557 0 129.72889374 0 1999.72829620 0 213.78666206 0 -341.68862221 0 29163
0.16450000 0.16449100 8900.13399107 0 73.88938811 0 1965.50374018 0 44.95707118 0 80.48982238 0 28996
0.16550000 0.16550500 8904.31932986 0 112.39074030 0 2237.11894031 0 -118.24246397 0 109.23623496 0 30777
0.16650000 0.16650700 8930.50537805 0 106.23297758 0 2094.18629922 0 -299.49199232 0 -106.37924299 0 29211
0.16750000 0.16749900 8828.69535134 0 119.99410576 0 2298.50390910 0 -146.39163536 0 -61.45616384 0 30922
0.16850000 0.16850800 8696.15962327 0 202.59475614 0 2257.49201797 0 -352.00802894 0 -67.18332386 0 30867
0.16950000 0.16949900 8671.56798984 0 162.32692524 0 2677.11098395 0 83.75770832 0 -353.06875765 0 30852
0.17050000 0.17049200 8510.90855672 0 135.44332058 0 2471.47576742 0 157.59018468 0 -318.58289477 0 31257
0.17150000 0.17149500 8386.07916672 0 215.32350075 0 2484.37502583 0 155.91272747 0 -170.10523342 0 32608
0.17250000 0.17250900 8340.02936780 0 -26.54357356 0 2562.00309514 0 276.67082364 0 126.72607925 0 32361
0.17350000 0.17350400 8191.15088829 0 45.64001218 0 2565.35800956 0 238.90755261 0 241.96019256 0 32508
0.17450000 0.17449800 8306.60201917 0 74.16054934 0 2528.93006090 0 88.93767404 0 117.90807976 0 32791
0.17550000 0.17549800 8096.46036644 0 138.11728702 0 2552.93486111 0 218.38056963 0 492.90779118 0 33633
0.17650000 0.17650100 8019.75130009 0 148.12999035 0 2457.90109719 0 -89.53281150 0 306.54395600 0 33984
0.17750000 0.17750300 7903.70226367 0 190.32662024 0 2298.71428327 0 97.58759564 0 510.03557045 0 34069
0.17850000 0.17849800 7800.55248566 0 138.80598562 0 2266.16164831 0 249.05644554 0 311.47224778 0 34536
