### header ###
fiducial parameters:
Omega_m = 0.31
Omega_nu = 0
Omega_de = 0.69
Omega_k = 0
H_0 = 100
w_de = -1
zeff = 0
beta = 0
fgrowth = 0
b_1 = 2
gamma = 0.55
Lx = 3500 Ly = 3500 Lz = 3500
nx = 700 ny = 700 nz = 700
xoffset = -685.467585 yoffset = -31.7331281 zoffset = 572.489161
bins = 400 dk = 0.001
kx_ny = 0.628318531 ky_ny = 0.628318531 kz_ny = 0.628318531
############################
A(data) = 8.08543714 (not used)
A(ran) = 8.08762668 (used)
Ngal = 480284
weighted Ngal = 0
Nran = 23820508
weighted Nran = 0
SN(data) = 3484.53258
SN(ran) = 70.4461615
SN(data+ran) = 3554.97874
############################
13 columns: k_central k_mean P_0(k) sigma^{lin}_{P_0(k)} P^img_1(k) sigma^{lin}_{P_1(k)} P_2(k) sigma^{lin}_{P_2(k)} P^img_3(k) sigma^{lin}_{P_3(k)} P_4(k) sigma^{lin}_{P_4(k)} N_modes
### header ###
0.00050000 0 0 0 0 0 0 0 0 0 0 0 0
0.00150000 0.00179520 52491.56677699 0 -42247.89474777 0 -25638.07884082 0 77622.20097138 0 -95622.59015230 0 3
0.00250000 0.00253879 95030.55294424 0 -36591.92978391 0 4879.10850994 0 -34506.90029731 0 57610.52398715 0 6
0.00350000 0.00331552 94123.61881835 0 -7324.04391476 0 10523.15965229 0 -104435.71781495 0 72656.70618321 0 7
0.00450000 0.00420575 91344.79745861 0 14355.93346686 0 -239.61950310 0 -37103.80336028 0 42218.44236375 0 24
0.00550000 0.00557378 67645.15052379 0 8114.16501382 0 3401.29638872 0 -9606.43759126 0 5091.13245789 0 45
0.00650000 0.00659388 75069.80865418 0 530.03661800 0 38972.59034317 0 -2312.28895350 0 4095.60866112 0 40
0.00750000 0.00754703 77990.46649484 0 -2664.58818458 0 8020.49314586 0 2364.47282037 0 -5281.68716802 0 57
0.00850000 0.00846663 62595.83823674 0 5488.51819563 0 17290.76388329 0 -3635.15496121 0 -10855.20760128 0 75
0.00950000 0.00948925 66809.96506272 0 5768.69230284 0 17620.16554665 0 -29494.56957516 0 -21386.74900346 0 112
0.01050000 0.01054430 71556.22781948 0 -3134.33156501 0 30616.30680254 0 -19982.99966295 0 -18840.33574166 0 105
0.01150000 0.01145670 65546.28063117 0 -4278.16915273 0 39145.31861034 0 -10628.94464361 0 -29854.42013176 0 144
0.01250000 0.01249090 75820.73372338 0 2704.86930227 0 48598.20520101 0 6871.01974481 0 -23427.48919078 0 169
0.01350000 0.01339930 73873.99757377 0 9859.53986429 0 40567.44801005 0 10439.19821319 0 -18954.82358029 0 180
0.01450000 0.01448870 68658.60041444 0 -3770.65807234 0 28643.21851985 0 13535.03130481 0 -3249.62768335 0 267
0.01550000 0.01550050 72265.07805437 0 -2595.93977071 0 30042.87110018 0 13658.04483354 0 11306.28304206 0 238
0.01650000 0.01653350 81277.39684051 0 -8454.09645808 0 33598.52676919 0 29154.20631023 0 -20878.64001753 0 315
0.01750000 0.01747870 75188.94686923 0 -3396.03703443 0 26888.36575935 0 14826.50727166 0 5675.80656994 0 297
0.01850000 0.01844180 82575.84837199 0 10333.20284770 0 24735.90581460 0 -4224.52373898 0 -9057.19491863 0 388
0.01950000 0.01947590 73174.55881497 0 -813.58335535 0 18778.21999943 0 5863.83679001 0 16682.45035776 0 399
0.02050000 0.02045430 76071.41115728 0 -2555.16039840 0 14664.74060606 0 -3310.75798867 0 9241.15052316 0 462
0.02150000 0.02154770 82318.74898970 0 -614.41326928 0 19397.38440329 0 691.32385193 0 -3233.43994446 0 571
0.02250000 0.02255340 80787.55719053 0 8551.01251722 0 22062.05009415 0 -3545.46913018 0 -5762.68003046 0 510
0.02350000 0.02348930 72237.28651908 0 10554.04036621 0 26807.75923467 0 -3241.44523531 0 7437.74561833 0 555
0.02450000 0.02439640 67599.53254554 0 4741.64559731 0 23409.44130133 0 -495.01817629 0 10504.75744844 0 592
0.02550000 0.02547300 69154.30839657 0 -3900.43679154 0 22357.79189005 0 17056.03059714 0 2902.78710841 0 837
0.02650000 0.02652900 71332.01324190 0 -6315.87552305 0 21455.50814058 0 11782.28228602 0 -5974.91435259 0 723
0.02750000 0.02749970 73691.30421426 0 2151.33056761 0 18803.79706976 0 -6628.39189106 0 -18086.75331451 0 826
0.02850000 0.02848090 73876.43348523 0 6105.73387032 0 24544.79748823 0 -5231.33023474 0 -6258.63160374 0 831
0.02950000 0.02946900 65389.27506524 0 5804.94309430 0 28257.01583018 0 -5873.94582257 0 -246.88626988 0 996
0.03050000 0.03053250 62741.21786161 0 4383.96521637 0 32525.28632452 0 -1013.71673368 0 -5614.48803509 0 1041
0.03150000 0.03150510 62686.40985376 0 4451.45103614 0 36124.56695332 0 3433.72722811 0 576.78286615 0 1036
0.03250000 0.03246190 54572.94239640 0 2381.36918805 0 30917.25259111 0 13573.12010219 0 3754.63641833 0 1059
0.03350000 0.03345080 55714.94197819 0 563.13179688 0 26366.08419765 0 15034.77770150 0 10818.62464008 0 1302
0.03450000 0.03451200 56095.05488922 0 -3105.29992934 0 22621.53466723 0 12408.64370101 0 3941.29367012 0 1339
0.03550000 0.03553350 56417.03809494 0 -2217.63164863 0 18052.53983082 0 5812.18439473 0 8124.51763753 0 1365
0.03650000 0.03647120 57130.53870626 0 2647.33750251 0 16318.39231772 0 1038.32608282 0 8723.59684417 0 1308
0.03750000 0.03744890 54677.35441944 0 727.84923705 0 9479.43802559 0 130.19836031 0 12435.77089681 0 1579
0.03850000 0.03847530 53695.12848478 0 -1176.16877619 0 9930.55775567 0 2814.89499399 0 10777.66811057 0 1662
0.03950000 0.03950240 57143.16115655 0 609.93783559 0 9017.73315297 0 3547.20748518 0 3286.43209105 0 1683
0.04050000 0.04050350 52418.26798669 0 3768.66505387 0 6098.49256989 0 -168.98582138 0 3027.62757074 0 1822
0.04150000 0.04152450 48418.39064595 0 5701.78224396 0 8310.49947751 0 -2656.12892842 0 6414.91746856 0 1887
0.04250000 0.04250150 45097.80043284 0 3408.21659173 0 8163.56972716 0 -829.43671002 0 5546.24929723 0 1920
0.04350000 0.04349210 42353.63544979 0 2303.22071948 0 10053.37198256 0 2688.57084014 0 6576.29660279 0 2005
0.04450000 0.04448520 40120.67970361 0 769.13350736 0 8894.63104564 0 3533.32278985 0 1819.94695812 0 2151
0.04550000 0.04548030 41425.22101375 0 -747.69970098 0 9109.33449620 0 681.99098934 0 705.67137043 0 2274
0.04650000 0.04648670 39892.70053560 0 213.74901616 0 10836.71681883 0 -16.13780270 0 -1251.32771705 0 2311
0.04750000 0.04749250 41604.26050606 0 -407.31982757 0 9911.34727211 0 -2967.52699162 0 -2779.86215827 0 2568
0.04850000 0.04851840 40278.12816253 0 1127.43947466 0 11758.03389467 0 -2886.33363372 0 -1846.78627348 0 2493
0.04950000 0.04949480 41363.65888775 0 641.36109342 0 11128.35078223 0 -1440.26586776 0 -3113.85883642 0 2644
0.05050000 0.05050630 39878.41723658 0 259.37474504 0 13847.49231119 0 -852.59004845 0 -4235.70678705 0 2829
0.05150000 0.05149060 38701.76127810 0 2122.81933121 0 12733.83788093 0 2496.62101708 0 -3934.29596084 0 2784
0.05250000 0.05249300 36860.43366076 0 3383.89069410 0 14372.87412384 0 365.79196610 0 -660.04010539 0 3055
0.05350000 0.05348950 35021.98484787 0 2517.34840914 0 12260.49599494 0 406.64109406 0 -312.59719598 0 3009
0.05450000 0.05448610 33449.38255388 0 277.26872918 0 13643.98298103 0 -1117.13114025 0 1246.63305133 0 3336
0.05550000 0.05550870 34275.82087835 0 -194.90945548 0 15028.57719960 0 1491.98469699 0 -398.66126956 0 3349
0.05650000 0.05647670 34273.27424364 0 -754.61768953 0 16649.12266005 0 705.29158969 0 223.57902613 0 3324
0.05750000 0.05747970 34082.94098001 0 -377.06248554 0 14665.95856179 0 -68.95301353 0 492.16262372 0 3639
0.05850000 0.05849280 35871.56433121 0 234.22063752 0 13989.21806887 0 2746.42373732 0 2123.66082789 0 3846
0.05950000 0.05951020 35207.88918158 0 -775.85330130 0 12453.70806302 0 959.59631720 0 -641.01342242 0 3787
0.06050000 0.06049470 36257.54557439 0 670.13142223 0 12180.77525624 0 1867.31436369 0 -967.50527882 0 3930
0.06150000 0.06148310 33182.20735601 0 1397.47133234 0 11129.90090770 0 1408.31113833 0 -347.53259525 0 4083
0.06250000 0.06249100 32447.33715779 0 1242.23733838 0 9488.15194522 0 1027.70772332 0 587.15652727 0 4303
0.06350000 0.06350600 31552.25041946 0 1656.75196261 0 9805.11938780 0 -517.76183870 0 -1951.65226183 0 4470
0.06450000 0.06451750 29626.77313349 0 1576.01257004 0 9091.12052187 0 611.58871922 0 -1003.13934178 0 4479
0.06550000 0.06550280 28809.52483863 0 1249.57828973 0 10074.92979898 0 -122.96591774 0 1047.18837161 0 4636
0.06650000 0.06648880 28781.29041034 0 127.42363571 0 9039.36847567 0 904.60893768 0 789.42354260 0 4653
0.06750000 0.06749660 29042.37582956 0 -732.45310971 0 9863.73627539 0 696.10266733 0 1659.65291172 0 5220
0.06850000 0.06852730 29961.04661977 0 -591.95305838 0 9388.56745580 0 1743.86901429 0 44.63630593 0 5029
0.06950000 0.06949320 30144.29359552 0 -609.32442879 0 9935.75067601 0 -241.13973330 0 1483.54758548 0 5040
0.07050000 0.07048030 30316.13607670 0 37.72407500 0 8604.40326749 0 494.04159725 0 33.96911748 0 5475
0.07150000 0.07148790 30282.03331626 0 132.75938904 0 9473.40360856 0 500.93965561 0 491.99653885 0 5509
0.07250000 0.07249820 30057.70801543 0 789.61952274 0 9258.96589380 0 553.94066005 0 849.66031131 0 5916
0.07350000 0.07351270 29326.38096116 0 938.33081015 0 8705.18356799 0 2082.64893676 0 1939.17375176 0 5721
0.07450000 0.07449140 27510.85186065 0 1301.74001195 0 6746.25678875 0 2729.48308034 0 3134.44228826 0 6028
0.07550000 0.07549160 26896.89144946 0 761.59436140 0 6808.02928892 0 1460.66109008 0 2284.33133333 0 6183
0.07650000 0.07648840 26420.00641952 0 731.23626121 0 5660.85893143 0 1743.61435082 0 3723.61176419 0 6330
0.07750000 0.07749960 25154.66113924 0 967.20854051 0 6725.15293765 0 -454.33734768 0 4858.55827507 0 6583
0.07850000 0.07848650 24677.11176981 0 849.68134872 0 6027.07607481 0 -580.98481342 0 5442.32445649 0 6549
0.07950000 0.07947320 24078.43116687 0 -26.00136182 0 6867.11121415 0 577.96760491 0 3889.29803277 0 6828
0.08050000 0.08048110 24651.42397623 0 -209.06985169 0 6941.53938158 0 -451.37328632 0 4242.15088009 0 7147
0.08150000 0.08149960 24573.91770250 0 346.09651472 0 7985.26100828 0 -28.36995354 0 2997.97588487 0 7386
0.08250000 0.08250610 24087.62119647 0 507.67827249 0 7815.77693229 0 -930.07417753 0 2511.69045116 0 7227
0.08350000 0.08350160 23402.35501344 0 1008.98220759 0 7490.87063281 0 -417.49418684 0 2251.20293748 0 7798
0.08450000 0.08449610 22732.81153166 0 846.61652921 0 7759.70667940 0 -376.07040523 0 1696.95557403 0 7371
0.08550000 0.08548940 22574.36656350 0 90.16039087 0 7093.10843602 0 412.34555580 0 2355.71461144 0 8256
0.08650000 0.08650700 22337.19736589 0 70.17982712 0 7956.61690398 0 355.95974166 0 1480.09302013 0 8037
0.08750000 0.08749060 22208.20478175 0 315.64762147 0 7550.24043848 0 363.57971560 0 924.50701261 0 8155
0.08850000 0.08849210 21972.47498636 0 1116.34500519 0 8053.62154171 0 -158.53354675 0 914.50538161 0 8718
0.08950000 0.08949900 21191.21174716 0 865.31436413 0 8096.98076570 0 246.29168603 0 1175.83660644 0 8571
0.09050000 0.09049190 20199.68505965 0 702.72613203 0 8016.89464029 0 168.80977142 0 2163.13366587 0 8932
0.09150000 0.09150830 20126.16482285 0 242.15949441 0 8677.46953897 0 1132.69882895 0 3242.50817849 0 9285
0.09250000 0.09250820 19777.16514457 0 -133.02955377 0 7765.71895178 0 1518.64685515 0 2837.07286061 0 9204
0.09350000 0.09350330 19840.72028903 0 -28.07753344 0 7449.02831732 0 1554.94193591 0 2260.59226892 0 9349
0.09450000 0.09448040 20112.10297033 0 -215.37996960 0 7643.64657065 0 -97.36459902 0 2161.39531087 0 9564
0.09550000 0.09549270 19801.19208943 0 166.39157568 0 6874.95042012 0 79.53417002 0 1856.20882190 0 10155
0.09650000 0.09649430 19779.93322577 0 540.27076783 0 7139.32431981 0 -1042.12721193 0 1572.56907702 0 9913
0.09750000 0.09749140 18991.14080569 0 771.29039624 0 7055.54003791 0 -672.04471996 0 325.36801542 0 10476
0.09850000 0.09850240 18582.90418963 0 172.91206776 0 7255.40657321 0 -982.18385983 0 -1100.06315154 0 10575
0.09950000 0.09950330 18486.79641020 0 550.43184031 0 7567.70149472 0 -564.57009188 0 -1712.12465903 0 10882
0.10050000 0.10051200 18109.00868739 0 180.65605174 0 7389.18240167 0 229.61233593 0 -1317.26341135 0 10875
0.10150000 0.10150300 18048.55379388 0 189.28471447 0 7835.15350072 0 553.97719872 0 -843.33026321 0 11118
0.10250000 0.10250800 18058.85105596 0 181.99580304 0 7141.40591688 0 961.29149013 0 -1211.34555213 0 11575
0.10350000 0.10349800 17665.22990866 0 345.41556674 0 7495.01168229 0 566.41695566 0 -594.45872549 0 11364
0.10450000 0.10450100 16980.51734188 0 817.28040461 0 7122.89298978 0 1570.49855228 0 1358.08707296 0 12093
0.10550000 0.10551000 16451.14949230 0 561.48755665 0 6876.35660537 0 954.87175620 0 1424.08920120 0 12067
0.10650000 0.10649700 16000.61659543 0 228.95242537 0 5967.23015916 0 886.85667930 0 1913.24236704 0 12054
0.10750000 0.10749900 15775.40550861 0 243.11171435 0 6284.28618034 0 830.15198221 0 2105.76795098 0 12807
0.10850000 0.10850100 15580.64331505 0 24.08507456 0 5407.92274327 0 13.57732759 0 2097.92874501 0 12736
0.10950000 0.10950300 15667.67178813 0 201.39562336 0 5456.92885292 0 639.06137156 0 1936.81534658 0 12933
0.11050000 0.11050200 15504.13355056 0 -96.40097459 0 4758.84091775 0 -151.91229651 0 1223.20401202 0 13428
0.11150000 0.11150900 15456.85472358 0 347.64774742 0 5429.33661947 0 6.22332196 0 1113.28904354 0 13453
0.11250000 0.11250000 15175.28550344 0 290.84672110 0 4681.68895842 0 -110.81736295 0 840.81130931 0 13668
0.11350000 0.11349100 15059.13681610 0 150.74527348 0 5051.38281179 0 482.06134179 0 834.86547088 0 13791
0.11450000 0.11448600 14966.57218061 0 150.89364263 0 4927.62743729 0 -44.06120938 0 983.56236427 0 14205
0.11550000 0.11549300 14742.57904953 0 262.91124559 0 5072.34272267 0 720.16061469 0 395.31964193 0 14776
0.11650000 0.11649800 14627.53759467 0 198.50353212 0 4481.57883197 0 261.17399782 0 1095.04738840 0 14553
0.11750000 0.11747300 14370.10604263 0 106.91204326 0 4568.27513530 0 821.52331948 0 670.50345235 0 14568
0.11850000 0.11849100 14318.84117872 0 285.65380076 0 4680.30491782 0 133.26760875 0 1112.14859408 0 16015
0.11950000 0.11950300 14063.84553815 0 391.50965496 0 4468.75707983 0 417.27827651 0 1118.44874691 0 15270
0.12050000 0.12050700 13859.33969875 0 -77.52897200 0 4131.50513818 0 -241.28478075 0 1111.87178596 0 15999
0.12150000 0.12150000 13777.62594159 0 -99.21467377 0 4047.34439723 0 313.96905702 0 733.16284573 0 15670
0.12250000 0.12250700 13968.84499120 0 41.55343854 0 3771.23383323 0 6.85540777 0 -72.95687691 0 16887
0.12350000 0.12352200 13740.53365344 0 202.01567355 0 3428.34607825 0 96.49010680 0 337.07478445 0 16407
0.12450000 0.12449800 13759.13515914 0 118.32882810 0 3147.88409059 0 155.14873706 0 174.24960460 0 16306
0.12550000 0.12549900 13451.43525243 0 140.97505406 0 3424.78078966 0 416.52757289 0 -131.54364778 0 17523
0.12650000 0.12650100 13308.93443201 0 392.27253814 0 3058.86259905 0 -22.71077761 0 -541.15101765 0 17154
0.12750000 0.12750600 12983.74025209 0 409.55311548 0 3492.38840500 0 -333.07324626 0 366.54820589 0 18007
0.12850000 0.12850300 12596.65177643 0 286.27606542 0 3499.24217406 0 436.97926406 0 727.78723203 0 17496
0.12950000 0.12949900 12644.04132665 0 -66.04785695 0 3727.45386090 0 499.71505648 0 1054.54150252 0 18405
0.13050000 0.13049000 12550.48018194 0 224.02634806 0 3678.21523243 0 565.63524952 0 634.31466591 0 18100
0.13150000 0.13148800 12267.36083632 0 412.50942621 0 3345.19291886 0 178.30318272 0 911.36305582 0 19059
0.13250000 0.13249300 12010.92579352 0 311.70698106 0 3146.27860349 0 -14.18874136 0 1290.84484433 0 18957
0.13350000 0.13349100 11992.54573432 0 -57.83507073 0 3492.69843009 0 -347.41633583 0 981.85944071 0 19468
0.13450000 0.13450700 12148.55479102 0 -286.67134741 0 3292.43329110 0 -159.27760698 0 626.01152953 0 19953
0.13550000 0.13551000 12458.35843944 0 -248.39432052 0 3028.07046373 0 154.17990863 0 6.42802710 0 19956
0.13650000 0.13649900 12497.88663905 0 42.20648425 0 2922.14153219 0 -522.20405542 0 -409.47118028 0 19723
0.13750000 0.13749600 12494.56494160 0 108.42928393 0 3203.02426819 0 -239.75790716 0 -674.34554906 0 20946
0.13850000 0.13851100 12313.64315406 0 342.93758045 0 3113.65953458 0 -367.11067999 0 -707.27907200 0 20955
0.13950000 0.13949800 12089.31785324 0 258.23097389 0 3089.59937275 0 188.92154222 0 -927.34595670 0 20506
0.14050000 0.14048300 11826.35013880 0 165.72612896 0 3306.08546760 0 219.76903916 0 -875.99251419 0 21447
0.14150000 0.14148400 11540.90560497 0 235.26143605 0 3182.69547982 0 128.18098273 0 -507.19219743 0 21771
0.14250000 0.14249400 11482.00083694 0 337.33166239 0 3192.35054706 0 532.48249455 0 -180.37813639 0 22470
0.14350000 0.14350900 11224.34783841 0 55.71427764 0 3131.05415687 0 256.52694310 0 -240.57061580 0 22519
0.14450000 0.14449900 11124.58619179 0 186.77461844 0 2896.66411278 0 274.49400458 0 -114.92630269 0 22218
0.14550000 0.14550500 10985.67280462 0 302.89783944 0 3201.11982832 0 -236.32991539 0 -414.62534748 0 23559
0.14650000 0.14650700 10651.91971761 0 468.84320042 0 3393.11394067 0 -171.11724391 0 59.07816064 0 23044
0.14750000 0.14750500 10409.30293618 0 231.89434207 0 3230.39505514 0 -94.53152326 0 238.41151246 0 23649
0.14850000 0.14849900 10261.42096590 0 71.34718233 0 3186.13897284 0 238.76804132 0 344.73240430 0 23640
0.14950000 0.14949500 10290.96192852 0 24.14586163 0 3096.81852853 0 727.24136641 0 278.38703399 0 24457
0.15050000 0.15050000 10175.72117181 0 79.12670847 0 2806.73469060 0 619.30280792 0 730.69814622 0 24591
0.15150000 0.15149900 9952.60275439 0 254.52285230 0 2707.16127351 0 422.89637412 0 575.54940917 0 25020
0.15250000 0.15250500 9702.61180463 0 227.62706809 0 2485.02829300 0 208.44205087 0 774.20020320 0 25297
0.15350000 0.15350100 9745.15167658 0 188.44321779 0 2617.16541738 0 -180.83985233 0 974.52402552 0 25452
0.15450000 0.15450400 9519.74128793 0 65.89085138 0 2843.20692856 0 -167.37369089 0 1153.03868964 0 26061
0.15550000 0.15549900 9614.36537583 0 39.32834414 0 2868.85043284 0 -354.57348660 0 773.96657715 0 26128
0.15650000 0.15649500 9481.20959756 0 118.96105785 0 3106.25214927 0 -57.92929622 0 774.87340055 0 26331
0.15750000 0.15749700 9403.26043083 0 280.04898994 0 3099.68626066 0 -224.68847308 0 614.93145408 0 27345
0.15850000 0.15849900 9200.06112576 0 143.05775835 0 3021.95854043 0 330.85103067 0 281.47178368 0 26980
0.15950000 0.15949700 8966.67866323 0 107.38051332 0 2719.94980867 0 324.20763578 0 201.40337399 0 27777
0.16050000 0.16050000 9087.80989675 0 20.74632574 0 2479.29282874 0 417.19634131 0 67.79086232 0 28224
0.16150000 0.16150500 8896.82336595 0 -18.90887343 0 2270.96703728 0 98.01808763 0 -65.83405035 0 28075
0.16250000 0.16249700 8933.92672642 0 107.15807032 0 2022.86945507 0 304.85653370 0 244.25880720 0 28590
0.16350000 0.16349900 8928.81131235 0 30.59892325 0 2034.22966033 0 123.00356364 0 199.89532335 0 29163
0.16450000 0.16449100 8918.11544658 0 9.01540796 0 2120.87060204 0 88.94808203 0 373.72196514 0 28996
0.16550000 0.16550500 8928.72273376 0 166.47351088 0 2204.62166697 0 15.61053859 0 427.63643638 0 30777
0.16650000 0.16650700 8796.23129498 0 176.68883776 0 2320.51569084 0 -165.60876231 0 722.79361353 0 29211
0.16750000 0.16749900 8712.87883374 0 175.98463790 0 2474.17741468 0 -262.90681666 0 489.55841293 0 30922
0.16850000 0.16850800 8530.24083586 0 203.98986906 0 2835.64453070 0 -218.32188631 0 524.64107411 0 30867
0.16950000 0.16949900 8564.07786050 0 182.69889567 0 2916.70502070 0 -37.38504041 0 292.71905123 0 30852
0.17050000 0.17049200 8245.63779872 0 162.97576347 0 2872.34928748 0 -17.85611679 0 549.33346569 0 31257
0.17150000 0.17149500 8314.16441702 0 126.70836353 0 2830.20801922 0 168.66029503 0 244.32413391 0 32608
0.17250000 0.17250900 8102.66086834 0 45.17962491 0 2832.64393068 0 129.57388119 0 468.01499053 0 32361
0.17350000 0.17350400 8193.84146322 0 22.67479255 0 2432.74477520 0 415.31072439 0 253.24621325 0 32508
0.17450000 0.17449800 8123.35504342 0 -20.23157336 0 2338.22033823 0 185.81021894 0 242.69539493 0 32791
0.17550000 0.17549800 8016.52925357 0 52.00980992 0 2208.20910021 0 164.27676164 0 322.72394426 0 33633
0.17650000 0.17650100 7902.16321052 0 189.62352761 0 2063.39416390 0 157.57800512 0 72.79311722 0 33984
0.17750000 0.17750300 7819.96227107 0 85.43704783 0 1875.27536523 0 24.03989948 0 202.48956905 0 34069
0.17850000 0.17849800 7640.88956177 0 130.19946754 0 1862.90757841 0 228.08767680 0 -16.19504662 0 34536
