### header ###
fiducial parameters:
Omega_m = 0.31
Omega_nu = 0
Omega_de = 0.69
Omega_k = 0
H_0 = 100
w_de = -1
zeff = 0
beta = 0
fgrowth = 0
b_1 = 2
gamma = 0.55
Lx = 3500 Ly = 3500 Lz = 3500
nx = 700 ny = 700 nz = 700
xoffset = -685.467585 yoffset = -31.7331281 zoffset = 572.489161
bins = 400 dk = 0.001
kx_ny = 0.628318531 ky_ny = 0.628318531 kz_ny = 0.628318531
############################
A(data) = 8.03309228 (not used)
A(ran) = 8.03632422 (used)
Ngal = 477930
weighted Ngal = 0
Nran = 23820508
weighted Nran = 0
SN(data) = 3481.47411
SN(ran) = 69.9992984
SN(data+ran) = 3551.47341
############################
13 columns: k_central k_mean P_0(k) sigma^{lin}_{P_0(k)} P^img_1(k) sigma^{lin}_{P_1(k)} P_2(k) sigma^{lin}_{P_2(k)} P^img_3(k) sigma^{lin}_{P_3(k)} P_4(k) sigma^{lin}_{P_4(k)} N_modes
### header ###
0.00050000 0 0 0 0 0 0 0 0 0 0 0 0
0.00150000 0.00179520 156035.63027429 0 -67366.34938486 0 106325.98510799 0 60726.60836086 0 -315588.93814347 0 3
0.00250000 0.00253879 239959.42346970 0 -6314.87901382 0 90086.87063597 0 -23758.88387260 0 167016.05479694 0 6
0.00350000 0.00331552 185090.51783090 0 58454.01369183 0 50029.08173732 0 -100508.03203203 0 253401.22579954 0 7
0.00450000 0.00420575 113226.70082796 0 74801.08333083 0 31979.53143421 0 -30649.52377699 0 90397.22790063 0 24
0.00550000 0.00557378 98962.99982683 0 -25045.93090952 0 70538.57044540 0 76844.14870637 0 -37992.57887347 0 45
0.00650000 0.00659388 102696.36630919 0 -23126.10050922 0 77270.21176539 0 62055.39806234 0 24305.63527215 0 40
0.00750000 0.00754703 96150.74004615 0 34319.99945437 0 17785.14318645 0 14655.10768346 0 -4323.45496124 0 57
0.00850000 0.00846663 110841.72206202 0 8030.11499612 0 18155.84462138 0 3540.53087331 0 31828.94781667 0 75
0.00950000 0.00948925 71180.54383838 0 -835.20649849 0 9763.44315718 0 23850.45199885 0 23932.71937226 0 112
0.01050000 0.01054430 94494.65242302 0 -5234.78480008 0 15848.59357567 0 -15212.37779159 0 -11031.82225446 0 105
0.01150000 0.01145670 88163.93998471 0 180.37260023 0 5552.59373935 0 4965.47264352 0 10050.85856483 0 144
0.01250000 0.01249090 89220.57194216 0 -883.01458259 0 8779.52315683 0 -4582.46985572 0 12890.95417011 0 169
0.01350000 0.01339930 83224.35443662 0 -6038.19268893 0 -6973.46089403 0 -7496.90504983 0 20768.35966233 0 180
0.01450000 0.01448870 95002.76140895 0 -737.72907248 0 5792.69710305 0 -6837.14950319 0 -21785.46342018 0 267
0.01550000 0.01550050 89076.52099627 0 15384.44171927 0 6331.57607965 0 -20452.13406551 0 -12488.58588620 0 238
0.01650000 0.01653350 78541.97899406 0 11891.01251574 0 13444.68113429 0 -29304.56848127 0 -23104.50947582 0 315
0.01750000 0.01747870 69753.65333900 0 5593.80493233 0 17103.42014736 0 -20099.81268979 0 -12091.31087171 0 297
0.01850000 0.01844180 72909.81952856 0 -100.85714243 0 21604.54163264 0 -8053.44438452 0 -22678.22497030 0 388
0.01950000 0.01947590 75495.20737371 0 1715.22490998 0 26977.27652764 0 -566.26194311 0 -33428.78802972 0 399
0.02050000 0.02045430 77711.88680241 0 -2399.20670333 0 31623.00257505 0 -8845.11560905 0 -41560.19265329 0 462
0.02150000 0.02154770 75928.24599737 0 2321.62292332 0 26218.93300081 0 -366.18281917 0 -30485.21047668 0 571
0.02250000 0.02255340 75215.52044879 0 -1457.61620075 0 30792.46749040 0 -607.31812354 0 -33383.61294446 0 510
0.02350000 0.02348930 76011.73132650 0 1782.33427071 0 29846.44805789 0 9637.41795610 0 -26358.66574002 0 555
0.02450000 0.02439640 73497.64925318 0 -673.30253606 0 30070.88408197 0 16033.16923039 0 -25543.63191012 0 592
0.02550000 0.02547300 70414.33896093 0 830.13869542 0 17524.38993697 0 13119.26550787 0 -26680.09532951 0 837
0.02650000 0.02652900 68194.22711155 0 1595.24519825 0 13645.20093676 0 9463.82604759 0 -22447.58844433 0 723
0.02750000 0.02749970 67405.87758446 0 5678.63001276 0 11754.49075072 0 -2574.71412403 0 -22033.37277287 0 826
0.02850000 0.02848090 59411.99123514 0 6431.38201556 0 9556.43497238 0 -2764.26125260 0 -853.13812853 0 831
0.02950000 0.02946900 56908.09570065 0 4180.97628547 0 19567.23386601 0 -5095.61674944 0 -2778.22345420 0 996
0.03050000 0.03053250 56978.73713299 0 -1908.06051902 0 16250.85113633 0 1274.11456153 0 7614.79209218 0 1041
0.03150000 0.03150510 60073.56264305 0 -5026.37043002 0 19690.69028774 0 11025.13457027 0 -1051.59404965 0 1036
0.03250000 0.03246190 64073.88287678 0 -4102.86103387 0 14014.90586245 0 7250.14721892 0 -3525.64966875 0 1059
0.03350000 0.03345080 68532.59735800 0 -513.27311822 0 20247.84967261 0 3445.62997729 0 -1907.17473304 0 1302
0.03450000 0.03451200 62606.91056156 0 4291.57773808 0 13309.93094125 0 -3754.24888696 0 -2109.51039677 0 1339
0.03550000 0.03553350 62174.86844714 0 7005.44884043 0 16422.02927802 0 -1817.14565994 0 -1128.11488647 0 1365
0.03650000 0.03647120 55215.91229862 0 4027.60244208 0 16706.14513287 0 -5442.24695021 0 -6260.01564434 0 1308
0.03750000 0.03744890 51480.10990481 0 3721.88448151 0 16111.78273661 0 1199.02205461 0 -2903.08606118 0 1579
0.03850000 0.03847530 48509.73732571 0 1827.60900689 0 13545.88218313 0 5526.97237972 0 -463.50633986 0 1662
0.03950000 0.03950240 48226.61798010 0 -69.98141106 0 13232.09249777 0 5457.73713263 0 -2701.09363951 0 1683
0.04050000 0.04050350 48795.51402928 0 151.32767776 0 10110.44981700 0 5849.46491239 0 -538.66306626 0 1822
0.04150000 0.04152450 47785.82872907 0 1122.51229011 0 12494.89711135 0 -1820.22376624 0 -1783.33077994 0 1887
0.04250000 0.04250150 46041.60540038 0 3108.85414561 0 13743.74462764 0 -3720.03540327 0 4532.86584053 0 1920
0.04350000 0.04349210 45059.15801923 0 3045.70867716 0 16961.47294319 0 -4244.17711553 0 5733.64839479 0 2005
0.04450000 0.04448520 42674.62214628 0 877.86373708 0 18022.42310731 0 1799.95033949 0 7674.47192295 0 2151
0.04550000 0.04548030 42056.45425166 0 446.59557817 0 17335.49607556 0 3828.48882487 0 5511.12788291 0 2274
0.04650000 0.04648670 41902.43821343 0 880.91084087 0 18186.18279138 0 1748.86263278 0 -1357.92098808 0 2311
0.04750000 0.04749250 39478.37414088 0 2312.73184649 0 16783.54068335 0 753.38423254 0 1723.04197130 0 2568
0.04850000 0.04851840 37237.22487434 0 2978.08998950 0 15968.39613020 0 -1871.47755782 0 -1634.82875947 0 2493
0.04950000 0.04949480 35501.85940551 0 956.62561245 0 16310.97386009 0 -609.14837883 0 2995.86107083 0 2644
0.05050000 0.05050630 36565.79909734 0 -271.31071119 0 15951.78764298 0 917.05976694 0 -1785.98813790 0 2829
0.05150000 0.05149060 34985.33545272 0 -173.43135980 0 14704.60097540 0 1563.26832417 0 1140.27229912 0 2784
0.05250000 0.05249300 35497.09830584 0 1059.33803363 0 13822.35813385 0 3957.19352856 0 377.84197720 0 3055
0.05350000 0.05348950 35090.19036876 0 -273.09556995 0 12917.41702643 0 3281.68206370 0 930.74958935 0 3009
0.05450000 0.05448610 35493.00154566 0 179.02841999 0 11838.52969610 0 1829.43594049 0 1715.70101995 0 3336
0.05550000 0.05550870 35440.62944927 0 16.73493318 0 11390.43271069 0 322.90220869 0 2139.48318006 0 3349
0.05650000 0.05647670 35486.57959727 0 -330.55207790 0 11404.93745620 0 600.21633440 0 4834.43167929 0 3324
0.05750000 0.05747970 36811.82615481 0 -738.10110260 0 12197.82663646 0 -312.65809376 0 852.15822778 0 3639
0.05850000 0.05849280 36924.32097497 0 -454.08489867 0 12610.71362895 0 -25.01337827 0 571.99408567 0 3846
0.05950000 0.05951020 36049.16442130 0 2211.17648326 0 13546.76796912 0 -917.51151779 0 -585.01956858 0 3787
0.06050000 0.06049470 34619.83801046 0 2316.91718528 0 12381.62722845 0 -1259.31086325 0 2230.88522144 0 3930
0.06150000 0.06148310 34124.01930508 0 558.33194407 0 13023.60062144 0 2201.84251344 0 1072.05238422 0 4083
0.06250000 0.06249100 33121.64173925 0 -59.84458697 0 10655.50715085 0 3488.45772969 0 2913.42761256 0 4303
0.06350000 0.06350600 32757.03008297 0 711.58067019 0 11047.45637710 0 2424.15265114 0 -101.22275060 0 4470
0.06450000 0.06451750 31771.81462061 0 1184.52838142 0 9037.06543211 0 1032.87849901 0 1989.63033596 0 4479
0.06550000 0.06550280 31009.26361035 0 903.10420874 0 10458.50834768 0 1312.96734932 0 1375.10523620 0 4636
0.06650000 0.06648880 29444.07977399 0 607.16753992 0 8376.80055852 0 404.54067404 0 2154.05435952 0 4653
0.06750000 0.06749660 30520.19902311 0 332.53623851 0 10169.25493411 0 -670.53445485 0 267.80410592 0 5220
0.06850000 0.06852730 29109.03122497 0 212.18781836 0 9835.72329360 0 -817.54724763 0 2589.76141346 0 5029
0.06950000 0.06949320 29698.52179832 0 1046.46202710 0 11167.87898183 0 -201.04130896 0 2088.12973755 0 5040
0.07050000 0.07048030 28745.30535468 0 810.99907474 0 10148.35038486 0 33.68898766 0 1368.16288854 0 5475
0.07150000 0.07148790 28710.09536176 0 -339.62363363 0 10890.38437723 0 676.35628324 0 140.79457516 0 5509
0.07250000 0.07249820 28337.06873862 0 -92.82738175 0 10796.73465391 0 -35.55257065 0 793.79932536 0 5916
0.07350000 0.07351270 28347.80889369 0 670.35176150 0 11170.42561654 0 662.60445582 0 930.96992861 0 5721
0.07450000 0.07449140 27471.76655404 0 937.94106432 0 10908.17760321 0 1488.05402168 0 1802.82914395 0 6028
0.07550000 0.07549160 26605.80002997 0 809.25739804 0 9591.37922950 0 1016.69297459 0 3161.87950916 0 6183
0.07650000 0.07648840 26324.34153308 0 669.02308252 0 10081.11922856 0 1349.15170683 0 916.76192140 0 6330
0.07750000 0.07749960 25773.27192686 0 120.36724310 0 9321.28093788 0 477.77967378 0 1933.77045725 0 6583
0.07850000 0.07848650 25474.42988000 0 313.05448299 0 9415.49534976 0 383.54201002 0 2127.23718881 0 6549
0.07950000 0.07947320 25893.07448140 0 197.16599528 0 9033.25655237 0 -409.58522523 0 2358.34982475 0 6828
0.08050000 0.08048110 25874.47297570 0 -32.49339803 0 10824.93586522 0 -311.27294593 0 891.35204318 0 7147
0.08150000 0.08149960 25383.63681649 0 954.87064897 0 9495.47075192 0 235.73533155 0 925.41826495 0 7386
0.08250000 0.08250610 24794.47841289 0 462.97486827 0 9693.54357060 0 316.88329291 0 411.43430347 0 7227
0.08350000 0.08350160 24150.51200144 0 375.87110339 0 9273.49278396 0 1210.70335729 0 632.34268486 0 7798
0.08450000 0.08449610 24021.07652431 0 333.29469276 0 8237.22283186 0 1702.42530249 0 -862.17314558 0 7371
0.08550000 0.08548940 23122.77881177 0 730.00723315 0 7588.68355025 0 696.40272733 0 129.69567676 0 8256
0.08650000 0.08650700 22578.79549343 0 926.60411094 0 6202.02987927 0 1239.04850883 0 398.83621229 0 8037
0.08750000 0.08749060 21851.89736909 0 -3.84983627 0 6538.42925191 0 836.42445422 0 882.31591889 0 8155
0.08850000 0.08849210 21748.92474827 0 317.76907890 0 6497.70524122 0 491.37648866 0 -49.14484588 0 8718
0.08950000 0.08949900 21308.91055998 0 308.66209174 0 6023.41113529 0 -347.53370248 0 -562.31133761 0 8571
0.09050000 0.09049190 20649.88578678 0 796.30831417 0 6694.13935583 0 -454.65955233 0 -167.93505776 0 8932
0.09150000 0.09150830 20312.17987981 0 450.84402920 0 6687.20808050 0 -160.58967747 0 -382.16239835 0 9285
0.09250000 0.09250820 20095.49448311 0 237.90661445 0 6344.09887901 0 376.67273970 0 384.83857926 0 9204
0.09350000 0.09350330 19831.08736644 0 440.16920084 0 6193.60384008 0 651.65171211 0 -947.83529378 0 9349
0.09450000 0.09448040 19165.75136808 0 309.89222702 0 5581.88003850 0 659.42116243 0 629.84919731 0 9564
0.09550000 0.09549270 19493.71362921 0 200.57184239 0 5541.25567874 0 1336.09743587 0 -527.32389842 0 10155
0.09650000 0.09649430 18795.82499589 0 130.55599640 0 5385.27983902 0 -280.11542389 0 700.63124818 0 9913
0.09750000 0.09749140 19077.72638578 0 545.31642625 0 6005.90578975 0 42.64406253 0 1109.55767008 0 10476
0.09850000 0.09850240 18445.60736188 0 323.47686234 0 5855.47718477 0 -353.83385530 0 2046.05490324 0 10575
0.09950000 0.09950330 18243.86960368 0 612.23534299 0 6759.36642134 0 -215.10316148 0 2392.44151286 0 10882
0.10050000 0.10051200 17979.57321026 0 511.69088301 0 7033.16286945 0 839.75058059 0 2454.02578351 0 10875
0.10150000 0.10150300 17711.84439615 0 121.74353308 0 7435.60865964 0 155.30928577 0 2837.29430710 0 11118
0.10250000 0.10250800 17172.51145423 0 359.47741926 0 6190.57002308 0 984.95858443 0 2435.66786896 0 11575
0.10350000 0.10349800 17397.94398754 0 162.84953897 0 6212.78110667 0 947.50423126 0 2747.07700448 0 11364
0.10450000 0.10450100 16759.73518499 0 151.45390226 0 5353.84550886 0 1079.58377956 0 2891.13902270 0 12093
0.10550000 0.10551000 16878.09833730 0 569.18614409 0 6035.77892211 0 -91.34623686 0 2501.78072045 0 12067
0.10650000 0.10649700 16320.82822918 0 472.10732178 0 5680.05834267 0 87.91924161 0 1995.17757070 0 12054
0.10750000 0.10749900 15833.09232092 0 162.72442170 0 5863.26102912 0 -124.74081141 0 2662.55087682 0 12807
0.10850000 0.10850100 15741.74564117 0 26.71574822 0 5419.44903341 0 -111.34662007 0 2018.66197164 0 12736
0.10950000 0.10950300 15996.96272824 0 59.13374371 0 6172.26747015 0 240.79427676 0 1791.67931285 0 12933
0.11050000 0.11050200 15751.71073350 0 269.40294963 0 5848.55698176 0 -442.31058846 0 1713.99588193 0 13428
0.11150000 0.11150900 15713.17904313 0 270.28873561 0 5926.06325549 0 -92.70569690 0 1180.17695777 0 13453
0.11250000 0.11250000 15253.45611666 0 93.75424606 0 5707.14124917 0 -57.12876713 0 1263.23046623 0 13668
0.11350000 0.11349100 15634.34409042 0 -28.49263490 0 5801.47745663 0 275.08083779 0 267.27263433 0 13791
0.11450000 0.11448600 15323.98682576 0 57.25698466 0 5591.87834781 0 -136.92147594 0 -62.17099313 0 14205
0.11550000 0.11549300 15093.68246953 0 383.35931666 0 5303.04568259 0 465.07639552 0 -54.40397872 0 14776
0.11650000 0.11649800 14995.13877864 0 137.25253845 0 5306.35630771 0 358.07898464 0 356.05053473 0 14553
0.11750000 0.11747300 14982.29488185 0 -130.86712873 0 4986.68721787 0 833.44821331 0 495.22190707 0 14568
0.11850000 0.11849100 15258.10649309 0 -264.44144088 0 4840.14499890 0 860.46579310 0 82.61282994 0 16015
0.11950000 0.11950300 15069.65552467 0 49.93518842 0 4293.90292630 0 577.31101604 0 639.44668846 0 15270
0.12050000 0.12050700 15134.98224110 0 244.35735089 0 4306.25964079 0 86.31131860 0 345.07564637 0 15999
0.12150000 0.12150000 14715.11968398 0 595.32125959 0 4108.99510182 0 -102.35688883 0 573.96385225 0 15670
0.12250000 0.12250700 14225.72292700 0 500.22659789 0 4066.98670146 0 10.20684548 0 571.08504780 0 16887
0.12350000 0.12352200 13860.22548473 0 352.87831367 0 3957.53677063 0 340.38319511 0 820.77483032 0 16407
0.12450000 0.12449800 13612.86974828 0 -40.59767546 0 3831.66658209 0 456.63596231 0 233.75006371 0 16306
0.12550000 0.12549900 13630.69619124 0 116.13872226 0 3078.20595051 0 535.22400218 0 -78.48440291 0 17523
0.12650000 0.12650100 13453.76044064 0 183.38870151 0 3111.99868585 0 313.45308669 0 77.07057775 0 17154
0.12750000 0.12750600 13285.12893365 0 199.45907375 0 2730.91141025 0 114.04716010 0 359.78744435 0 18007
0.12850000 0.12850300 12867.37011825 0 435.21654995 0 2609.91304463 0 222.18502044 0 940.36922515 0 17496
0.12950000 0.12949900 12814.88729860 0 241.84946932 0 2916.30641701 0 118.96659401 0 421.55994452 0 18405
0.13050000 0.13049000 12464.66966459 0 104.81151252 0 3015.43694111 0 220.93938390 0 295.40851893 0 18100
0.13150000 0.13148800 12597.75900891 0 145.72065247 0 3165.26764056 0 -577.82255745 0 -352.15086193 0 19059
0.13250000 0.13249300 12312.86809133 0 155.10776945 0 3353.79611524 0 -677.84551093 0 130.46298887 0 18957
0.13350000 0.13349100 12456.36542098 0 257.68510827 0 3820.25101520 0 -620.10333700 0 -178.36629497 0 19468
0.13450000 0.13450700 12229.05059245 0 104.11140942 0 4078.10331558 0 -213.90956487 0 10.23511312 0 19953
0.13550000 0.13551000 12210.89197975 0 133.34732949 0 3896.83828597 0 415.50670454 0 -98.95724222 0 19956
0.13650000 0.13649900 12045.58217021 0 137.17060325 0 3955.93128353 0 268.24699892 0 -195.24937585 0 19723
0.13750000 0.13749600 11891.89830172 0 196.70427933 0 3796.10227477 0 544.15715384 0 -173.59412297 0 20946
0.13850000 0.13851100 11679.53111170 0 200.29060534 0 3702.10930939 0 254.11760522 0 -184.65648270 0 20955
0.13950000 0.13949800 11645.98196750 0 249.50487470 0 3617.53889242 0 -65.21754331 0 195.03567998 0 20506
0.14050000 0.14048300 11294.21420801 0 249.57241588 0 3694.81264733 0 -89.82844257 0 -14.77723543 0 21447
0.14150000 0.14148400 11282.92043670 0 189.58698894 0 4069.57762547 0 -258.81891433 0 133.56323982 0 21771
0.14250000 0.14249400 11135.21562362 0 256.74506789 0 4135.54653674 0 -235.93463340 0 -274.62355078 0 22470
0.14350000 0.14350900 10739.21392648 0 415.82780196 0 4354.49068770 0 263.58222847 0 547.56078649 0 22519
0.14450000 0.14449900 10607.37575486 0 126.83680250 0 3984.21000112 0 493.06391096 0 770.76113911 0 22218
0.14550000 0.14550500 10512.80702859 0 -77.51502087 0 3801.61629253 0 888.29497430 0 615.47953416 0 23559
0.14650000 0.14650700 10616.96438815 0 -141.46223635 0 3450.65681276 0 729.95630046 0 816.86629966 0 23044
0.14750000 0.14750500 10487.03065641 0 -7.21824785 0 2949.33516194 0 574.66362318 0 606.96159468 0 23649
0.14850000 0.14849900 10587.57843809 0 70.36119180 0 2698.80166827 0 155.99244821 0 661.94786696 0 23640
0.14950000 0.14949500 10421.43820418 0 163.69546458 0 2673.09173004 0 -192.03729442 0 511.22363090 0 24457
0.15050000 0.15050000 10376.34062520 0 160.65611142 0 2441.81300923 0 -263.40285681 0 464.48291891 0 24591
0.15150000 0.15149900 10197.35649450 0 53.02547428 0 2327.13694108 0 -234.66242328 0 -109.90821436 0 25020
0.15250000 0.15250500 10284.91643917 0 -35.11023128 0 2604.39902687 0 -120.06829033 0 5.71121586 0 25297
0.15350000 0.15350100 10290.16472113 0 143.07990300 0 2829.04542511 0 -163.62238724 0 -47.30495766 0 25452
0.15450000 0.15450400 10184.56795934 0 241.48961876 0 2967.59342557 0 22.35701683 0 -249.30889455 0 26061
0.15550000 0.15549900 9912.17769647 0 196.02443859 0 3079.54570181 0 -41.60603208 0 134.14010795 0 26128
0.15650000 0.15649500 9813.62293326 0 405.65344268 0 3148.43770683 0 156.62910688 0 446.48042599 0 26331
0.15750000 0.15749700 9496.04651281 0 334.18490768 0 3259.41561849 0 36.53058910 0 590.98090827 0 27345
0.15850000 0.15849900 9358.83826366 0 47.07520692 0 3191.30974853 0 522.45650443 0 623.37963792 0 26980
0.15950000 0.15949700 9251.96818451 0 -45.92556744 0 3106.18571532 0 160.56199666 0 578.70502174 0 27777
0.16050000 0.16050000 9358.41751532 0 -57.07761299 0 2861.77521728 0 103.90801081 0 234.47087206 0 28224
0.16150000 0.16150500 9341.00074838 0 47.34315718 0 2756.34454035 0 -54.84255351 0 193.18328004 0 28075
0.16250000 0.16249700 9307.52911045 0 204.27110611 0 2820.69689220 0 -142.18304469 0 79.99212138 0 28590
0.16350000 0.16349900 9115.72322762 0 202.39656152 0 2862.30668887 0 -151.46165289 0 -63.19396522 0 29163
0.16450000 0.16449100 8965.31676728 0 186.64950117 0 2888.49273706 0 -131.13840069 0 -134.63504086 0 28996
0.16550000 0.16550500 8919.41090858 0 217.91885369 0 2946.72209329 0 6.24950801 0 -110.63799129 0 30777
0.16650000 0.16650700 8660.53995432 0 165.74384468 0 2929.29425402 0 114.63952947 0 -209.26804630 0 29211
0.16750000 0.16749900 8587.25223635 0 185.20124108 0 2990.62386119 0 136.96908694 0 -378.62811227 0 30922
0.16850000 0.16850800 8440.27819671 0 85.51488627 0 2807.44331939 0 210.57015170 0 -307.79402147 0 30867
0.16950000 0.16949900 8423.70292645 0 74.07806052 0 2753.00069826 0 -168.25061901 0 -381.16146018 0 30852
0.17050000 0.17049200 8402.10082073 0 -33.31263934 0 2660.13711000 0 292.30162458 0 -303.38612896 0 31257
0.17150000 0.17149500 8442.30443215 0 -65.04071828 0 2743.83281331 0 7.46658902 0 -712.58493005 0 32608
0.17250000 0.17250900 8460.57376810 0 71.90788486 0 2625.61360122 0 -3.43660603 0 -540.60072311 0 32361
0.17350000 0.17350400 8377.88564635 0 181.72010216 0 2462.52932897 0 82.76285994 0 -523.55377182 0 32508
0.17450000 0.17449800 8235.72806801 0 156.68446851 0 2433.89629699 0 218.71273938 0 -564.71292487 0 32791
0.17550000 0.17549800 8126.33349880 0 120.56986665 0 2453.49431191 0 137.14181520 0 -89.88945108 0 33633
0.17650000 0.17650100 8029.62781383 0 88.95871146 0 2427.40791464 0 256.19588058 0 -576.48169892 0 33984
0.17750000 0.17750300 7972.60534102 0 133.27425214 0 2181.94554574 0 345.33141707 0 -412.46513691 0 34069
0.17850000 0.17849800 7826.89354640 0 86.44119697 0 2197.70146395 0 105.39258813 0 -53.69523921 0 34536
