### header ###
fiducial parameters:
Omega_m = 0.31
Omega_nu = 0
Omega_de = 0.69
Omega_k = 0
H_0 = 100
w_de = -1
zeff = 0
beta = 0
fgrowth = 0
b_1 = 2
gamma = 0.55
Lx = 3500 Ly = 3500 Lz = 3500
nx = 700 ny = 700 nz = 700
xoffset = -685.467585 yoffset = -31.7331281 zoffset = 572.489161
bins = 400 dk = 0.001
kx_ny = 0.628318531 ky_ny = 0.628318531 kz_ny = 0.628318531
############################
A(data) = 8.0386624 (not used)
A(ran) = 8.03420011 (used)
Ngal = 477442
weighted Ngal = 0
Nran = 23820508
weighted Nran = 0
SN(data) = 3490.53392
SN(ran) = 69.9807967
SN(data+ran) = 3560.51472
############################
13 columns: k_central k_mean P_0(k) sigma^{lin}_{P_0(k)} P^img_1(k) sigma^{lin}_{P_1(k)} P_2(k) sigma^{lin}_{P_2(k)} P^img_3(k) sigma^{lin}_{P_3(k)} P_4(k) sigma^{lin}_{P_4(k)} N_modes
### header ###
0.00050000 0 0 0 0 0 0 0 0 0 0 0 0
0.00150000 0.00179520 12069.16622207 0 -12051.45050236 0 -11475.68961179 0 1413.00580406 0 -50145.11970142 0 3
0.00250000 0.00253879 34693.13680076 0 -28963.87304660 0 -12809.90475244 0 -15494.16845822 0 32781.83209057 0 6
0.00350000 0.00331552 35509.72075614 0 -14940.22004754 0 -9038.81485943 0 -10790.41235644 0 19899.62505706 0 7
0.00450000 0.00420575 38851.79127940 0 5071.10262229 0 -1245.70297605 0 -18270.11101350 0 4471.54730569 0 24
0.00550000 0.00557378 38428.38557833 0 -11084.94726894 0 2276.87965873 0 26618.53320351 0 22602.26882205 0 45
0.00650000 0.00659388 43996.87917612 0 -22682.10028399 0 366.84051526 0 -3016.88741566 0 13069.10787644 0 40
0.00750000 0.00754703 71125.62510728 0 -10988.18622235 0 -5236.29063626 0 -1052.88508272 0 3687.63778085 0 57
0.00850000 0.00846663 97155.88569318 0 -17326.74893896 0 34049.50255905 0 -22429.98344787 0 60626.84671424 0 75
0.00950000 0.00948925 100366.63844409 0 -1186.55461687 0 54466.09446190 0 -28540.91023853 0 24521.43488286 0 112
0.01050000 0.01054430 115208.64697050 0 21500.68322584 0 59307.57921210 0 5706.65406688 0 27919.19919996 0 105
0.01150000 0.01145670 89357.09370717 0 18751.42497337 0 63510.85515976 0 12394.02823225 0 -7385.47317286 0 144
0.01250000 0.01249090 86875.01065257 0 10311.61181431 0 63227.84653739 0 21820.56268985 0 -20224.04417425 0 169
0.01350000 0.01339930 83230.99783151 0 -5117.76139908 0 61958.40449693 0 29483.60797359 0 -14190.29148758 0 180
0.01450000 0.01448870 75732.04440158 0 2229.05828784 0 25966.70544144 0 31504.97159248 0 -42504.21906732 0 267
0.01550000 0.01550050 74506.89166040 0 -5694.55201585 0 1004.52781131 0 25538.64936395 0 -25478.19447044 0 238
0.01650000 0.01653350 74084.26102207 0 -4868.82232018 0 -10403.81106307 0 8099.29488159 0 -43210.63339075 0 315
0.01750000 0.01747870 81715.63945683 0 -401.31309135 0 -17586.39495595 0 -11094.80163803 0 -22403.40986830 0 297
0.01850000 0.01844180 74014.83754546 0 -977.76378776 0 -11934.63747552 0 -8506.30246960 0 -9929.09620880 0 388
0.01950000 0.01947590 81359.22132092 0 1488.06509400 0 -4161.01288382 0 -21223.76438213 0 -212.48455666 0 399
0.02050000 0.02045430 81179.07459612 0 3288.08186744 0 7590.63227942 0 -1606.07393192 0 -2267.13601289 0 462
0.02150000 0.02154770 76225.75936525 0 11429.29657080 0 26590.74166822 0 -15620.17151466 0 1585.12509336 0 571
0.02250000 0.02255340 68635.45925557 0 11152.82062008 0 23066.53140169 0 681.26796653 0 11036.62764343 0 510
0.02350000 0.02348930 66068.78363936 0 -821.90199299 0 31894.05308661 0 13323.99279377 0 17715.94115633 0 555
0.02450000 0.02439640 59929.51169716 0 -119.41170147 0 26829.57171456 0 11140.64106278 0 16204.01520234 0 592
0.02550000 0.02547300 65460.47011382 0 5155.46266508 0 30401.17153131 0 7624.20356827 0 -6620.77413158 0 837
0.02650000 0.02652900 58509.92893217 0 4274.54850251 0 29020.89551942 0 -4797.52762067 0 14775.13168450 0 723
0.02750000 0.02749970 54080.88828146 0 4893.45824290 0 32438.25785144 0 -475.17546299 0 10947.57293491 0 826
0.02850000 0.02848090 57190.21853703 0 -1586.87452068 0 36951.89106376 0 4326.20089779 0 5356.62466239 0 831
0.02950000 0.02946900 56405.85504688 0 -3668.63767146 0 34438.36260668 0 2809.33668694 0 1140.80377071 0 996
0.03050000 0.03053250 60364.54333929 0 -1577.88379293 0 32768.21313104 0 11670.11963561 0 4444.60833940 0 1041
0.03150000 0.03150510 63574.74247396 0 -397.47542357 0 29394.47575880 0 2786.59413176 0 1807.40201410 0 1036
0.03250000 0.03246190 61089.66989166 0 3691.75668568 0 27496.01494539 0 3769.71692473 0 4365.18655348 0 1059
0.03350000 0.03345080 57911.80194546 0 4777.80781017 0 28445.13462885 0 2878.07367941 0 12982.19012661 0 1302
0.03450000 0.03451200 54226.82152257 0 1528.94411723 0 28525.74115353 0 4703.23570252 0 4201.01719339 0 1339
0.03550000 0.03553350 55248.13276384 0 -2296.83198806 0 31426.69025601 0 11404.93745620 0 6929.20481173 0 1365
0.03650000 0.03647120 53371.04153734 0 2039.92083529 0 25721.89633970 0 3733.96438789 0 2853.91386666 0 1308
0.03750000 0.03744890 52648.57234292 0 4277.69304276 0 24597.39103112 0 2723.62582051 0 3987.26596277 0 1579
0.03850000 0.03847530 50006.71564119 0 827.04508786 0 24612.89228587 0 2738.76168854 0 8381.00804195 0 1662
0.03950000 0.03950240 46457.14975083 0 2288.56096142 0 22468.84730798 0 1616.47084492 0 5819.60285236 0 1683
0.04050000 0.04050350 46126.75157824 0 1207.66954029 0 15232.52942276 0 6542.95783276 0 4498.68557382 0 1822
0.04150000 0.04152450 44267.81896444 0 -334.09522185 0 16233.91047935 0 4074.89234138 0 834.33399929 0 1887
0.04250000 0.04250150 44680.81668017 0 1727.37125031 0 14855.07386969 0 1025.73463504 0 491.07199973 0 1920
0.04350000 0.04349210 43354.35216690 0 1594.19332739 0 14971.77617328 0 -673.94251643 0 -363.53210461 0 2005
0.04450000 0.04448520 40890.31700176 0 2304.93692982 0 11458.63823157 0 -1192.05756230 0 2392.91762283 0 2151
0.04550000 0.04548030 39688.08397295 0 1370.65416163 0 15855.45841705 0 -1585.15831034 0 4282.87489078 0 2274
0.04650000 0.04648670 41572.15076409 0 -1725.47788276 0 17169.74337303 0 3216.49928749 0 4271.79149363 0 2311
0.04750000 0.04749250 40530.24499865 0 326.45199602 0 16293.03669389 0 2575.21237865 0 3579.52760132 0 2568
0.04850000 0.04851840 39911.63421104 0 1348.74203081 0 15072.97722212 0 2567.94893356 0 2689.15767335 0 2493
0.04950000 0.04949480 40324.52120352 0 507.32949426 0 15576.54655487 0 948.29258079 0 6932.57079848 0 2644
0.05050000 0.05050630 39104.79390150 0 1129.15568501 0 14605.06077528 0 595.26589797 0 4554.91083925 0 2829
0.05150000 0.05149060 38850.68404691 0 620.87618528 0 13913.92626010 0 891.67424783 0 4555.13228574 0 2784
0.05250000 0.05249300 37665.17022858 0 610.01091293 0 12785.98853083 0 3994.42975693 0 4437.44454524 0 3055
0.05350000 0.05348950 37574.15571857 0 813.37851734 0 11808.30224934 0 1048.56244712 0 6036.73114205 0 3009
0.05450000 0.05448610 37189.61387762 0 -130.89370231 0 9877.72062164 0 3553.68479519 0 3320.30233267 0 3336
0.05550000 0.05550870 36836.51743915 0 -11.54699538 0 9979.58600997 0 348.19361304 0 3441.88753150 0 3349
0.05650000 0.05647670 36188.34354427 0 1882.41701474 0 8708.10666174 0 1446.47744198 0 1095.21015158 0 3324
0.05750000 0.05747970 35649.45349535 0 986.77001677 0 9082.80520593 0 -1204.29248122 0 2910.09484279 0 3639
0.05850000 0.05849280 33339.10219869 0 703.17234672 0 8803.38401681 0 -2052.52114093 0 1817.10137064 0 3846
0.05950000 0.05951020 33846.21467538 0 572.37829534 0 11262.87952878 0 -1289.58259930 0 559.95071796 0 3787
0.06050000 0.06049470 33062.40480147 0 189.32678931 0 10214.96149096 0 -802.11464130 0 -2790.18156500 0 3930
0.06150000 0.06148310 33670.16471077 0 150.96339827 0 12546.82631475 0 -723.34612254 0 -2302.94391136 0 4083
0.06250000 0.06249100 33359.91816935 0 719.39883874 0 12143.12935186 0 -1567.88548362 0 -4231.80932871 0 4303
0.06350000 0.06350600 32817.04208349 0 1757.97515611 0 14970.66894080 0 -2864.22220106 0 -3579.80440944 0 4470
0.06450000 0.06451750 32106.19883013 0 1370.23341328 0 15888.01105202 0 18.41637642 0 -1418.19872440 0 4479
0.06550000 0.06550280 31040.59828959 0 347.31336321 0 14989.27044649 0 1810.45797575 0 660.24051447 0 4636
0.06650000 0.06648880 31246.32208472 0 -228.53721319 0 15336.94144580 0 3651.09910895 0 -1160.90004026 0 4653
0.06750000 0.06749660 30814.39069354 0 620.90275886 0 13808.18555809 0 2292.42520278 0 1330.93773250 0 5220
0.06850000 0.06852730 30262.76747108 0 1097.83097086 0 12969.67839957 0 3647.17950596 0 982.77844367 0 5029
0.06950000 0.06949320 29191.52004487 0 379.90253685 0 12138.81114518 0 1531.45753497 0 1395.00220390 0 5040
0.07050000 0.07048030 28849.38520798 0 663.45813206 0 11103.54877463 0 1161.91869414 0 2682.15996407 0 5475
0.07150000 0.07148790 27605.52023785 0 431.07771493 0 9200.74760990 0 2867.08993319 0 2767.05147845 0 5509
0.07250000 0.07249820 27336.46274476 0 -26.22103674 0 9193.46202017 0 780.56125381 0 2455.90807872 0 5916
0.07350000 0.07351270 27961.93837376 0 -506.73933935 0 7701.39981691 0 1297.05641856 0 1641.28392484 0 5721
0.07450000 0.07449140 27501.88327755 0 -6.99269352 0 7996.87587702 0 738.11438939 0 2155.98094404 0 6028
0.07550000 0.07549160 26867.32834219 0 606.21199829 0 8491.72021781 0 -585.05832172 0 1869.57311795 0 6183
0.07650000 0.07648840 27000.63913301 0 1107.32106046 0 8400.00815134 0 -721.02868496 0 1792.45437559 0 6330
0.07750000 0.07749960 26262.66868384 0 784.64361997 0 9837.55022720 0 -371.35470209 0 1014.25706313 0 6583
0.07850000 0.07848650 25917.65504249 0 705.57836291 0 9792.18691241 0 -1567.19899948 0 689.66521768 0 6549
0.07950000 0.07947320 24989.90494594 0 531.97981100 0 9693.96431895 0 -559.58533124 0 619.58515220 0 6828
0.08050000 0.08048110 25240.02876359 0 190.08302909 0 9767.48455574 0 -681.15502882 0 922.30251274 0 7147
0.08150000 0.08149960 24903.54081235 0 -331.33710573 0 8550.86857700 0 1167.72059235 0 -1104.05583187 0 7386
0.08250000 0.08250610 24993.66953638 0 223.24353469 0 8565.39546716 0 787.51135210 0 -1522.71039836 0 7227
0.08350000 0.08350160 24583.21845535 0 520.98277799 0 8503.72261792 0 856.11326221 0 -2336.72557438 0 7798
0.08450000 0.08449610 24005.68599281 0 1070.83221402 0 8466.85177627 0 -498.79605352 0 -2037.49599615 0 7371
0.08550000 0.08548940 22951.48994683 0 1226.79144526 0 9334.88882508 0 -459.27560455 0 -1021.42085729 0 8256
0.08650000 0.08650700 22359.89563177 0 936.50166209 0 10097.94916228 0 25.63985041 0 506.35512968 0 8037
0.08750000 0.08749060 21771.29084441 0 438.63346939 0 9988.52137610 0 544.73955813 0 1269.39775116 0 8155
0.08850000 0.08849210 21276.46864826 0 151.46276012 0 9863.66984144 0 1134.54790719 0 876.75539737 0 8718
0.08950000 0.08949900 21132.30697912 0 257.84787145 0 9387.19448752 0 1563.97695296 0 628.38322150 0 8571
0.09050000 0.09049190 20933.44802538 0 228.99450020 0 9089.94685544 0 1188.94623903 0 1385.52429386 0 8932
0.09150000 0.09150830 20604.04636203 0 163.03001786 0 7904.02336109 0 1185.19272091 0 1091.19975553 0 9285
0.09250000 0.09250820 20361.23027875 0 217.64868896 0 7536.77649151 0 1586.55342326 0 1194.57098003 0 9204
0.09350000 0.09350330 20046.77625390 0 376.80228590 0 7168.52204036 0 323.44807430 0 562.58150234 0 9349
0.09450000 0.09448040 19801.08136618 0 633.22625638 0 6560.57390154 0 476.64254603 0 1120.41962072 0 9564
0.09550000 0.09549270 19212.47657882 0 508.85083169 0 6673.76627817 0 -255.72419955 0 1164.98572812 0 10155
0.09650000 0.09649430 18645.13065511 0 679.91603567 0 6048.54531263 0 543.15510844 0 1196.67472175 0 9913
0.09750000 0.09749140 18289.70902843 0 922.70222367 0 6976.43934941 0 -177.64216493 0 1101.50476824 0 10476
0.09850000 0.09850240 17166.42167558 0 812.66435239 0 6008.56314771 0 29.94842417 0 893.25426858 0 10575
0.09950000 0.09950330 16466.54002379 0 657.21334087 0 6765.65550184 0 508.93941029 0 1378.50443992 0 10882
0.10050000 0.10051200 16338.43322564 0 -60.22735723 0 6073.00407816 0 929.68996786 0 1071.55523683 0 10875
0.10150000 0.10150300 16452.58889452 0 -421.16687699 0 6385.81939893 0 777.94597069 0 1283.80284575 0 11118
0.10250000 0.10250800 16589.22138279 0 -67.71125230 0 6068.51978660 0 205.35840841 0 327.29792164 0 11575
0.10350000 0.10349800 16673.48177465 0 264.23992456 0 6268.96208280 0 -152.63974825 0 1735.27689023 0 11364
0.10450000 0.10450100 16349.28410396 0 403.53641418 0 5990.62598150 0 52.50607152 0 1956.96697775 0 12093
0.10550000 0.10551000 16313.52049480 0 158.99415547 0 5710.83940566 0 266.67694326 0 1355.09754525 0 12067
0.10650000 0.10649700 15988.10486838 0 241.43093544 0 5670.01574406 0 483.54614055 0 1440.22157846 0 12054
0.10750000 0.10749900 15830.43496296 0 316.23334745 0 5154.69867467 0 951.28875189 0 905.42386079 0 12807
0.10850000 0.10850100 15414.55844277 0 74.81724893 0 4305.25205923 0 423.90838461 0 812.04873113 0 12736
0.10950000 0.10950300 15556.61637020 0 -1.71731758 0 4424.58957613 0 -257.96634532 0 476.51742876 0 12933
0.11050000 0.11050200 15532.70014859 0 -10.61139501 0 4429.92643669 0 -20.70004342 0 141.15553295 0 13428
0.11150000 0.11150900 15368.38684828 0 133.32629207 0 4319.62393685 0 -221.53396774 0 372.70995465 0 13453
0.11250000 0.11250000 15496.27219994 0 191.14597227 0 4753.26046605 0 -455.13123337 0 511.36646389 0 13668
0.11350000 0.11349100 15324.42971875 0 183.47174394 0 4942.75223299 0 30.94770148 0 -235.48177531 0 13791
0.11450000 0.11448600 15221.01420494 0 282.08408324 0 5632.11517620 0 87.06777983 0 508.96819833 0 14205
0.11550000 0.11549300 14950.18513988 0 331.49211828 0 5275.11020707 0 -77.96090339 0 440.97305162 0 14776
0.11650000 0.11649800 14770.70275457 0 77.59618101 0 5575.23664361 0 -84.56709527 0 895.41337192 0 14553
0.11750000 0.11747300 14837.24742673 0 253.58059746 0 5684.71979141 0 375.36288368 0 870.35337916 0 14568
0.11850000 0.11849100 14594.32062021 0 16.64347577 0 5360.95394139 0 403.82761632 0 895.67357155 0 16015
0.11950000 0.11950300 14405.53748205 0 124.74524034 0 5333.16240610 0 956.90463503 0 1233.26875528 0 15270
0.12050000 0.12050700 14409.96641198 0 373.20045864 0 5077.76816183 0 596.93006839 0 364.50757642 0 15999
0.12150000 0.12150000 13725.47529169 0 261.95570395 0 4582.91274871 0 318.72572776 0 972.55647340 0 15670
0.12250000 0.12250700 13707.53812548 0 574.76881027 0 4749.58445421 0 339.02240639 0 664.26530454 0 16887
0.12350000 0.12352200 13136.42761134 0 185.41382972 0 4198.66986053 0 -236.33323709 0 767.99637961 0 16407
0.12450000 0.12449800 13101.54978816 0 203.37314057 0 4040.93352116 0 370.69922046 0 947.64817149 0 16306
0.12550000 0.12549900 13014.85348483 0 -79.67357059 0 3937.23012691 0 200.16216637 0 1231.65219585 0 17523
0.12650000 0.12650100 13282.47157570 0 -242.49498585 0 3950.19581927 0 635.78949957 0 788.66730281 0 17154
0.12750000 0.12750600 13380.57237359 0 -30.57068882 0 3680.48505902 0 239.96274517 0 560.33714210 0 18007
0.12850000 0.12850300 13153.58971481 0 581.65136737 0 3835.15436441 0 -63.10737964 0 720.15286406 0 17496
0.12950000 0.12949900 12906.23397836 0 482.82754667 0 4414.08193988 0 -820.26771784 0 879.16916418 0 18405
0.13050000 0.13049000 12545.49763577 0 326.87163713 0 4397.38487405 0 -113.12815714 0 1262.07894445 0 18100
0.13150000 0.13148800 12171.47450339 0 167.52316727 0 4389.42387251 0 13.84915316 0 774.31314092 0 19059
0.13250000 0.13249300 12192.06902756 0 185.62420389 0 4426.78189644 0 311.50878645 0 835.33493746 0 18957
0.13350000 0.13349100 12110.02310065 0 -97.25885831 0 4313.74453237 0 578.29423849 0 282.90454251 0 19468
0.13450000 0.13450700 12044.91783072 0 148.39572615 0 3928.95910027 0 123.74430217 0 338.68027155 0 19953
0.13550000 0.13551000 11920.24345326 0 126.93866788 0 3863.02340598 0 48.66652145 0 367.66208177 0 19956
0.13650000 0.13649900 11837.97607986 0 40.13418794 0 4078.39119603 0 196.20823918 0 105.28906189 0 19723
0.13750000 0.13749600 11826.57158529 0 64.97915615 0 4089.43030387 0 -5.06868886 0 589.13847342 0 20946
0.13850000 0.13851100 11845.28381424 0 94.66638418 0 4105.77305530 0 -94.26689470 0 69.29437331 0 20955
0.13950000 0.13949800 11723.93113422 0 0.90581693 0 3867.37482963 0 -7.88747024 0 165.66301670 0 20506
0.14050000 0.14048300 11790.91869938 0 134.04488595 0 4024.33610626 0 201.05348852 0 -201.02137878 0 21447
0.14150000 0.14148400 11534.70510307 0 116.95807429 0 3665.69243306 0 274.71766554 0 -2.22895864 0 21771
0.14250000 0.14249400 11396.52248934 0 176.50835886 0 3129.36009117 0 603.00102409 0 -184.63544528 0 22470
0.14350000 0.14350900 11228.44459859 0 246.32711747 0 2886.40006767 0 618.59639360 0 -519.92426374 0 22519
0.14450000 0.14449900 10862.34925079 0 263.05740027 0 2493.54291078 0 295.67425472 0 -170.37207645 0 22218
0.14550000 0.14550500 10702.56453133 0 46.72111397 0 2286.47936435 0 219.16559746 0 -178.82468922 0 23559
0.14650000 0.14650700 10674.37439234 0 149.44759701 0 2262.54099809 0 48.43776721 0 59.70441133 0 23044
0.14750000 0.14750500 10597.39959020 0 128.37474841 0 2538.77335767 0 -1.99513328 0 51.04895358 0 23649
0.14850000 0.14849900 10475.49329395 0 229.42521364 0 2582.74155952 0 -20.83280059 0 72.92875320 0 23640
0.14950000 0.14949500 10228.94583721 0 339.25049628 0 2675.09582083 0 -105.38206942 0 346.23048985 0 24457
0.15050000 0.15050000 10102.84312985 0 200.93612188 0 2905.85414238 0 74.43547517 0 662.49151811 0 24591
0.15150000 0.15149900 10036.15451747 0 41.92867962 0 2936.50233748 0 1.50101971 0 502.75551688 0 25020
0.15250000 0.15250500 9889.47943060 0 38.70818323 0 2714.07040420 0 329.86227207 0 439.47385884 0 25297
0.15350000 0.15350100 9923.51575709 0 230.82586273 0 2860.11436855 0 -124.22816277 0 581.11768132 0 25452
0.15450000 0.15450400 9788.24516478 0 133.43701532 0 2789.07433252 0 -53.20396016 0 553.29846521 0 26061
0.15550000 0.15549900 9607.12407539 0 193.77232772 0 2987.65647814 0 87.29896997 0 758.44096329 0 26128
0.15650000 0.15649500 9452.38833605 0 218.41489384 0 2978.01248322 0 111.54702915 0 497.84936975 0 26331
0.15750000 0.15749700 9409.13983531 0 45.29311624 0 3224.72602483 0 172.14254119 0 825.71640889 0 27345
0.15850000 0.15849900 9220.72208387 0 125.73621341 0 3055.90628832 0 30.72691933 0 848.25855498 0 26980
0.15950000 0.15949700 9165.18330258 0 123.92035214 0 3066.90110687 0 166.32182003 0 1100.29234867 0 27777
0.16050000 0.16050000 9206.22841069 0 75.14277527 0 2955.18134945 0 216.28457854 0 1139.60795963 0 28224
0.16150000 0.16150500 9037.03221513 0 55.23761406 0 2809.87923085 0 287.59256484 0 1136.75129983 0 28075
0.16250000 0.16249700 9029.70233610 0 102.81284717 0 2431.64861505 0 310.29415242 0 830.56387269 0 28590
0.16350000 0.16349900 8892.31692975 0 110.01473012 0 2452.46458571 0 139.22119780 0 959.58303041 0 29163
0.16450000 0.16449100 8897.32162057 0 209.03442025 0 2312.89793137 0 45.18106432 0 1046.76651603 0 28996
0.16550000 0.16550500 8754.03466509 0 112.59447108 0 2261.04623424 0 20.80600557 0 1006.76884986 0 30777
0.16650000 0.16650700 8659.56558974 0 111.57581720 0 2540.32348314 0 -99.79552793 0 948.21950345 0 29211
0.16750000 0.16749900 8553.50379030 0 131.14282962 0 2455.18837761 0 -203.22587865 0 819.43065009 0 30922
0.16850000 0.16850800 8387.61821987 0 206.38259846 0 2807.17758360 0 -202.50285584 0 797.55948687 0 30867
0.16950000 0.16949900 8331.83584743 0 164.64657729 0 2915.71958379 0 -92.50683795 0 950.99090635 0 30852
0.17050000 0.17049200 8218.06770992 0 37.48535567 0 2728.45335414 0 278.17665981 0 730.12017087 0 31257
0.17150000 0.17149500 8257.44089698 0 -50.17025388 0 2623.24412371 0 478.13066648 0 740.96108410 0 32608
0.17250000 0.17250900 8229.07360079 0 -25.73152926 0 2430.81819069 0 333.13525128 0 394.40949683 0 32361
0.17350000 0.17350400 8238.41864294 0 119.15260907 0 2234.59445025 0 32.00588357 0 534.76339346 0 32508
0.17450000 0.17449800 8079.64150504 0 177.85364633 0 2371.06085364 0 58.22060908 0 909.74206747 0 32791
0.17550000 0.17549800 8097.23542918 0 91.48807334 0 2547.94124262 0 -76.37401779 0 896.33348211 0 33633
0.17650000 0.17650100 8139.33240814 0 32.71550886 0 2482.62559851 0 -189.57370215 0 953.24855338 0 33984
0.17750000 0.17750300 8086.32918923 0 46.18189176 0 2728.50871576 0 -32.74983307 0 1210.51512777 0 34069
0.17850000 0.17849800 8105.86077021 0 47.64808901 0 2815.89150323 0 72.17904609 0 1349.20706845 0 34536
