### header ###
fiducial parameters:
Omega_m = 0.31
Omega_nu = 0
Omega_de = 0.69
Omega_k = 0
H_0 = 100
w_de = -1
zeff = 0
beta = 0
fgrowth = 0
b_1 = 2
gamma = 0.55
Lx = 3500 Ly = 3500 Lz = 3500
nx = 700 ny = 700 nz = 700
xoffset = -685.467585 yoffset = -31.7331281 zoffset = 572.489161
bins = 400 dk = 0.001
kx_ny = 0.628318531 ky_ny = 0.628318531 kz_ny = 0.628318531
############################
A(data) = 8.000047 (not used)
A(ran) = 7.99879241 (used)
Ngal = 475319
weighted Ngal = 0
Nran = 23820508
weighted Nran = 0
SN(data) = 3486.7474
SN(ran) = 69.6723828
SN(data+ran) = 3556.41978
############################
13 columns: k_central k_mean P_0(k) sigma^{lin}_{P_0(k)} P^img_1(k) sigma^{lin}_{P_1(k)} P_2(k) sigma^{lin}_{P_2(k)} P^img_3(k) sigma^{lin}_{P_3(k)} P_4(k) sigma^{lin}_{P_4(k)} N_modes
### header ###
0.00050000 0 0 0 0 0 0 0 0 0 0 0 0
0.00150000 0.00179520 3000.04640961 0 -1727.14980381 0 -96.98238236 0 23517.06429856 0 -16373.64321857 0 3
0.00250000 0.00253879 22174.65563755 0 -18467.41984177 0 -9276.75911978 0 -13116.94031966 0 15246.14838228 0 6
0.00350000 0.00331552 27597.32671748 0 -18343.85269680 0 -10837.82405131 0 -23142.15538020 0 19499.91413111 0 7
0.00450000 0.00420575 44691.22466550 0 -19945.13231207 0 -20609.69324768 0 -34329.85382346 0 -6728.95074506 0 24
0.00550000 0.00557378 55874.05128584 0 -19897.41059210 0 -11682.63136265 0 -31660.98064917 0 7881.77906053 0 45
0.00650000 0.00659388 67243.00368638 0 -20242.97784969 0 -23502.22738331 0 -10928.55068088 0 17027.13182936 0 40
0.00750000 0.00754703 87010.42518511 0 -13860.22548473 0 9419.76926714 0 -24756.83250851 0 -8044.02183610 0 57
0.00850000 0.00846663 96279.95407678 0 4415.39954653 0 -14615.13659087 0 -6211.97282695 0 -5985.83166486 0 75
0.00950000 0.00948925 92263.57897206 0 8766.24743937 0 13699.01243537 0 -24651.75614598 0 -1433.86606401 0 112
0.01050000 0.01054430 89964.52144672 0 7715.56132035 0 8060.78533587 0 -19386.31207847 0 -14987.60959777 0 105
0.01150000 0.01145670 83854.81261179 0 -3160.35152834 0 31738.59764615 0 1796.45148485 0 -12286.95885125 0 144
0.01250000 0.01249090 88213.98689289 0 2409.78077353 0 33243.99092850 0 3836.32803084 0 -5762.60252419 0 169
0.01350000 0.01339930 90377.40843921 0 8755.20833152 0 37576.92379978 0 13520.74800579 0 -25583.16010972 0 180
0.01450000 0.01448870 83211.28909333 0 5874.61016205 0 35826.27852270 0 -13391.20180542 0 -25852.66049581 0 267
0.01550000 0.01550050 78698.43094375 0 7106.46165975 0 40408.78159539 0 -2875.09522403 0 -8924.72562450 0 238
0.01650000 0.01653350 74797.98307988 0 2726.57105892 0 44200.72067604 0 -18875.65645784 0 -26986.35583399 0 315
0.01750000 0.01747870 76304.37287146 0 5074.18072859 0 46394.81256210 0 9241.46054826 0 -25330.04676437 0 297
0.01850000 0.01844180 73170.01916180 0 4152.63113393 0 46701.95885257 0 4908.29515816 0 -28044.42719366 0 388
0.01950000 0.01947590 66911.05538831 0 3343.97496313 0 28598.81849733 0 15963.74575378 0 -22385.91559509 0 399
0.02050000 0.02045430 64594.83575950 0 300.41542421 0 20160.93192278 0 19045.61664380 0 -24967.87101955 0 462
0.02150000 0.02154770 63726.10115423 0 -2688.37153829 0 15246.92344502 0 14427.90357819 0 -13994.20061504 0 571
0.02250000 0.02255340 66890.01797116 0 -3.99970018 0 12865.70926952 0 9358.41751532 0 -12714.35058925 0 510
0.02350000 0.02348930 65594.99886037 0 2040.97270615 0 13039.76621567 0 -7100.11721763 0 4865.21274229 0 555
0.02450000 0.02439640 65366.24462962 0 994.20729735 0 21395.27469357 0 -6162.93350033 0 5734.86635052 0 592
0.02550000 0.02547300 64468.50053332 0 571.73720773 0 24443.37499289 0 -5262.23309331 0 3973.51413534 0 837
0.02650000 0.02652900 66250.36976638 0 1009.30994840 0 31670.28140202 0 1433.06885663 0 11888.79805077 0 723
0.02750000 0.02749970 66162.89840032 0 389.78237229 0 33751.32485169 0 6322.41926702 0 2852.62947698 0 826
0.02850000 0.02848090 64886.70224172 0 3508.88616898 0 27222.30707588 0 10553.01064000 0 7259.08258505 0 831
0.02950000 0.02946900 63613.71705732 0 3637.63516197 0 20315.05868426 0 5654.10481329 0 -12477.40283813 0 996
0.03050000 0.03053250 55161.99007675 0 2418.39504224 0 17297.29655494 0 764.07234769 0 -4129.00279277 0 1041
0.03150000 0.03150510 58504.83566275 0 -823.89279699 0 18427.22730268 0 -3894.56845939 0 -8625.11958723 0 1036
0.03250000 0.03246190 54670.82174780 0 323.47464788 0 15943.37267611 0 -1023.34633457 0 -14316.40526726 0 1059
0.03350000 0.03345080 57078.72022611 0 2278.18619306 0 19301.27662386 0 -1152.17504830 0 -8967.24335180 0 1302
0.03450000 0.03451200 53181.70478294 0 1290.41302366 0 13223.01319142 0 2361.72688382 0 -6680.37645608 0 1339
0.03550000 0.03553350 52666.73095562 0 1230.97678404 0 19118.14037136 0 365.35903820 0 -1492.00684164 0 1365
0.03650000 0.03647120 55081.82644506 0 793.28335503 0 14059.63805472 0 2991.88610622 0 -8544.98917252 0 1308
0.03750000 0.03744890 50910.77096263 0 1753.70123873 0 17244.59228880 0 2265.10977745 0 -6584.81122057 0 1579
0.03850000 0.03847530 49573.78774078 0 2514.08207332 0 14101.71288903 0 670.35729766 0 -9056.64130239 0 1662
0.03950000 0.03950240 47178.17954302 0 1176.65595848 0 11980.25545378 0 909.62137913 0 -9540.90050065 0 1683
0.04050000 0.04050350 45922.24573884 0 630.28323244 0 9862.76191081 0 152.90548405 0 -11478.34696975 0 1822
0.04150000 0.04152450 46620.46654190 0 -207.57508784 0 9947.31018312 0 1147.74611838 0 -12352.28556768 0 1887
0.04250000 0.04250150 45725.71197331 0 309.89001256 0 9319.26577476 0 280.73436685 0 -6681.89336458 0 1920
0.04350000 0.04349210 45437.83152802 0 950.45168413 0 10699.47535270 0 1959.15929806 0 -10133.03735963 0 2005
0.04450000 0.04448520 43705.78775664 0 2192.14315689 0 13742.96956490 0 1647.17440165 0 -1920.45045049 0 2151
0.04550000 0.04548030 43829.79779461 0 785.26809909 0 12559.89165803 0 3244.10259326 0 -3654.38758942 0 2274
0.04650000 0.04648670 42514.95922240 0 502.87731245 0 15056.59018139 0 451.54158566 0 4912.81266668 0 2311
0.04750000 0.04749250 42671.96478833 0 1254.54976358 0 15251.46309820 0 1841.88123358 0 7404.45113760 0 2568
0.04850000 0.04851840 42648.71290621 0 363.82330675 0 17399.38338977 0 -602.16617080 0 9532.83984819 0 2493
0.04950000 0.04949480 41146.08770507 0 884.98877810 0 15366.61527631 0 2474.57601837 0 7896.63812044 0 2644
0.05050000 0.05050630 40629.45302903 0 1735.32117953 0 16201.69001413 0 1150.94602025 0 4469.72037209 0 2829
0.05150000 0.05149060 39201.56602042 0 2594.15712641 0 13017.73228928 0 -1679.98170008 0 6631.34820179 0 2784
0.05250000 0.05249300 37509.38261838 0 1090.42358556 0 15240.83366637 0 3709.43918842 0 5296.29156445 0 3055
0.05350000 0.05348950 36073.19136616 0 298.41133342 0 14449.49461158 0 1544.22392548 0 6291.52748078 0 3009
0.05450000 0.05448610 35814.32041190 0 1217.95573005 0 13280.25711073 0 1769.96648388 0 1702.33672389 0 3336
0.05550000 0.05550870 33890.72542115 0 1756.93435757 0 13229.54586306 0 714.18930992 0 2565.83411952 0 3349
0.05650000 0.05647670 33550.36215623 0 264.00851298 0 11408.03770715 0 1712.09144206 0 1055.60001677 0 3324
0.05750000 0.05747970 33344.41691460 0 -1178.63790462 0 12147.33683529 0 -13.58064928 0 -173.51108054 0 3639
0.05850000 0.05849280 34489.73819384 0 321.48384388 0 11030.80360058 0 620.04908261 0 -1716.60895058 0 3846
0.05950000 0.05951020 33360.25033909 0 -228.87602633 0 11103.54877463 0 -1311.30650060 0 -2627.25230529 0 3787
0.06050000 0.06049470 34577.54172965 0 635.97772910 0 10792.28357933 0 -705.00813818 0 760.02984190 0 3930
0.06150000 0.06148310 34014.29256613 0 90.85429347 0 11659.15803403 0 -254.23054293 0 -3124.74293172 0 4083
0.06250000 0.06249100 33602.84497587 0 -94.34107928 0 11314.47656243 0 718.36689807 0 -2199.21837245 0 4303
0.06350000 0.06350600 33756.52884435 0 546.70157408 0 12491.57541390 0 -362.60535102 0 -2538.79550232 0 4470
0.06450000 0.06451750 33018.00477895 0 1302.79188281 0 12217.20320489 0 132.60880542 0 -1772.52419092 0 4479
0.06550000 0.06550280 32145.61630649 0 931.27884647 0 12427.68809970 0 717.91071829 0 -2271.27706237 0 4636
0.06650000 0.06648880 30823.58072314 0 2107.36236576 0 11479.89709522 0 542.05341212 0 -1882.00733872 0 4653
0.06750000 0.06749660 29810.24155574 0 1006.97258063 0 12396.02125072 0 156.85387508 0 -2536.92427942 0 5220
0.06850000 0.06852730 28816.27895677 0 342.34964000 0 12041.48541002 0 723.43137944 0 -2304.41653056 0 5029
0.06950000 0.06949320 28969.85210200 0 848.76677469 0 10237.13935758 0 843.73661753 0 -1047.71209257 0 5040
0.07050000 0.07048030 28303.51959442 0 15.63024733 0 9901.49290302 0 2539.91380712 0 -796.54636915 0 5475
0.07150000 0.07148790 27663.87138964 0 -26.69127838 0 9142.65112158 0 1487.92115378 0 439.44174910 0 5509
0.07250000 0.07249820 27896.83310383 0 707.55366565 0 9255.36738823 0 1384.59421857 0 -2670.54509533 0 5916
0.07350000 0.07351270 27026.43764983 0 695.63098629 0 9274.36749762 0 -868.68256534 0 -117.23266795 0 5721
0.07450000 0.07449140 27133.72847733 0 -132.17366306 0 9476.71423368 0 694.85038739 0 347.63667510 0 6028
0.07550000 0.07549160 26619.30826625 0 -378.59932422 0 9632.39112063 0 357.82542840 0 1345.13245292 0 6183
0.07650000 0.07648840 28420.66479100 0 -439.30555950 0 9470.29228529 0 1482.07496628 0 785.05551045 0 6330
0.07750000 0.07749960 27458.59048751 0 -381.94980971 0 7189.21621545 0 2173.67451910 0 936.24810585 0 6583
0.07850000 0.07848650 27318.96847154 0 649.38963615 0 6831.95658285 0 493.26874897 0 -448.75357427 0 6549
0.07950000 0.07947320 27056.11148035 0 1258.90118723 0 6185.27745182 0 -259.03703913 0 -1969.63371734 0 6828
0.08050000 0.08048110 25428.25828551 0 773.02653677 0 6597.12364577 0 759.13630529 0 1723.76167242 0 7147
0.08150000 0.08149960 25167.83720578 0 508.44337014 0 4614.70139327 0 -605.59416256 0 -1646.91973818 0 7386
0.08250000 0.08250610 24708.77861879 0 -13.79766685 0 6165.24761622 0 441.46134115 0 -995.19494872 0 7227
0.08350000 0.08350160 24556.97704553 0 629.23800498 0 6226.56615107 0 -444.56712826 0 -1546.27230557 0 7798
0.08450000 0.08449610 23683.70278708 0 1412.75114059 0 6626.70889769 0 338.22519900 0 -272.28839748 0 7371
0.08550000 0.08548940 22872.54427087 0 1186.51032757 0 6694.09506653 0 598.40047313 0 534.86636608 0 8256
0.08650000 0.08650700 22222.82025051 0 389.12689066 0 6966.77320984 0 511.59012485 0 -143.81510537 0 8037
0.08750000 0.08749060 21591.80845910 0 696.48466253 0 7126.67972487 0 576.49720017 0 1067.20159872 0 8155
0.08850000 0.08849210 20872.77168537 0 606.20646212 0 6168.54716902 0 348.60993245 0 663.42491509 0 8718
0.08950000 0.08949900 20344.73251477 0 216.86587560 0 6393.19356726 0 737.55080805 0 1046.09885484 0 8571
0.09050000 0.09049190 19856.55371352 0 143.12529954 0 5562.11593870 0 523.51501868 0 156.46523648 0 8932
0.09150000 0.09150830 20230.24467615 0 142.36241636 0 5732.28649884 0 1361.26483018 0 519.65852795 0 9285
0.09250000 0.09250820 19489.61686903 0 -160.84544818 0 4310.03530356 0 869.17749826 0 497.97559425 0 9204
0.09350000 0.09350330 20110.55284486 0 -138.19479329 0 4422.61870231 0 1103.90967719 0 1237.25479221 0 9349
0.09450000 0.09448040 20010.90192149 0 167.99706278 0 3884.69194565 0 -282.52476177 0 1278.31097264 0 9564
0.09550000 0.09549270 19428.05474304 0 1187.36289658 0 4461.93652774 0 -784.74880706 0 1285.27546495 0 10155
0.09650000 0.09649430 18866.79859798 0 1124.28386209 0 5046.84315861 0 -927.39135323 0 1868.47695780 0 9913
0.09750000 0.09749140 18172.23166211 0 515.26945839 0 5298.52817407 0 -793.80375429 0 801.73486056 0 10476
0.09850000 0.09850240 17982.00912172 0 107.98417647 0 5915.10165392 0 -275.16388023 0 514.69369750 0 10575
0.09950000 0.09950330 17772.29928966 0 251.87988837 0 5759.36940534 0 -192.21666608 0 -1418.77448529 0 10882
0.10050000 0.10051200 17373.58487294 0 539.99949587 0 5476.08397486 0 404.92599094 0 -763.90404835 0 10875
0.10150000 0.10150300 16727.73616627 0 469.31709593 0 4452.90151069 0 553.50441045 0 -546.82890582 0 11118
0.10250000 0.10250800 16681.01095553 0 89.50557358 0 4405.64482836 0 703.75032208 0 -1852.64353331 0 11575
0.10350000 0.10349800 16278.97484137 0 310.45359389 0 4182.17209655 0 644.83780342 0 -484.08204107 0 11364
0.10450000 0.10450100 16177.55234603 0 322.07732049 0 4479.30900538 0 399.36325495 0 -197.00876827 0 12093
0.10550000 0.10551000 15875.83149472 0 -143.10204765 0 4142.67711392 0 865.53802510 0 1316.54371024 0 12067
0.10650000 0.10649700 16094.73135638 0 -42.45206842 0 4323.60997378 0 408.81902035 0 1199.30993506 0 12054
0.10750000 0.10749900 16275.76386717 0 121.39032592 0 4779.51294819 0 112.97978798 0 1350.60218138 0 12807
0.10850000 0.10850100 15964.63153977 0 379.25923478 0 5020.69032739 0 -193.83986890 0 1837.93948595 0 12736
0.10950000 0.10950300 15738.53466697 0 476.24837126 0 5646.92994681 0 2.69173753 0 2668.55207687 0 12933
0.11050000 0.11050200 15337.71650853 0 557.01544465 0 5937.66705190 0 -161.63933387 0 2827.57280591 0 13428
0.11150000 0.11150900 15130.33186468 0 304.93625444 0 5744.10066942 0 -144.59681150 0 1839.52282840 0 13453
0.11250000 0.11250000 14897.14870400 0 244.72052314 0 6234.83717770 0 -90.74135576 0 1708.12754977 0 13668
0.11350000 0.11349100 14588.89518105 0 39.33554115 0 5681.05485190 0 -556.34778347 0 393.84923719 0 13791
0.11450000 0.11448600 14769.48479884 0 16.97066297 0 5923.12908941 0 -61.95619003 0 332.67796427 0 14205
0.11550000 0.11549300 14604.28571255 0 -8.34573162 0 5522.52130515 0 32.90318477 0 -562.63464950 0 14776
0.11650000 0.11649800 14622.77649499 0 182.59703028 0 5370.94117838 0 573.74129852 0 -514.41246045 0 14553
0.11750000 0.11747300 14286.62071350 0 297.03836514 0 4953.02735042 0 564.35418154 0 -1315.15966963 0 14568
0.11850000 0.11849100 14024.09589205 0 450.62922610 0 4247.66489785 0 578.15140550 0 -889.61368818 0 16015
0.11950000 0.11950300 13433.94097922 0 570.62997525 0 4012.18976593 0 391.49526094 0 -281.16065135 0 15270
0.12050000 0.12050700 13206.29398094 0 298.23085453 0 3791.37439208 0 140.51887427 0 297.42921821 0 15999
0.12150000 0.12150000 12964.25296041 0 181.80425182 0 4283.52815794 0 379.85935479 0 318.90288496 0 15670
0.12250000 0.12250700 12788.42444229 0 190.37755293 0 4237.92125201 0 97.45838161 0 195.79967040 0 16887
0.12350000 0.12352200 12657.88173268 0 56.24397766 0 4566.78037145 0 -85.99088552 0 1087.66325498 0 16407
0.12450000 0.12449800 12794.07132795 0 -21.44631811 0 4675.10092515 0 149.00913294 0 862.88177437 0 16306
0.12550000 0.12549900 13060.47146308 0 -360.63004827 0 4845.89153548 0 437.66242650 0 1775.04868098 0 17523
0.12650000 0.12650100 13195.00020963 0 -201.82522956 0 4840.63218119 0 642.61005166 0 1599.96200862 0 17154
0.12750000 0.12750600 13424.52950312 0 10.52978090 0 4498.17624687 0 302.66089169 0 1731.57873374 0 18007
0.12850000 0.12850300 13242.61120635 0 236.17490285 0 4144.12758847 0 263.60769482 0 1484.76554121 0 17496
0.12950000 0.12949900 13101.32834166 0 340.68104065 0 4174.55433707 0 -182.44533943 0 1878.60813501 0 18405
0.13050000 0.13049000 12827.17757915 0 186.89973571 0 4114.69734911 0 55.31556322 0 1584.72648967 0 18100
0.13150000 0.13148800 12608.83133373 0 106.14495260 0 4042.87117801 0 359.60917992 0 1336.65105211 0 19059
0.13250000 0.13249300 12626.43633019 0 -59.35175779 0 3854.51986052 0 181.90279552 0 1229.12770579 0 18957
0.13350000 0.13349100 12638.06227125 0 51.47645604 0 3936.12289443 0 280.78197784 0 416.94499953 0 19468
0.13450000 0.13450700 12608.60988723 0 184.62326572 0 3940.57396901 0 -211.08944374 0 517.04213759 0 19953
0.13550000 0.13551000 12179.11440752 0 573.14450021 0 4128.37167026 0 -336.85776689 0 692.73003719 0 19956
0.13650000 0.13649900 11948.69932804 0 330.79013289 0 4014.94677481 0 -130.75419102 0 1209.40789529 0 19723
0.13750000 0.13749600 11814.83492098 0 148.99252446 0 4071.80316276 0 378.74104998 0 1192.10185160 0 20946
0.13850000 0.13851100 11734.78201255 0 38.70707599 0 4079.37663293 0 341.92003379 0 611.28533752 0 20955
0.13950000 0.13949800 11600.58543574 0 138.15050399 0 4102.40706856 0 153.26090567 0 476.54953850 0 20506
0.14050000 0.14048300 11473.25370033 0 192.93415273 0 3751.46973343 0 -132.74278055 0 443.33699297 0 21447
0.14150000 0.14148400 11116.83556442 0 148.54852423 0 3529.97894776 0 71.68400245 0 343.05383986 0 21771
0.14250000 0.14249400 11227.55881260 0 161.39684995 0 3331.77326118 0 136.14862767 0 -251.16793788 0 22470
0.14350000 0.14350900 10978.16576839 0 7.84617046 0 3080.89652544 0 486.09056079 0 -497.84936975 0 22519
0.14450000 0.14449900 10945.95637549 0 232.38484606 0 3085.52475721 0 -46.88852753 0 -876.54059427 0 22218
0.14550000 0.14550500 10672.49209712 0 375.37284877 0 2989.60520731 0 -322.84573983 0 -802.70258175 0 23559
0.14650000 0.14650700 10509.80642856 0 283.96194953 0 3277.33064005 0 -229.02771718 0 -924.83143173 0 23044
0.14750000 0.14750500 10260.31373342 0 140.63845538 0 3449.57172492 0 -346.07547730 0 -790.41230120 0 23649
0.14850000 0.14849900 10397.69913977 0 68.42397785 0 3794.25319653 0 -31.03428706 0 -442.27294256 0 23640
0.14950000 0.14949500 10179.25324342 0 176.90917702 0 3982.54915239 0 -159.52451982 0 -543.79951775 0 24457
0.15050000 0.15050000 10202.93694621 0 300.92253669 0 4344.90205441 0 29.04602970 0 -11.08350787 0 24591
0.15150000 0.15149900 10144.18719072 0 2.93793067 0 4285.74262290 0 89.81371638 0 144.22145969 0 25020
0.15250000 0.15250500 10028.41496242 0 55.33460762 0 4495.25315312 0 418.01015718 0 444.95908856 0 25297
0.15350000 0.15350100 10027.03092182 0 135.26284168 0 4157.94584985 0 436.80542856 0 525.06846585 0 25452
0.15450000 0.15450400 9917.70278656 0 116.53178979 0 3875.47977140 0 400.15271171 0 323.23216397 0 26061
0.15550000 0.15549900 9785.87568727 0 92.90566309 0 3944.90324801 0 389.00177339 0 577.82920085 0 26128
0.15650000 0.15649500 9616.61305776 0 139.95418571 0 3475.44774803 0 331.22859695 0 601.99676423 0 26331
0.15750000 0.15749700 9462.74095976 0 249.25021123 0 3314.58901306 0 743.36710028 0 664.52771864 0 27345
0.15850000 0.15849900 9347.65521559 0 118.50819977 0 3090.02012109 0 334.54918716 0 739.10425522 0 26980
0.15950000 0.15949700 9176.79817132 0 73.19581768 0 2880.62031412 0 243.60775450 0 449.66039768 0 27777
0.16050000 0.16050000 9019.05075963 0 145.88563011 0 2614.17588968 0 80.73607088 0 905.71506293 0 28224
0.16150000 0.16150500 8952.59466607 0 75.73049428 0 2716.08556731 0 13.73400098 0 778.04783608 0 28075
0.16250000 0.16249700 8942.38598258 0 25.24047166 0 2654.57880295 0 -0.81558412 0 799.85699427 0 28590
0.16350000 0.16349900 8798.66720644 0 6.41956784 0 2600.22476041 0 95.53268287 0 375.93753734 0 29163
0.16450000 0.16449100 8910.03264946 0 182.43426711 0 2533.71330523 0 136.86943601 0 552.75259960 0 28996
0.16550000 0.16550500 8820.09215496 0 12.72808027 0 2534.17834287 0 132.67413214 0 25.43711615 0 30777
0.16650000 0.16650700 8751.90877873 0 96.78762017 0 2611.04242176 0 -512.42054921 0 182.14417220 0 29211
0.16750000 0.16749900 8706.39045140 0 240.48535890 0 2657.74548784 0 -391.61041312 0 -315.98089844 0 30922
0.16850000 0.16850800 8557.45661026 0 139.73384644 0 2599.08431095 0 -209.61239561 0 101.97677592 0 30867
0.16950000 0.16949900 8401.81294029 0 118.64660383 0 2680.55447697 0 246.15660367 0 -16.27631748 0 30852
0.17050000 0.17049200 8386.78779551 0 96.77300470 0 2610.67703504 0 409.65830257 0 -189.16181167 0 31257
0.17150000 0.17149500 8192.90031561 0 8.15454578 0 2197.00390749 0 800.55344350 0 -173.18666142 0 32608
0.17250000 0.17250900 8233.02642075 0 78.84668937 0 1956.14762571 0 533.72923833 0 -125.51808861 0 32361
0.17350000 0.17350400 8075.46723858 0 52.58114188 0 1843.99604762 0 137.06652339 0 122.63706969 0 32508
0.17450000 0.17449800 8213.41733350 0 62.78218546 0 1982.96479642 0 -146.99729152 0 195.48853807 0 32791
0.17550000 0.17549800 7934.38367574 0 169.87825076 0 2040.00941389 0 -200.26846069 0 482.22410497 0 33633
0.17650000 0.17650100 7891.40091080 0 247.06342707 0 2194.32440488 0 -154.09686620 0 430.46984430 0 33984
0.17750000 0.17750300 7782.96963385 0 25.66609182 0 2244.42667469 0 -204.05741025 0 92.53750829 0 34069
0.17850000 0.17849800 7822.19888068 0 44.73064214 0 2400.45787603 0 3.26396634 0 -72.11825903 0 34536
