### header ###
fiducial parameters:
Omega_m = 0.31
Omega_nu = 0
Omega_de = 0.69
Omega_k = 0
H_0 = 100
w_de = -1
zeff = 0
beta = 0
fgrowth = 0
b_1 = 2
gamma = 0.55
Lx = 3500 Ly = 3500 Lz = 3500
nx = 700 ny = 700 nz = 700
xoffset = -685.467585 yoffset = -31.7331281 zoffset = 572.489161
bins = 400 dk = 0.001
kx_ny = 0.628318531 ky_ny = 0.628318531 kz_ny = 0.628318531
############################
A(data) = 7.98762631 (not used)
A(ran) = 7.98566978 (used)
Ngal = 474772
weighted Ngal = 0
Nran = 23820508
weighted Nran = 0
SN(data) = 3483.13961
SN(ran) = 69.5580799
SN(data+ran) = 3552.69769
############################
13 columns: k_central k_mean P_0(k) sigma^{lin}_{P_0(k)} P^img_1(k) sigma^{lin}_{P_1(k)} P_2(k) sigma^{lin}_{P_2(k)} P^img_3(k) sigma^{lin}_{P_3(k)} P_4(k) sigma^{lin}_{P_4(k)} N_modes
### header ###
0.00050000 0 0 0 0 0 0 0 0 0 0 0 0
0.00150000 0.00179520 69585.57544826 0 -51310.26044209 0 104568.91788252 0 -258895.31337455 0 -65370.56283630 0 3
0.00250000 0.00253879 105017.01486793 0 -11763.90222682 0 -21244.80179928 0 63871.37005585 0 78280.00778885 0 6
0.00350000 0.00331552 125604.45274272 0 -18683.99451522 0 15799.43245347 0 -62355.01517194 0 33336.77701048 0 7
0.00450000 0.00420575 105140.13911991 0 2957.24080186 0 -5129.64200361 0 -37691.96525464 0 49116.61144902 0 24
0.00550000 0.00557378 128117.87047656 0 865.92444923 0 37759.17426629 0 4974.26406943 0 -3436.92712998 0 45
0.00650000 0.00659388 86181.21877944 0 -5906.22164941 0 10585.22003290 0 16423.02578726 0 56924.59346463 0 40
0.00750000 0.00754703 89533.36511828 0 35748.66152572 0 33044.46763526 0 31879.76978759 0 -5469.34092904 0 57
0.00850000 0.00846663 83056.71943886 0 10294.59365106 0 10345.55956220 0 28640.11826890 0 18232.24366262 0 75
0.00950000 0.00948925 66823.03040601 0 -12505.63726642 0 658.95944649 0 24640.35165142 0 -9812.09495244 0 112
0.01050000 0.01054430 73762.49926284 0 1763.72169269 0 3007.84132628 0 -16083.99120131 0 7404.97153686 0 105
0.01150000 0.01145670 71752.87230826 0 11144.29492997 0 15721.59401000 0 -2155.63770197 0 5945.83842761 0 144
0.01250000 0.01249090 77006.24754171 0 -6007.02409456 0 14871.68235692 0 -24726.05144551 0 17563.80741332 0 169
0.01350000 0.01339930 80437.00738677 0 -16093.07050766 0 21944.24055808 0 -18118.64160998 0 18368.43325789 0 180
0.01450000 0.01448870 88266.91260553 0 -994.44867403 0 35692.52483889 0 14925.49385554 0 2538.06472888 0 267
0.01550000 0.01550050 90231.58592135 0 3883.55149619 0 19749.26288603 0 10175.42221904 0 -958.31192752 0 238
0.01650000 0.01653350 78920.54177961 0 8902.33738371 0 20861.25646756 0 6373.54019071 0 -2865.84983281 0 315
0.01750000 0.01747870 76452.40985429 0 6654.44507136 0 9884.65189697 0 -7604.64984264 0 -6655.15370015 0 297
0.01850000 0.01844180 65644.82432205 0 808.38157715 0 21672.74715352 0 7534.09698890 0 227.96588123 0 388
0.01950000 0.01947590 77842.98312826 0 -1442.21459693 0 10483.49858479 0 -10144.84045789 0 -101.29881747 0 399
0.02050000 0.02045430 79519.99744529 0 -6139.31623149 0 21640.19451856 0 -14269.68005653 0 -11784.38602773 0 462
0.02150000 0.02154770 83068.56682642 0 4639.66948573 0 28803.87795297 0 -5578.51405175 0 -4852.12525435 0 571
0.02250000 0.02255340 76910.02903904 0 7861.84887586 0 27210.12751858 0 -7695.15502571 0 -16400.77041437 0 510
0.02350000 0.02348930 74724.35211984 0 4091.67798581 0 38187.45179028 0 8022.75190012 0 2177.92629183 0 555
0.02450000 0.02439640 75553.89069525 0 473.59987117 0 34631.24250502 0 6197.57880469 0 -5638.64784784 0 592
0.02550000 0.02547300 71037.37867848 0 559.40595958 0 26785.72530828 0 17738.30725246 0 -11482.33300668 0 837
0.02650000 0.02652900 73714.33464988 0 -2966.48619309 0 13554.18642675 0 13293.10100752 0 -12186.20069540 0 723
0.02750000 0.02749970 73003.60211977 0 4124.10882520 0 11758.47678766 0 -533.11140260 0 -4605.82138876 0 826
0.02850000 0.02848090 65554.03125854 0 9050.58474071 0 11781.95011627 0 -5627.33193188 0 1041.75850351 0 831
0.02950000 0.02946900 58540.37782542 0 7062.62632580 0 17969.16522493 0 -3430.32802439 0 3766.51702286 0 996
0.03050000 0.03053250 56099.26237265 0 2275.36275023 0 28313.48468675 0 -1762.32657976 0 9402.72895924 0 1041
0.03150000 0.03150510 57470.12690845 0 -930.34766396 0 31907.56132289 0 6544.34187336 0 7508.15453185 0 1036
0.03250000 0.03246190 57729.99437194 0 -1501.37402843 0 38320.43041135 0 373.77511230 0 9593.67120074 0 1059
0.03350000 0.03345080 59686.91706039 0 2241.30427909 0 43383.36165792 0 -2602.21777888 0 15985.44751042 0 1302
0.03450000 0.03451200 60409.16480831 0 3399.28122560 0 41244.29922621 0 -283.32529085 0 14481.93652330 0 1339
0.03550000 0.03553350 53904.39542385 0 3752.76519543 0 43117.07224604 0 5375.71335038 0 14866.36764100 0 1365
0.03650000 0.03647120 52827.94400498 0 2774.89068443 0 36741.84906196 0 5914.00549376 0 17743.51124513 0 1308
0.03750000 0.03744890 50293.82102374 0 1133.78391678 0 35427.01048974 0 10490.85060847 0 4753.24939372 0 1579
0.03850000 0.03847530 48736.16636825 0 544.53914905 0 30468.71271270 0 11235.19871673 0 4852.01453110 0 1662
0.03950000 0.03950240 45897.44373125 0 812.36539962 0 23021.13486994 0 9715.21211027 0 3958.59971381 0 1683
0.04050000 0.04050350 47257.67883522 0 -471.49391498 0 19894.31034115 0 5376.84272751 0 7675.33556429 0 1822
0.04150000 0.04152450 46267.03793369 0 -1396.43053380 0 16449.04575058 0 5566.97668929 0 3711.19968806 0 1887
0.04250000 0.04250150 47413.90933841 0 1372.85755426 0 16759.84590824 0 3113.68167923 0 5426.15886225 0 1920
0.04350000 0.04349210 46373.33225195 0 2192.59712221 0 13752.15959450 0 -928.35021656 0 5172.63584088 0 2005
0.04450000 0.04448520 44371.34520149 0 504.45511874 0 15785.03843121 0 2246.53041640 0 7129.53638468 0 2151
0.04550000 0.04548030 43956.79736028 0 1669.21940036 0 15011.52581938 0 -2091.75038776 0 3324.81984119 0 2274
0.04650000 0.04648670 40534.56320533 0 3815.04702254 0 15843.83247599 0 -580.11563592 0 2749.47969897 0 2311
0.04750000 0.04749250 39844.86809238 0 1918.55708295 0 17728.23143688 0 -848.55972222 0 5383.79614749 0 2568
0.04850000 0.04851840 38097.87668249 0 285.59843914 0 17191.77729942 0 -292.41456230 0 4911.77186815 0 2493
0.04950000 0.04949480 38303.04686138 0 409.53761423 0 17569.45429898 0 2024.81818424 0 1863.60513488 0 2644
0.05050000 0.05050630 37218.06975240 0 129.75878901 0 14170.47202615 0 1779.23401976 0 476.03356816 0 2829
0.05150000 0.05149060 38484.96515815 0 -646.43886158 0 14415.83474413 0 1872.21940358 0 -5350.73418559 0 2784
0.05250000 0.05249300 37589.65697332 0 18.40818290 0 14162.83212203 0 981.10652262 0 -2959.52170078 0 3055
0.05350000 0.05348950 37788.51592706 0 1080.61461300 0 11290.67106407 0 -1612.24121684 0 -3810.35235682 0 3009
0.05450000 0.05448610 37007.58485760 0 1092.28927229 0 14313.74790931 0 -155.90276238 0 -2424.36302532 0 3336
0.05550000 0.05550870 36469.80204116 0 1207.16021335 0 15197.54087633 0 379.13079581 0 1313.04485559 0 3349
0.05650000 0.05647670 35352.16157397 0 1496.33612064 0 15403.70756445 0 4814.94438761 0 2354.74024686 0 3324
0.05750000 0.05747970 34172.84825753 0 435.67051527 0 15782.04890351 0 2467.78868326 0 4138.12638842 0 3639
0.05850000 0.05849280 33304.00292901 0 954.44990062 0 15323.54393277 0 3256.71397123 0 5839.86520677 0 3846
0.05950000 0.05951020 33317.73261179 0 119.81362686 0 14469.86768925 0 2989.19553129 0 5518.76778703 0 3787
0.06050000 0.06049470 33652.67043755 0 -341.04421290 0 14471.30709147 0 319.94257626 0 8494.56580529 0 3930
0.06150000 0.06148310 32919.57181131 0 259.43010666 0 11621.95502264 0 1243.30028156 0 4448.39507449 0 4083
0.06250000 0.06249100 32642.54224435 0 262.41077650 0 12801.60050882 0 450.65358521 0 5088.51938923 0 4303
0.06350000 0.06350600 32749.27945560 0 -16.34031552 0 10452.18605020 0 28.24107168 0 3377.31373316 0 4470
0.06450000 0.06451750 32475.01796984 0 748.51019516 0 10389.92636775 0 936.93901892 0 1436.87773637 0 4479
0.06550000 0.06550280 31889.40271018 0 1152.83938779 0 11663.25479422 0 -739.91917833 0 1384.07381931 0 4636
0.06650000 0.06648880 30893.44709275 0 1640.77459790 0 12134.82510824 0 36.18059292 0 4618.27775418 0 4653
0.06750000 0.06749660 29498.00199585 0 1466.85051965 0 12614.92111238 0 90.79461364 0 2701.50331553 0 5220
0.06850000 0.06852730 29087.21874508 0 551.27333700 0 12690.87726064 0 1734.87828653 0 3886.91748294 0 5029
0.06950000 0.06949320 28948.81468485 0 -348.01091968 0 14676.03437737 0 499.32752511 0 5646.98530843 0 5040
0.07050000 0.07048030 28955.56880299 0 -130.54713854 0 12854.85839120 0 658.66160095 0 2683.13432865 0 5475
0.07150000 0.07148790 29316.63731532 0 415.82890919 0 12587.57247008 0 157.71087302 0 4148.36828888 0 5509
0.07250000 0.07249820 28653.51578193 0 250.99742408 0 11505.69561205 0 842.06026755 0 4731.73586660 0 5916
0.07350000 0.07351270 28825.24753987 0 -43.03879091 0 11876.61849347 0 2520.90262541 0 4610.79286260 0 5721
0.07450000 0.07449140 28538.80649681 0 239.56414147 0 12355.82871162 0 647.64906669 0 3593.87733429 0 6028
0.07550000 0.07549160 27830.28843167 0 1214.20221194 0 12125.74580189 0 483.46863428 0 3366.08639579 0 6183
0.07650000 0.07648840 26733.24248864 0 1581.65945569 0 12417.39083762 0 -992.09137608 0 3763.92609885 0 6330
0.07750000 0.07749960 26187.04470533 0 970.68746497 0 12225.06455552 0 -354.78718247 0 5258.35777962 0 6583
0.07850000 0.07848650 25496.24235990 0 160.08588669 0 13607.77647887 0 -425.85822101 0 3062.37252602 0 6549
0.07950000 0.07947320 25354.07370923 0 423.09567597 0 13922.45195021 0 213.93946015 0 1491.77432282 0 6828
0.08050000 0.08048110 25073.27955182 0 298.15334825 0 13605.34056741 0 189.81840053 0 1094.64657024 0 7147
0.08150000 0.08149960 24509.03387907 0 726.03448301 0 11544.67019541 0 843.58381945 0 318.80323404 0 7386
0.08250000 0.08250610 24157.48756607 0 411.92480746 0 11419.77437146 0 819.45500920 0 692.66249600 0 7227
0.08350000 0.08350160 23686.36014504 0 -70.41965368 0 9870.65647840 0 2508.60127254 0 276.91552202 0 7798
0.08450000 0.08449610 23828.41807246 0 74.02546698 0 7796.81003987 0 3389.28291629 0 190.79719404 0 7371
0.08550000 0.08548940 23460.70616524 0 96.64246199 0 7576.29361878 0 1134.08286955 0 959.01502014 0 8256
0.08650000 0.08650700 23469.89619484 0 104.81704868 0 7703.04959331 0 1057.88645185 0 601.12980119 0 8037
0.08750000 0.08749060 23361.16596512 0 650.31638974 0 7504.12420561 0 -433.26117739 0 1463.45131593 0 8155
0.08850000 0.08849210 22497.52462926 0 812.90462184 0 7915.58286820 0 -540.44017440 0 1730.78152635 0 8718
0.08950000 0.08949900 21860.20161270 0 563.13068965 0 7671.17237015 0 -934.93603536 0 2102.29124099 0 8571
0.09050000 0.09049190 21533.78947705 0 368.77485041 0 8963.47876136 0 623.07182729 0 1746.11669623 0 8932
0.09150000 0.09150830 21163.64165836 0 411.42655284 0 8468.18045525 0 786.49269822 0 439.84146003 0 9285
0.09250000 0.09250820 20300.22176900 0 894.31942623 0 7647.07899135 0 832.19593337 0 1172.45954737 0 9204
0.09350000 0.09350330 19996.72934572 0 777.78985091 0 7327.35453989 0 1192.06863463 0 1888.89432476 0 9349
0.09450000 0.09448040 18577.70019697 0 438.16400282 0 7152.38966310 0 1110.60954093 0 1683.23696358 0 9564
0.09550000 0.09549270 18767.14767461 0 425.00011584 0 6648.75389640 0 558.12046267 0 166.40486247 0 10155
0.09650000 0.09649430 18026.51986749 0 364.34702771 0 6762.37809369 0 659.61160642 0 1128.26989902 0 9913
0.09750000 0.09749140 17918.89687026 0 413.28448895 0 5734.20201103 0 -718.80536213 0 615.00342419 0 10476
0.09850000 0.09850240 17580.74807029 0 245.48783525 0 6526.72580457 0 -618.67057817 0 649.20362109 0 10575
0.09950000 0.09950330 17484.08667463 0 305.28946160 0 6438.13613370 0 -144.92012339 0 515.79428658 0 10882
0.10050000 0.10051200 17529.37248314 0 105.34475568 0 5882.42722338 0 293.44871744 0 488.24080627 0 10875
0.10150000 0.10150300 17236.06659869 0 -116.10550528 0 6807.07706898 0 124.78842240 0 -355.00973620 0 11118
0.10250000 0.10250800 17341.14296122 0 179.94742295 0 6858.31978824 0 382.12143075 0 -150.48618108 0 11575
0.10350000 0.10349800 17326.97038545 0 520.91302235 0 7425.52177173 0 551.92438970 0 313.58706182 0 11364
0.10450000 0.10450100 16597.63634965 0 657.27866758 0 6678.38343761 0 431.45085228 0 320.82504055 0 12093
0.10550000 0.10551000 16439.08065824 0 207.04693795 0 6281.27450799 0 69.40299281 0 1000.27936028 0 12067
0.10650000 0.10649700 16201.80073738 0 101.70129648 0 6122.25377895 0 637.70390454 0 253.81533075 0 12054
0.10750000 0.10749900 15959.20610060 0 -4.17561728 0 5626.80046029 0 625.51991830 0 -87.38090517 0 12807
0.10850000 0.10850100 15735.21296952 0 283.04073211 0 4872.60905527 0 640.66021526 0 -834.06604903 0 12736
0.10950000 0.10950300 15369.71552726 0 595.04334424 0 4629.37222365 0 20.45523432 0 -546.99941962 0 12933
0.11050000 0.11050200 15010.75075664 0 142.59493518 0 4113.34652548 0 369.88540459 0 -412.17725647 0 13428
0.11150000 0.11150900 14897.48087374 0 -46.91432604 0 4272.30082057 0 251.83781354 0 -118.09077312 0 13453
0.11250000 0.11250000 15115.82711917 0 -18.27453994 0 4444.59726708 0 74.35198984 0 -236.43953141 0 13668
0.11350000 0.11349100 14931.25146444 0 329.23004232 0 4457.96156313 0 200.79882505 0 79.84353078 0 13791
0.11450000 0.11448600 14682.45632577 0 179.65511358 0 4662.74421065 0 -326.84063462 0 102.26233118 0 14205
0.11550000 0.11549300 14692.86431110 0 318.53528378 0 5366.80012890 0 -192.99726498 0 -106.51410391 0 14776
0.11650000 0.11649800 14237.79176105 0 419.97770930 0 5556.77907814 0 -667.07878228 0 254.18625363 0 14553
0.11750000 0.11747300 14330.57784303 0 329.63418218 0 5559.40321912 0 125.87129577 0 429.41243728 0 14568
0.11850000 0.11849100 14049.23006939 0 82.02599672 0 5335.13327992 0 568.90933597 0 605.67388330 0 16015
0.11950000 0.11950300 13890.78510123 0 140.40372210 0 5012.59645795 0 716.22218875 0 817.07556660 0 15270
0.12050000 0.12050700 13834.09479816 0 158.37964144 0 4586.73270077 0 1003.53130208 0 749.35833524 0 15999
0.12150000 0.12150000 13516.98341536 0 114.93294608 0 4442.51567001 0 1076.86220212 0 1347.51300275 0 15670
0.12250000 0.12250700 13397.18086082 0 64.18892433 0 3886.76247039 0 659.84744694 0 966.45894412 0 16887
0.12350000 0.12352200 13335.95090457 0 241.56158887 0 3783.43553518 0 410.55737535 0 1085.21848566 0 16407
0.12450000 0.12449800 13261.98777478 0 62.16457119 0 3801.99275158 0 -334.43957115 0 992.38589992 0 16306
0.12550000 0.12549900 13080.29092451 0 141.46112912 0 3689.07718308 0 123.95467634 0 1233.27982760 0 17523
0.12650000 0.12650100 13069.32932294 0 121.24195676 0 3506.25095567 0 -99.64749095 0 1050.67504669 0 17154
0.12750000 0.12750600 12982.96518935 0 -90.60018361 0 3419.33320584 0 -146.20229860 0 562.49956713 0 18007
0.12850000 0.12850300 13331.30052815 0 -4.61071536 0 3652.88175324 0 42.69078774 0 124.60351458 0 17496
0.12950000 0.12949900 13065.89690224 0 167.83872853 0 3271.82769461 0 -658.13012936 0 -552.43039494 0 18405
0.13050000 0.13049000 12909.22350606 0 364.99032979 0 3631.35715380 0 -353.18501707 0 -435.45017600 0 18100
0.13150000 0.13148800 12602.29866209 0 371.33477191 0 3604.71714028 0 -490.24932600 0 -584.36519419 0 19059
0.13250000 0.13249300 12502.42629222 0 162.80192797 0 3788.55094925 0 347.11959753 0 -442.24636898 0 18957
0.13350000 0.13349100 12353.06063042 0 9.48295902 0 3950.05187905 0 451.07322632 0 -1337.24895765 0 19468
0.13450000 0.13450700 12136.59668021 0 172.34959366 0 3773.93548049 0 357.13340810 0 -977.92433647 0 19953
0.13550000 0.13551000 12096.95775736 0 406.16166239 0 3937.88339408 0 -44.92374349 0 -650.13037468 0 19956
0.13650000 0.13649900 11732.12465459 0 139.76595619 0 3823.43984475 0 346.77967716 0 436.30274501 0 19723
0.13750000 0.13749600 11796.12269204 0 -30.77929142 0 3527.78662744 0 497.09866613 0 827.67621038 0 20946
0.13850000 0.13851100 11718.72714156 0 67.41052796 0 3346.07870484 0 507.23537950 0 78.88400311 0 20955
0.13950000 0.13949800 11724.92764346 0 90.62642502 0 3404.79524336 0 323.13915644 0 307.80066487 0 20506
0.14050000 0.14048300 11341.82520473 0 349.54886559 0 3107.75798545 0 15.91934573 0 481.05154577 0 21447
0.14150000 0.14148400 11208.07152092 0 383.53868832 0 3142.61366398 0 -98.43606789 0 660.82956215 0 21771
0.14250000 0.14249400 10887.20662000 0 154.51872177 0 3251.49890624 0 11.85203793 0 475.79440594 0 22470
0.14350000 0.14350900 10805.61465841 0 103.68390696 0 3406.05748839 0 115.77997893 0 398.87607266 0 22519
0.14450000 0.14449900 10777.72347220 0 62.12282852 0 3360.02983412 0 2.70742701 0 349.71605770 0 22218
0.14550000 0.14550500 10709.54009596 0 -13.19511093 0 3576.58236292 0 270.01524919 0 437.79640163 0 23559
0.14650000 0.14650700 10674.96122555 0 188.59158694 0 3531.31869906 0 3.26036784 0 752.39104501 0 23044
0.14750000 0.14750500 10584.75499526 0 156.56710187 0 3275.06081346 0 254.19400426 0 676.76706650 0 23649
0.14850000 0.14849900 10383.05045404 0 37.14820338 0 3169.63013653 0 393.98431956 0 1106.78626717 0 23640
0.14950000 0.14949500 10479.36860763 0 184.11172432 0 2927.79949017 0 341.77941527 0 1000.27825305 0 24457
0.15050000 0.15050000 10334.89691340 0 143.90479120 0 2908.76616381 0 106.01020240 0 805.79065314 0 24591
0.15150000 0.15149900 10142.37132945 0 110.63699478 0 2688.52655084 0 198.36069913 0 663.40166321 0 25020
0.15250000 0.15250500 10039.87481861 0 168.49088846 0 2432.45689476 0 290.03733416 0 1036.00864524 0 25297
0.15350000 0.15350100 9849.37547010 0 27.58968681 0 2237.90507537 0 153.60525498 0 493.28867916 0 25452
0.15450000 0.15450400 9833.34274376 0 189.69106879 0 2479.95716823 0 137.28132650 0 525.60325914 0 26061
0.15550000 0.15549900 9673.62445826 0 189.08319816 0 2240.97210935 0 23.82819663 0 462.19869830 0 26128
0.15650000 0.15649500 9483.03653115 0 118.49380574 0 2372.11272450 0 -279.18091967 0 548.68462746 0 26331
0.15750000 0.15749700 9458.03522171 0 185.67845828 0 2555.18254305 0 -292.05139004 0 471.18056819 0 27345
0.15850000 0.15849900 9382.79877457 0 80.90138069 0 2431.59325342 0 -103.49888841 0 313.71217909 0 26980
0.15950000 0.15949700 9296.43464098 0 28.26454501 0 2803.94446475 0 -155.46208385 0 499.31977449 0 27777
0.16050000 0.16050000 9369.26839364 0 112.65093994 0 2915.74172844 0 -118.43844412 0 198.61868429 0 28224
0.16150000 0.16150500 9283.00391098 0 171.16374767 0 3135.43879749 0 -68.61519690 0 266.36802539 0 28075
0.16250000 0.16249700 9013.11599352 0 325.71457919 0 3278.10570278 0 -165.85346069 0 613.13109407 0 28590
0.16350000 0.16349900 8991.01563319 0 110.60311346 0 3252.58399408 0 -28.53459901 0 460.96745578 0 29163
0.16450000 0.16449100 8926.27574997 0 -4.76575005 0 3250.74598816 0 210.86024661 0 346.75088911 0 28996
0.16550000 0.16550500 8942.49670583 0 15.58042187 0 3219.58846612 0 119.27329741 0 384.80093335 0 30777
0.16650000 0.16650700 8863.14135386 0 99.69620918 0 2826.76452620 0 234.87833361 0 323.30634854 0 29211
0.16750000 0.16749900 8826.49195871 0 166.87654350 0 2559.17965231 0 427.57000243 0 150.06100380 0 30922
0.16850000 0.16850800 8581.27318095 0 128.89957661 0 2425.74706592 0 312.75553022 0 207.50090326 0 30867
0.16950000 0.16949900 8497.68820089 0 59.21545747 0 2436.11076195 0 354.53030453 0 -157.83599029 0 30852
0.17050000 0.17049200 8388.05004054 0 77.59330220 0 2037.06417548 0 73.22294487 0 -85.07675438 0 31257
0.17150000 0.17149500 8317.53040377 0 108.23861850 0 2242.07934183 0 -36.19731213 0 -100.92545868 0 32608
0.17250000 0.17250900 8281.98824110 0 219.46455023 0 2160.31022304 0 -49.70532696 0 140.00622563 0 32361
0.17350000 0.17350400 8086.49527410 0 155.69681713 0 2164.71700832 0 211.03518935 0 377.53748827 0 32508
0.17450000 0.17449800 8091.58854352 0 2.82484901 0 1994.82325630 0 354.25792534 0 408.73376345 0 32791
0.17550000 0.17549800 8049.64657710 0 63.95695913 0 1939.80487428 0 381.80476226 0 278.92404174 0 33633
0.17650000 0.17650100 7956.04114309 0 93.77561565 0 1842.92203211 0 -45.38490582 0 91.55107487 0 33984
0.17750000 0.17750300 7937.92681968 0 100.96454398 0 1733.48317361 0 -63.13196020 0 225.77356091 0 34069
0.17850000 0.17849800 7889.71791742 0 0.06678118 0 1936.05135616 0 -308.97876023 0 137.99549145 0 34536
