### header ###
fiducial parameters:
Omega_m = 0.31
Omega_nu = 0
Omega_de = 0.69
Omega_k = 0
H_0 = 100
w_de = -1
zeff = 0
beta = 0
fgrowth = 0
b_1 = 2
gamma = 0.55
Lx = 3500 Ly = 3500 Lz = 3500
nx = 700 ny = 700 nz = 700
xoffset = -685.467585 yoffset = -31.7331281 zoffset = 572.489161
bins = 400 dk = 0.001
kx_ny = 0.628318531 ky_ny = 0.628318531 kz_ny = 0.628318531
############################
A(data) = 8.04973479 (not used)
A(ran) = 8.04629669 (used)
Ngal = 477591
weighted Ngal = 0
Nran = 23820508
weighted Nran = 0
SN(data) = 3494.30155
SN(ran) = 70.0861623
SN(data+ran) = 3564.38772
############################
13 columns: k_central k_mean P_0(k) sigma^{lin}_{P_0(k)} P^img_1(k) sigma^{lin}_{P_1(k)} P_2(k) sigma^{lin}_{P_2(k)} P^img_3(k) sigma^{lin}_{P_3(k)} P_4(k) sigma^{lin}_{P_4(k)} N_modes
### header ###
0.00050000 0 0 0 0 0 0 0 0 0 0 0 0
0.00150000 0.00179520 6635.83249334 0 -10576.49504094 0 994.81073905 0 -18425.12356096 0 489.24395890 0 3
0.00250000 0.00253879 12908.00555033 0 -8068.67990347 0 5316.74214839 0 -13275.38528781 0 -6925.86096964 0 6
0.00350000 0.00331552 24248.28062959 0 -12781.44887765 0 380.54916062 0 -5566.19055423 0 37457.78558473 0 7
0.00450000 0.00420575 29495.67680764 0 -7615.76645676 0 8626.88008688 0 -18973.42508598 0 22505.93959613 0 24
0.00550000 0.00557378 49692.92595583 0 -21879.46745789 0 12206.02015683 0 -17117.59272313 0 -12499.32604127 0 45
0.00650000 0.00659388 55364.28145119 0 -15954.99861717 0 15728.45885138 0 2392.51901914 0 20024.18871127 0 40
0.00750000 0.00754703 75153.73687631 0 2747.56418677 0 17111.72439098 0 -25020.90745543 0 -25460.58947398 0 57
0.00850000 0.00846663 67163.83656392 0 4956.06116742 0 -468.76015799 0 -1197.88160515 0 2871.25312732 0 75
0.00950000 0.00948925 63038.17761325 0 360.37870650 0 -771.62145875 0 -3536.40089615 0 -3923.30114229 0 112
0.01050000 0.01054430 70204.85057536 0 -6069.21734307 0 -7471.40548578 0 9999.42761604 0 -8095.62994208 0 105
0.01150000 0.01145670 77279.84468798 0 -9985.62042700 0 -5911.73566717 0 1784.11691500 0 -32407.47678845 0 144
0.01250000 0.01249090 78908.69439205 0 -4656.88695082 0 -19422.29713413 0 5326.69616840 0 -26092.70849788 0 169
0.01350000 0.01339930 83531.50072709 0 -2899.64256816 0 -18501.07970922 0 -24415.25128785 0 -48449.06098570 0 180
0.01450000 0.01448870 80044.38274870 0 6364.28372716 0 -13838.63445134 0 -16324.48209637 0 -30743.97070769 0 267
0.01550000 0.01550050 73454.24573989 0 8169.22768515 0 -7615.51179329 0 -20228.47310418 0 -12463.78387861 0 238
0.01650000 0.01653350 67753.77003026 0 10509.78428391 0 -2382.46534820 0 -15277.26161502 0 -23980.99470847 0 315
0.01750000 0.01747870 61294.06500781 0 3238.35605668 0 4325.78014945 0 -7895.06585031 0 -17581.08024004 0 297
0.01850000 0.01844180 57330.39416924 0 754.28994871 0 4565.92780244 0 -750.16882942 0 -21063.76928850 0 388
0.01950000 0.01947590 59384.53186959 0 -4849.00285875 0 8532.49959012 0 213.41906088 0 -13123.47299130 0 399
0.02050000 0.02045430 65026.65642743 0 -4982.74547024 0 10110.22837050 0 -2990.24740215 0 -20399.87269237 0 462
0.02150000 0.02154770 69905.56563552 0 1038.90184371 0 13982.35322748 0 -10136.63586520 0 -20499.41289249 0 571
0.02250000 0.02255340 66012.09333629 0 2189.10933989 0 13514.99039689 0 -8891.66366259 0 -20965.77921385 0 510
0.02350000 0.02348930 67660.76250178 0 -2063.09521113 0 12774.69475951 0 -6063.89155483 0 -12476.18488240 0 555
0.02450000 0.02439640 68969.73274184 0 -50.92106822 0 18787.85292202 0 4518.07321457 0 -17565.46826205 0 592
0.02550000 0.02547300 70873.28682467 0 -1518.55827655 0 16146.10694354 0 5194.58118867 0 -21407.01135787 0 837
0.02650000 0.02652900 68827.89626092 0 5487.43310780 0 16346.40529951 0 3269.48036175 0 -23015.26653778 0 723
0.02750000 0.02749970 63313.21416174 0 7943.60692232 0 12836.14616226 0 -13398.28809330 0 -19234.73195170 0 826
0.02850000 0.02848090 62313.93684686 0 5413.53641196 0 25695.32276014 0 -11725.48125970 0 -11552.19937629 0 831
0.02950000 0.02946900 56717.98388352 0 4494.58881363 0 33873.56331768 0 -12519.92056544 0 -3068.99377626 0 996
0.03050000 0.03053250 58889.59895020 0 -622.51599658 0 43822.60078348 0 904.35316698 0 -5907.40638817 0 1041
0.03150000 0.03150510 56609.03220730 0 632.61949298 0 44733.96383930 0 6614.50719574 0 857.67667447 0 1036
0.03250000 0.03246190 62249.27446992 0 1296.95676763 0 45779.96636492 0 13873.62299776 0 -2472.15117923 0 1059
0.03350000 0.03345080 55415.87848484 0 -1185.19272091 0 35197.59191950 0 15471.02729935 0 7551.29230934 0 1302
0.03450000 0.03451200 57735.86270409 0 507.45682600 0 29162.06766085 0 13564.92658182 0 7577.67765939 0 1339
0.03550000 0.03553350 55656.70154965 0 1026.03580227 0 26967.75432829 0 9938.40803397 0 11465.17090321 0 1365
0.03650000 0.03647120 53618.17582729 0 2931.73016548 0 17601.23187121 0 8254.78353902 0 9557.80794065 0 1308
0.03750000 0.03744890 49840.40932241 0 2150.72158975 0 12352.50701418 0 2264.57830586 0 6215.17272883 0 1579
0.03850000 0.03847530 47366.96268118 0 783.59839251 0 10784.33365011 0 -358.75882538 0 5910.60629004 0 1662
0.03950000 0.03950240 47750.61873614 0 1051.02382492 0 13090.58818659 0 -3176.84929232 0 493.00190595 0 1683
0.04050000 0.04050350 46838.70206408 0 1639.34626800 0 9662.48569949 0 -433.03640919 0 -2452.17670526 0 1822
0.04150000 0.04152450 44331.15266240 0 -519.34961008 0 11860.34217599 0 -2702.09014874 0 -300.82288577 0 1887
0.04250000 0.04250150 46273.90277508 0 197.54799048 0 13134.76676262 0 215.31796459 0 -1325.18012359 0 1920
0.04350000 0.04349210 45961.33104545 0 2466.98040354 0 18536.17897890 0 1489.68165343 0 -3286.58710359 0 2005
0.04450000 0.04448520 44544.51636166 0 2765.20240021 0 17718.70923754 0 -483.32690852 0 2773.25198035 0 2151
0.04550000 0.04548030 41228.24435522 0 2701.64725575 0 16154.74335690 0 1882.40594242 0 8813.39339845 0 2274
0.04650000 0.04648670 40241.25732089 0 1277.61341617 0 19541.87824217 0 5768.49300099 0 10695.60003902 0 2311
0.04750000 0.04749250 40038.08016047 0 -215.25485233 0 16787.63744354 0 6208.21930884 0 11480.78288121 0 2568
0.04850000 0.04851840 39703.91739744 0 16.61402339 0 13017.17867304 0 5007.48104388 0 8887.69977030 0 2493
0.04950000 0.04949480 40334.81846561 0 -805.25918155 0 14450.04822782 0 579.15123643 0 8734.28163762 0 2644
0.05050000 0.05050630 38789.78626041 0 1818.19753079 0 15277.04016853 0 887.81554263 0 9149.31666112 0 2829
0.05150000 0.05149060 37564.85496572 0 3431.49061850 0 13515.98690612 0 -1868.65411499 0 9818.18473109 0 2784
0.05250000 0.05249300 34903.40024907 0 1653.52991609 0 12862.38757208 0 -347.12291923 0 8861.04868446 0 3055
0.05350000 0.05348950 34551.85393607 0 503.23384131 0 13541.23180671 0 64.68740039 0 7337.05389643 0 3009
0.05450000 0.05448610 33818.53386334 0 -652.75894459 0 12898.37262774 0 1518.08216659 0 3902.82841370 0 3336
0.05550000 0.05550870 35511.27088161 0 521.95382088 0 14694.85732956 0 -1617.23483534 0 3580.80091868 0 3349
0.05650000 0.05647670 33961.80974649 0 814.54111145 0 14509.50661210 0 -1937.98901301 0 1095.62536376 0 3324
0.05750000 0.05747970 34481.43395023 0 -4.85601164 0 16200.25061191 0 -2177.09586747 0 1567.28757808 0 3639
0.05850000 0.05849280 34310.58797828 0 463.42883359 0 16036.04803485 0 -1634.56302368 0 -363.45349110 0 3846
0.05950000 0.05951020 34673.09589284 0 727.81159114 0 18651.10971051 0 2620.71963365 0 -368.79699506 0 3787
0.06050000 0.06049470 33451.70774209 0 884.50159581 0 15067.55178296 0 3488.02590902 0 911.27447722 0 3930
0.06150000 0.06148310 32437.48278871 0 9.12130368 0 12796.50723941 0 3779.50485987 0 1005.21429545 0 4083
0.06250000 0.06249100 33216.31011645 0 -497.67774872 0 11606.01087491 0 4259.84445515 0 314.93124205 0 4303
0.06350000 0.06350600 32913.37130941 0 -546.00733932 0 10562.21174193 0 2037.16382641 0 -440.33417848 0 4470
0.06450000 0.06451750 33395.57105526 0 140.67167236 0 9183.17583041 0 -1022.67313722 0 384.64702804 0 4479
0.06550000 0.06550280 32480.22196251 0 989.09963391 0 11115.17471569 0 -2140.40218302 0 -1539.17494536 0 4636
0.06650000 0.06648880 32384.33562958 0 1779.82085297 0 11630.25926626 0 -2224.47434537 0 1420.80072073 0 4653
0.06750000 0.06749660 31048.90253320 0 590.42175586 0 12785.98853083 0 194.24511599 0 -560.69920712 0 5220
0.06850000 0.06852730 30473.25236588 0 111.38094428 0 11573.79040968 0 1847.22916647 0 -651.88090923 0 5029
0.06950000 0.06949320 30880.16030296 0 309.46262082 0 11760.58052937 0 2645.30019475 0 -977.08616148 0 5040
0.07050000 0.07048030 30322.66874834 0 -18.31860780 0 9480.93278944 0 1485.85062904 0 -16.21774489 0 5475
0.07150000 0.07148790 30134.43922643 0 946.46896889 0 10046.26355003 0 -392.08098692 0 1388.87920828 0 5509
0.07250000 0.07249820 29961.37878951 0 76.78767985 0 11143.74131373 0 -757.12446387 0 1753.13655016 0 5916
0.07350000 0.07351270 29705.49736295 0 -214.94814894 0 12384.28458641 0 662.67974763 0 2694.17343650 0 5721
0.07450000 0.07449140 29693.42852890 0 248.49729314 0 12149.55130025 0 966.14781179 0 3246.69351727 0 6028
0.07550000 0.07549160 29554.36012918 0 175.18300158 0 11133.88694464 0 1739.34043344 0 1572.20369030 0 6183
0.07650000 0.07648840 29414.84883646 0 1213.74824662 0 10421.59321673 0 1121.90331225 0 3445.65212194 0 6330
0.07750000 0.07749960 27556.69128540 0 1875.25322059 0 9557.42040928 0 762.52222222 0 1580.46364461 0 6583
0.07850000 0.07848650 26120.83220292 0 1519.23368837 0 9323.09679915 0 666.19853246 0 3089.97583179 0 6549
0.07950000 0.07947320 25184.99930924 0 841.92186349 0 8029.06312527 0 -187.74676855 0 1266.18677696 0 6828
0.08050000 0.08048110 24263.44971459 0 -177.41407503 0 8849.98743197 0 551.07292792 0 848.08250502 0 7147
0.08150000 0.08149960 24602.81647028 0 -265.16003476 0 8160.71306736 0 672.92386255 0 666.06123563 0 7386
0.08250000 0.08250610 24615.54964382 0 -28.72770036 0 8538.10218648 0 1345.90751566 0 1607.33617695 0 7227
0.08350000 0.08350160 24265.11056331 0 792.19937443 0 8813.05015638 0 192.20670099 0 1081.05750599 0 7798
0.08450000 0.08449610 23566.66831375 0 1472.66349018 0 9704.49409985 0 -463.58716783 0 1910.64037071 0 7371
0.08550000 0.08548940 22503.61440791 0 1709.33443318 0 9730.59156945 0 -915.81855933 0 2031.64980865 0 8256
0.08650000 0.08650700 21141.93990172 0 905.25556145 0 9105.74706296 0 -597.67523585 0 1775.81267139 0 8037
0.08750000 0.08749060 20606.59299673 0 353.98000999 0 9232.17086774 0 574.06461041 0 1300.42240530 0 8155
0.08850000 0.08849210 20893.58765603 0 -473.41164164 0 8750.08184513 0 950.32435239 0 26.69028187 0 8718
0.08950000 0.08949900 20229.69105991 0 118.13727689 0 7294.45866285 0 2570.98275056 0 -379.71541456 0 8571
0.09050000 0.09049190 20331.44572499 0 185.76925134 0 5261.91199589 0 1940.36956284 0 -1274.84533497 0 8932
0.09150000 0.09150830 19971.37372189 0 -78.69422346 0 3982.32770590 0 1638.91444733 0 -908.11775742 0 9285
0.09250000 0.09250820 19965.72683623 0 381.67410882 0 4326.55521219 0 542.60924283 0 -818.24812580 0 9204
0.09350000 0.09350330 19096.54933797 0 1048.56798328 0 4227.20324159 0 -154.22862686 0 456.79208209 0 9349
0.09450000 0.09448040 18979.84703438 0 407.00426631 0 4504.02243438 0 -343.30961056 0 1647.81659649 0 9564
0.09550000 0.09549270 18310.41427584 0 23.49193012 0 5388.00363092 0 -780.81813175 0 1539.78392323 0 10155
0.09650000 0.09649430 18613.24235963 0 493.51455458 0 6271.74123633 0 322.85238322 0 1596.49637095 0 9913
0.09750000 0.09749140 18077.34183841 0 414.64749213 0 5927.32550052 0 -78.97955727 0 1009.69526530 0 10476
0.09850000 0.09850240 18172.01021561 0 230.26006693 0 6481.38463444 0 -14.22151544 0 983.20694264 0 10575
0.09950000 0.09950330 17590.27026964 0 405.50396630 0 6103.48618838 0 84.12254143 0 97.66255528 0 10882
0.10050000 0.10051200 17390.30408341 0 298.92066036 0 6415.69253129 0 -40.58649241 0 197.59338702 0 10875
0.10150000 0.10150300 17136.30495207 0 191.80034667 0 5064.51458902 0 523.01676406 0 -245.31289252 0 11118
0.10250000 0.10250800 17113.16379320 0 -132.24120424 0 5222.63845976 0 542.47305323 0 -710.48008110 0 11575
0.10350000 0.10349800 16825.39407117 0 266.39238451 0 4627.72244725 0 517.16171870 0 -1302.60365329 0 11364
0.10450000 0.10450100 16839.23447719 0 266.80316776 0 4988.50307914 0 -249.31664517 0 -890.49947417 0 12093
0.10550000 0.10551000 16370.10007462 0 557.47273167 0 5286.76936511 0 -263.17476692 0 -748.75046461 0 12067
0.10650000 0.10649700 16121.52638245 0 551.01535183 0 5551.32042200 0 -376.52326332 0 -107.62554387 0 12054
0.10750000 0.10749900 15720.15460777 0 395.32185640 0 5775.91145862 0 -42.84037485 0 655.78722543 0 12807
0.10850000 0.10850100 15910.37714815 0 255.65776560 0 6104.95880758 0 417.37792743 0 857.15516798 0 12736
0.10950000 0.10950300 15585.73658447 0 -5.02124394 0 6535.21827771 0 678.42016459 0 1232.23902907 0 12933
0.11050000 0.11050200 15461.28365351 0 -110.53612590 0 6258.38801259 0 1345.25424849 0 1890.89841555 0 13428
0.11150000 0.11150900 15526.83181644 0 118.53477335 0 5526.03123211 0 1200.04070849 0 1555.75021562 0 13453
0.11250000 0.11250000 15233.19376225 0 118.51595039 0 5082.71749103 0 448.82443715 0 1753.78981732 0 13668
0.11350000 0.11349100 15219.79624921 0 -54.47384509 0 4659.55538111 0 298.92619652 0 1220.65737731 0 13791
0.11450000 0.11448600 15151.92289808 0 76.90526794 0 4153.94874059 0 182.71107523 0 1349.39529797 0 14205
0.11550000 0.11549300 15065.11587150 0 288.63225614 0 4110.45664870 0 -417.59605223 0 1.81592770 0 14776
0.11650000 0.11649800 14903.23848265 0 243.06631781 0 3896.91579225 0 -542.97462955 0 111.59242568 0 14553
0.11750000 0.11747300 14483.81881852 0 417.74995755 0 4050.72145630 0 -442.12678787 0 -150.99772248 0 14568
0.11850000 0.11849100 14294.92495711 0 333.49620907 0 4178.10855334 0 -345.20629980 0 -203.90350493 0 16015
0.11950000 0.11950300 14200.58874966 0 65.59843128 0 4804.65819785 0 111.12738804 0 -800.71952838 0 15270
0.12050000 0.12050700 13918.79808302 0 123.20729442 0 4435.68404560 0 241.36671595 0 -727.53256856 0 15999
0.12150000 0.12150000 13924.33424543 0 245.09698219 0 4221.13560759 0 615.83495579 0 -917.90679979 0 15670
0.12250000 0.12250700 13648.63335745 0 203.09190352 0 3900.68038269 0 405.15186637 0 -396.22203640 0 16887
0.12350000 0.12352200 13706.43089300 0 93.96705615 0 4268.03797552 0 -10.89967406 0 -733.46069126 0 16407
0.12450000 0.12449800 13428.29409356 0 -13.69735159 0 4004.49450019 0 -100.21162590 0 -1064.66603633 0 16306
0.12550000 0.12549900 13421.53997542 0 196.56366081 0 3887.36037593 0 359.78412266 0 166.33732129 0 17523
0.12650000 0.12650100 13337.72247654 0 193.11906056 0 4089.10920645 0 194.51970965 0 -274.60472783 0 17154
0.12750000 0.12750600 13268.96333942 0 -128.92504296 0 4188.57190030 0 548.62594414 0 215.69663809 0 18007
0.12850000 0.12850300 13360.97435866 0 192.33403273 0 3689.52007607 0 544.11618624 0 -367.11732338 0 17496
0.12950000 0.12949900 12981.19361738 0 291.05377358 0 3496.16406776 0 117.48290249 0 423.03588542 0 18405
0.13050000 0.13049000 12655.44582122 0 295.15606992 0 3532.95740313 0 165.20130076 0 572.48901859 0 18100
0.13150000 0.13148800 12821.30924700 0 244.27873738 0 3327.38862055 0 -64.08152278 0 630.25222993 0 19059
0.13250000 0.13249300 12367.89754568 0 166.93744129 0 3381.84231401 0 236.42181569 0 972.67937620 0 18957
0.13350000 0.13349100 12279.98328662 0 36.95897735 0 2972.57597174 0 111.56917380 0 528.51749503 0 19468
0.13450000 0.13450700 12451.71504455 0 9.91606408 0 3518.24228345 0 249.26903418 0 397.76219679 0 19953
0.13550000 0.13551000 12410.85816597 0 151.64988241 0 3296.38611106 0 -44.34953272 0 891.21585358 0 19956
0.13650000 0.13649900 12166.60268047 0 270.16694004 0 3139.53555768 0 179.98396162 0 864.42304199 0 19723
0.13750000 0.13749600 12143.01862861 0 132.77599753 0 3291.90181951 0 175.76540587 0 1194.28309959 0 20946
0.13850000 0.13851100 11905.29581475 0 188.36571151 0 2972.74205661 0 587.77657746 0 759.16287887 0 20955
0.13950000 0.13949800 11678.75604896 0 253.92605400 0 2716.40666473 0 284.74808459 0 613.35254056 0 20506
0.14050000 0.14048300 11390.32198744 0 157.58575575 0 2428.07225413 0 -59.10650579 0 69.25440221 0 21447
0.14150000 0.14148400 11025.53317396 0 303.34737582 0 2334.86542381 0 -155.40672222 0 -219.94176743 0 21771
0.14250000 0.14249400 11093.36223580 0 105.86161181 0 2623.19983441 0 -535.98799259 0 -885.82141693 0 22470
0.14350000 0.14350900 10873.73160070 0 92.28970966 0 2505.98820388 0 -300.55493550 0 -687.48396969 0 22519
0.14450000 0.14449900 10927.78669046 0 56.53451546 0 2836.90677573 0 -287.98120344 0 -535.84073067 0 22218
0.14550000 0.14550500 11030.03961016 0 2.62899066 0 3061.91856070 0 -0.76557375 0 -784.86285200 0 23559
0.14650000 0.14650700 11081.84701799 0 75.22360325 0 3260.13531960 0 346.79407118 0 -394.57115277 0 23044
0.14750000 0.14750500 10877.03115350 0 393.42184546 0 3140.13346322 0 339.63913488 0 -233.33263707 0 23649
0.14850000 0.14849900 10497.64901591 0 456.71679028 0 2901.60236965 0 231.27318465 0 39.59086896 0 23640
0.14950000 0.14949500 10179.61863014 0 234.88054808 0 2778.11273095 0 457.63468601 0 -3.58503055 0 24457
0.15050000 0.15050000 9843.46284865 0 148.24514253 0 2735.79430549 0 130.00902356 0 -29.97721221 0 24591
0.15150000 0.15149900 9716.39684903 0 117.63570057 0 2481.05332839 0 390.65376425 0 -236.02542646 0 25020
0.15250000 0.15250500 9539.48324308 0 139.04514784 0 2231.98138159 0 129.35354193 0 82.49933861 0 25297
0.15350000 0.15350100 9675.66176602 0 41.68220967 0 2176.58654052 0 204.04301622 0 -155.36686186 0 25452
0.15450000 0.15450400 9467.60171036 0 86.03772145 0 2386.19672167 0 -60.41237578 0 141.39026624 0 26061
0.15550000 0.15549900 9401.02382122 0 203.27016795 0 2055.77640443 0 126.28097179 0 79.77621104 0 26128
0.15650000 0.15649500 9378.75737601 0 107.94221236 0 2130.99070692 0 176.09093222 0 398.56272587 0 26331
0.15750000 0.15749700 9284.59832575 0 27.03197381 0 2288.61632304 0 35.39257556 0 494.74468987 0 27345
0.15850000 0.15849900 9337.67905093 0 121.39807654 0 2492.82320967 0 1.55607131 0 368.94979314 0 26980
0.15950000 0.15949700 9213.11539672 0 161.90064073 0 2255.70937368 0 -38.56368939 0 699.27710285 0 27777
0.16050000 0.16050000 9008.36596618 0 149.98571199 0 2469.60454453 0 85.44978100 0 1005.48556741 0 28224
0.16150000 0.16150500 9052.24558943 0 90.93334987 0 2461.54389206 0 202.27587318 0 1163.64597682 0 28075
0.16250000 0.16249700 8879.36230971 0 141.85530388 0 2595.04291240 0 378.24833152 0 1195.39033207 0 28590
0.16350000 0.16349900 8953.27007788 0 61.76596749 0 2287.21013779 0 422.08034378 0 1181.50563675 0 29163
0.16450000 0.16449100 8827.32238307 0 -46.40189885 0 2213.06985080 0 241.81071618 0 1301.48534848 0 28996
0.16550000 0.16550500 8833.19071522 0 4.89553984 0 2098.53772288 0 -104.77320228 0 846.72835969 0 30777
0.16650000 0.16650700 8847.48508656 0 66.63524378 0 2129.63988329 0 -301.94340504 0 941.23840265 0 29211
0.16750000 0.16749900 8640.12258736 0 230.06740848 0 2188.22355391 0 -134.35491105 0 423.22079324 0 30922
0.16850000 0.16850800 8561.61980439 0 145.44052266 0 2065.39825470 0 -95.14769814 0 674.03441673 0 30867
0.16950000 0.16949900 8430.58991249 0 158.36967635 0 2055.61031956 0 41.31737657 0 369.70714016 0 30852
0.17050000 0.17049200 8380.56514896 0 217.18143685 0 2317.62581406 0 -78.17172045 0 552.53668926 0 31257
0.17150000 0.17149500 8292.46266038 0 85.24848614 0 2265.43087487 0 11.79601197 0 535.84294513 0 32608
0.17250000 0.17250900 8241.88428061 0 63.06641204 0 2461.53281973 0 -84.08877084 0 533.96618608 0 32361
0.17350000 0.17350400 8154.35755291 0 221.02021187 0 2705.21254434 0 -200.20977737 0 846.94427003 0 32508
0.17450000 0.17449800 8085.58734347 0 98.98935196 0 2639.53151352 0 77.02617773 0 462.32160111 0 32791
0.17550000 0.17549800 8006.46451031 0 78.19475089 0 2618.20621592 0 108.63522917 0 909.56823197 0 33633
0.17650000 0.17650100 7949.45310982 0 81.16191249 0 2423.24472051 0 300.49071602 0 321.74404351 0 33984
0.17750000 0.17750300 7838.63021071 0 47.15658851 0 2217.02267076 0 317.49005631 0 449.77222816 0 34069
0.17850000 0.17849800 7772.78309501 0 79.35856295 0 1993.91532567 0 262.64550979 0 291.51659676 0 34536
