### header ###
fiducial parameters:
Omega_m = 0.31
Omega_nu = 0
Omega_de = 0.69
Omega_k = 0
H_0 = 100
w_de = -1
zeff = 0
beta = 0
fgrowth = 0
b_1 = 2
gamma = 0.55
Lx = 3500 Ly = 3500 Lz = 3500
nx = 700 ny = 700 nz = 700
xoffset = -685.467585 yoffset = -31.7331281 zoffset = 572.489161
bins = 400 dk = 0.001
kx_ny = 0.628318531 ky_ny = 0.628318531 kz_ny = 0.628318531
############################
A(data) = 8.03612941 (not used)
A(ran) = 8.03835831 (used)
Ngal = 478005
weighted Ngal = 0
Nran = 23820508
weighted Nran = 0
SN(data) = 3481.99681
SN(ran) = 70.0170162
SN(data+ran) = 3552.01383
############################
13 columns: k_central k_mean P_0(k) sigma^{lin}_{P_0(k)} P^img_1(k) sigma^{lin}_{P_1(k)} P_2(k) sigma^{lin}_{P_2(k)} P^img_3(k) sigma^{lin}_{P_3(k)} P_4(k) sigma^{lin}_{P_4(k)} N_modes
### header ###
0.00050000 0 0 0 0 0 0 0 0 0 0 0 0
0.00150000 0.00179520 76537.33458564 0 -63868.93414439 0 58798.25227044 0 -2269.94838340 0 -198466.99344431 0 3
0.00250000 0.00253879 134391.44971880 0 -61233.94228405 0 -1349.42851495 0 -1098.23178902 0 129259.42716536 0 6
0.00350000 0.00331552 118766.18493473 0 -1851.87954289 0 -17460.94551576 0 -8599.38750435 0 139247.77138426 0 7
0.00450000 0.00420575 100600.15377452 0 32873.84310981 0 -36090.79636262 0 -53322.21258489 0 17247.69253975 0 24
0.00550000 0.00557378 69775.02292590 0 8411.10262081 0 -27938.24359865 0 -5956.89968011 0 4614.23635562 0 45
0.00650000 0.00659388 59777.37795416 0 7178.35426480 0 -34822.79372439 0 -15793.56412132 0 43510.25050035 0 40
0.00750000 0.00754703 57999.05186503 0 -6784.26807986 0 -33572.61752911 0 561.92159178 0 28240.18589645 0 57
0.00850000 0.00846663 59631.44471305 0 2534.80946538 0 -12357.04666735 0 3443.73660975 0 39462.65143964 0 75
0.00950000 0.00948925 72139.73933742 0 -8297.32341097 0 -18045.56426618 0 17772.74218265 0 25423.49718584 0 112
0.01050000 0.01054430 64959.66886228 0 -8642.27061837 0 -21522.82787548 0 4010.87215928 0 14940.77366378 0 105
0.01150000 0.01145670 79434.85126744 0 -4342.22255180 0 -19808.49982381 0 -1302.19397727 0 10323.51456349 0 144
0.01250000 0.01249090 73452.58489117 0 -1891.58489969 0 -22111.43266284 0 -6687.28558677 0 9489.32561165 0 169
0.01350000 0.01339930 74388.30706159 0 -319.90603759 0 -30566.14917111 0 -3326.27031574 0 24725.82999902 0 180
0.01450000 0.01448870 77234.89104922 0 -3115.17644308 0 -31833.70891635 0 -6009.80324809 0 3763.97038815 0 267
0.01550000 0.01550050 79996.77175198 0 -2687.33073976 0 -29858.07399895 0 -14661.52963186 0 9658.86504927 0 238
0.01650000 0.01653350 82983.08847882 0 -3438.77620823 0 -14712.79449577 0 -10492.58896347 0 -7840.35749338 0 315
0.01750000 0.01747870 94824.49697937 0 -4220.50448507 0 -14014.13079971 0 -28006.44911953 0 5031.86230313 0 297
0.01850000 0.01844180 84231.82527187 0 5281.65395104 0 6209.16045645 0 -11954.01404396 0 815.25416916 0 388
0.01950000 0.01947590 83250.04223020 0 5284.92028686 0 13625.49219858 0 -2426.41140541 0 17079.28247926 0 399
0.02050000 0.02045430 83312.26869568 0 5398.17909743 0 18657.31021241 0 12.17291391 0 9856.58355356 0 462
0.02150000 0.02154770 75681.77604691 0 1074.84703900 0 11814.94564423 0 17620.82988614 0 9578.11458437 0 571
0.02250000 0.02255340 73716.77056134 0 -2317.51509082 0 12798.27881138 0 13558.61535667 0 -9070.37098516 0 510
0.02350000 0.02348930 77805.22650063 0 -931.61655238 0 7338.81439607 0 4217.37101715 0 -8023.31658869 0 555
0.02450000 0.02439640 72311.80326510 0 6996.11487061 0 9290.36700698 0 1463.60632848 0 2635.70048913 0 592
0.02550000 0.02547300 68067.89188537 0 9066.58425007 0 8131.99145678 0 -8730.40632393 0 1373.31151958 0 837
0.02650000 0.02652900 59370.02712408 0 6164.98188042 0 8275.68808828 0 -12997.80210461 0 9524.36951970 0 723
0.02750000 0.02749970 59326.51288754 0 3558.23552069 0 21675.62595797 0 -3546.68708591 0 -3364.00479873 0 826
0.02850000 0.02848090 54792.94949055 0 2797.57787798 0 18471.40587871 0 -2537.54432961 0 6249.49693576 0 831
0.02950000 0.02946900 54063.61545474 0 256.27781579 0 22154.72545288 0 5133.07442430 0 -1993.02953968 0 996
0.03050000 0.03053250 55160.66139777 0 -3956.25238095 0 18476.60987137 0 9459.50784091 0 -4585.10506903 0 1041
0.03150000 0.03150510 55720.92103360 0 282.91340037 0 16006.48492758 0 9154.95247445 0 -6929.60341542 0 1036
0.03250000 0.03246190 55221.11629128 0 200.19538335 0 11877.61500271 0 5663.60486799 0 -3729.80119376 0 1059
0.03350000 0.03345080 53524.50395932 0 2352.24897377 0 10457.08001777 0 -99.09675351 0 3987.55384321 0 1302
0.03450000 0.03451200 52310.31281971 0 3096.17633369 0 11750.72616028 0 -3166.95063393 0 -52.40376324 0 1339
0.03550000 0.03553350 51450.43607429 0 1809.91543183 0 16660.85932436 0 -2105.73473401 0 10947.62829654 0 1365
0.03650000 0.03647120 49709.86661280 0 1171.34124256 0 20897.24152322 0 -2858.24314566 0 7422.86441377 0 1308
0.03750000 0.03744890 49189.57806957 0 1395.87691756 0 18669.37904646 0 1841.15046014 0 7781.67417184 0 1579
0.03850000 0.03847530 49378.13976124 0 520.57863814 0 21439.56399284 0 -1734.02571752 0 6268.44168353 0 1662
0.03950000 0.03950240 49040.43385427 0 -780.38520385 0 19769.30379395 0 2623.66487205 0 4058.41672205 0 1683
0.04050000 0.04050350 49111.29673311 0 -219.08809119 0 20659.96160236 0 1524.57054893 0 5382.11315412 0 1822
0.04150000 0.04152450 48933.36447327 0 1003.96644444 0 20879.52580351 0 678.29504732 0 2312.76506347 0 1887
0.04250000 0.04250150 45448.01806686 0 2205.72889945 0 17998.50688570 0 2457.44713187 0 5656.87289450 0 1920
0.04350000 0.04349210 46652.24411413 0 2066.58299345 0 15074.74879409 0 2516.15259806 0 5218.81850770 0 2005
0.04450000 0.04448520 44691.11394225 0 1370.98633137 0 18024.19467928 0 2192.98465358 0 8476.94973651 0 2151
0.04550000 0.04548030 43944.72852623 0 655.03098564 0 16426.67965445 0 3574.50076585 0 10000.31340203 0 2274
0.04650000 0.04648670 44566.32884155 0 -1545.81834026 0 14130.27948706 0 3381.35513172 0 11496.17341270 0 2311
0.04750000 0.04749250 45538.70040712 0 -1086.49733918 0 14756.19800906 0 3553.08688965 0 9013.74711604 0 2568
0.04850000 0.04851840 46150.22490686 0 9.33958349 0 14331.90652201 0 2608.25219590 0 5864.62292507 0 2493
0.04950000 0.04949480 43499.84251502 0 3366.83931388 0 14491.23727615 0 -204.19692154 0 10791.49744427 0 2644
0.05050000 0.05050630 42147.24731517 0 4545.01218086 0 13710.08476019 0 -3758.56709364 0 4991.49260684 0 2829
0.05150000 0.05149060 38814.14537501 0 1855.04622779 0 15959.31682385 0 -2362.60159748 0 6991.67486836 0 2784
0.05250000 0.05249300 37143.88517612 0 1867.79047366 0 18837.89983020 0 13.01119962 0 6660.71200720 0 3055
0.05350000 0.05348950 36345.12766370 0 653.89717958 0 16840.56315617 0 47.20165287 0 5131.41357558 0 3009
0.05450000 0.05448610 35406.30524233 0 513.43588140 0 16223.05960103 0 3567.48091192 0 3334.47490843 0 3336
0.05550000 0.05550870 35274.43385374 0 -76.03398670 0 14505.96346816 0 2516.59549106 0 772.66668621 0 3349
0.05650000 0.05647670 35600.29237315 0 36.31633962 0 13801.54216319 0 4608.77769949 0 1758.39590445 0 3324
0.05750000 0.05747970 34750.60216657 0 -647.29032336 0 11156.36376402 0 3182.62904587 0 2386.63961466 0 3639
0.05850000 0.05849280 35262.69718943 0 -531.09070332 0 10749.36724834 0 2157.29855069 0 1727.75878168 0 3846
0.05950000 0.05951020 36077.84174258 0 -670.06720275 0 9973.95019664 0 2244.84742303 0 1300.58849017 0 3787
0.06050000 0.06049470 35430.22146394 0 1392.07911015 0 9168.18390261 0 -625.78233240 0 1063.09930237 0 3930
0.06150000 0.06148310 34247.80789655 0 1811.22196616 0 10908.59835155 0 -1338.27868386 0 1479.22937880 0 4083
0.06250000 0.06249100 32986.22720672 0 1900.24345770 0 10363.78460885 0 -2256.49550874 0 3054.40045215 0 4303
0.06350000 0.06350600 31830.05504916 0 928.80086018 0 10994.22063938 0 589.55700729 0 2018.25229562 0 4470
0.06450000 0.06451750 31268.57745760 0 26.54523441 0 10952.62191503 0 1911.06111905 0 2729.74881614 0 4479
0.06550000 0.06550280 31888.95981719 0 -245.97391031 0 10792.83719557 0 2212.53837921 0 3626.58498180 0 4636
0.06650000 0.06648880 31678.69636888 0 295.16382055 0 10084.47414298 0 2423.37758841 0 1153.90233098 0 4653
0.06750000 0.06749660 30862.99819949 0 1328.65683359 0 9986.88267202 0 -847.19118287 0 1605.78605147 0 5220
0.06850000 0.06852730 30467.49475697 0 1039.73448254 0 11201.20667954 0 -2624.31813922 0 502.82970145 0 5029
0.06950000 0.06949320 29149.33448731 0 912.01410852 0 12808.90824320 0 -2834.73660007 0 2478.07487301 0 5040
0.07050000 0.07048030 29401.56204668 0 134.77012323 0 12878.22099657 0 -1871.09002645 0 -1483.10469248 0 5475
0.07150000 0.07148790 29226.84076104 0 -194.79098160 0 14044.24752322 0 -1534.94531728 0 -1459.79744874 0 5509
0.07250000 0.07249820 29813.78469968 0 31.84002014 0 13516.31907587 0 1643.28801563 0 -4030.30408934 0 5916
0.07350000 0.07351270 29834.04705410 0 -158.92772152 0 11518.42878559 0 1845.90048749 0 -4325.79122177 0 5721
0.07450000 0.07449140 28723.16070504 0 436.84861063 0 10978.29863629 0 3113.74811317 0 -3725.43869778 0 6028
0.07550000 0.07549160 29179.78338056 0 -97.88068008 0 9134.51296284 0 2367.97167501 0 -3180.95712482 0 6183
0.07650000 0.07648840 28823.25452140 0 310.17678577 0 9243.11032466 0 2609.03833097 0 -285.46224954 0 6330
0.07750000 0.07749960 28260.89114386 0 1110.63168558 0 8873.74864103 0 1800.99113803 0 929.60249650 0 6583
0.07850000 0.07848650 26904.08846059 0 1455.09171069 0 8517.87304904 0 824.71879242 0 1462.39944507 0 6549
0.07950000 0.07947320 26035.24313207 0 1278.26668334 0 9102.84611385 0 661.15065957 0 2990.91174164 0 6828
0.08050000 0.08048110 24888.59317385 0 380.47940498 0 8631.48617400 0 255.06318175 0 2812.00511722 0 7147
0.08150000 0.08149960 24693.38808730 0 316.97851491 0 7769.19566177 0 141.40798196 0 2478.26310253 0 7386
0.08250000 0.08250610 24028.60570519 0 429.86308090 0 9110.17599288 0 48.53287848 0 2106.80874952 0 7227
0.08350000 0.08350160 23540.31618068 0 842.13555936 0 8385.13801911 0 -284.90863330 0 2070.32543924 0 7798
0.08450000 0.08449610 22844.97418207 0 1354.72108621 0 7720.55493884 0 177.34099769 0 1270.21710320 0 7371
0.08550000 0.08548940 21998.05205669 0 143.08654640 0 8102.16261372 0 598.98730634 0 1636.37888495 0 8256
0.08650000 0.08650700 22123.39077364 0 121.70256548 0 8714.90506918 0 616.27231262 0 -489.03137027 0 8037
0.08750000 0.08749060 21829.64199620 0 377.29832606 0 8072.16768579 0 190.98542356 0 -40.87968757 0 8155
0.08850000 0.08849210 21369.58689999 0 729.70495869 0 8355.17630815 0 -11.47657540 0 426.92337866 0 8718
0.08950000 0.08949900 20477.71113585 0 546.17896035 0 7612.28974677 0 -153.11253652 0 119.50581623 0 8571
0.09050000 0.09049190 20163.70000399 0 942.07879210 0 7680.58384625 0 361.67970467 0 450.61483207 0 8932
0.09150000 0.09150830 19748.70926979 0 4.32808319 0 7316.84690363 0 314.66993518 0 557.74289639 0 9285
0.09250000 0.09250820 19515.19393936 0 -144.40193859 0 7108.57647379 0 639.63602522 0 179.17789638 0 9204
0.09350000 0.09350330 20011.12336799 0 142.30926920 0 7125.57249239 0 323.17680234 0 -48.05876154 0 9349
0.09450000 0.09448040 19277.91401850 0 339.74210750 0 6636.10930146 0 597.06847245 0 -97.75179821 0 9564
0.09550000 0.09549270 19364.49959858 0 405.74645021 0 6430.26371075 0 166.94962085 0 -20.27187662 0 10155
0.09650000 0.09649430 18997.56275409 0 53.15236312 0 6359.00222822 0 -58.39256229 0 -157.28015958 0 9913
0.09750000 0.09749140 18669.15759997 0 512.88558685 0 6449.59598989 0 78.13850348 0 -389.73365406 0 10476
0.09850000 0.09850240 18048.22162414 0 332.82079726 0 5558.03025084 0 193.14231244 0 -1113.10081402 0 10575
0.09950000 0.09950330 18185.51845189 0 289.19805194 0 5736.11752322 0 457.33130431 0 -1211.51163701 0 10882
0.10050000 0.10051200 17886.56568179 0 295.38526705 0 5392.67615200 0 261.42312513 0 -1349.70532307 0 10875
0.10150000 0.10150300 17419.53502094 0 604.64415709 0 5033.45671791 0 871.61673142 0 -408.98399799 0 11118
0.10250000 0.10250800 17270.28008238 0 177.95329725 0 5203.78229059 0 312.53408373 0 55.46481816 0 11575
0.10350000 0.10349800 16939.21757030 0 -62.82835706 0 5497.05495806 0 679.46539205 0 517.96556948 0 11364
0.10450000 0.10450100 17096.11241298 0 559.65065796 0 5750.34546062 0 205.84448347 0 747.10733160 0 12093
0.10550000 0.10551000 16511.16149281 0 591.87223041 0 5985.77630323 0 -271.47679607 0 1790.02953646 0 12067
0.10650000 0.10649700 16237.56434654 0 338.88510956 0 6062.03140426 0 33.02409456 0 1354.46642274 0 12054
0.10750000 0.10749900 15898.30831410 0 210.15826122 0 6210.81023285 0 299.00591726 0 2046.35385601 0 12807
0.10850000 0.10850100 16032.72633740 0 22.30110159 0 6221.17392888 0 343.51001964 0 1613.79134232 0 12736
0.10950000 0.10950300 15685.71967758 0 193.35490108 0 6022.93502533 0 -72.45164673 0 877.17282402 0 12933
0.11050000 0.11050200 15616.40692422 0 173.10694068 0 6121.14654647 0 151.23024130 0 1302.10539867 0 13428
0.11150000 0.11150900 15626.92563280 0 107.02752761 0 6025.92455303 0 -0.28479348 0 1169.82433406 0 13453
0.11250000 0.11250000 15404.70407369 0 17.31135841 0 6321.58884266 0 234.87390468 0 1374.87271738 0 13668
0.11350000 0.11349100 15518.97046581 0 195.83067290 0 6146.86755702 0 15.28844466 0 500.08376490 0 13791
0.11450000 0.11448600 15220.68203520 0 244.33520624 0 6442.06680901 0 80.97202212 0 1422.83802850 0 14205
0.11550000 0.11549300 15029.90587858 0 255.25584021 0 6228.35986769 0 360.24140967 0 840.45256599 0 14776
0.11650000 0.11649800 14828.16812038 0 359.47520479 0 6314.29218060 0 516.93916497 0 1368.15181622 0 14553
0.11750000 0.11747300 14495.55548283 0 313.67785488 0 5384.41619768 0 948.50516943 0 745.91705669 0 14568
0.11850000 0.11849100 14155.74583414 0 131.02878467 0 5092.23969037 0 540.86424444 0 1105.96359344 0 16015
0.11950000 0.11950300 14008.59463730 0 167.59070846 0 4873.28446708 0 549.96569544 0 1335.53274730 0 15270
0.12050000 0.12050700 14016.67743442 0 52.63827508 0 4515.11690385 0 478.73410818 0 435.50110870 0 15999
0.12150000 0.12150000 13606.33707664 0 292.69247765 0 4241.76334872 0 591.82683388 0 1464.77999491 0 15670
0.12250000 0.12250700 13614.97349000 0 285.78999036 0 3806.04522246 0 34.28589669 0 1423.64630821 0 16887
0.12350000 0.12352200 13513.88316441 0 28.99952593 0 3841.79775930 0 115.69915096 0 1778.32608912 0 16407
0.12450000 0.12449800 13418.43972447 0 124.75963436 0 4397.30736778 0 156.09209913 0 1627.17778302 0 16306
0.12550000 0.12549900 13335.84018132 0 160.03606123 0 4323.32209334 0 424.61701340 0 1774.32897986 0 17523
0.12650000 0.12650100 13200.75781853 0 76.75700951 0 4416.57321296 0 -224.92874253 0 1258.64652376 0 17154
0.12750000 0.12750600 12896.04743953 0 244.61201436 0 4400.72871615 0 -42.53477868 0 1760.88717753 0 18007
0.12850000 0.12850300 13042.09140388 0 272.97488161 0 4897.65465401 0 -6.75912283 0 1678.84125063 0 17496
0.12950000 0.12949900 12764.84039042 0 49.90540387 0 4596.70886544 0 180.04818111 0 2309.52087230 0 18405
0.13050000 0.13049000 12876.89231759 0 -30.75138917 0 4249.99008606 0 745.58377971 0 2028.70457025 0 18100
0.13150000 0.13148800 12828.50625813 0 -77.71332620 0 4087.26012820 0 181.69685027 0 1688.56275182 0 19059
0.13250000 0.13249300 12882.87137299 0 79.47482236 0 3916.39201160 0 298.06366242 0 1079.72771978 0 18957
0.13350000 0.13349100 12666.62886928 0 65.36048702 0 3646.42658788 0 -277.12257449 0 1014.60030520 0 19468
0.13450000 0.13450700 12749.89275192 0 18.97807546 0 3550.93885864 0 -87.34846326 0 352.72883728 0 19953
0.13550000 0.13551000 12487.81082346 0 214.01696642 0 3685.35688194 0 -358.57834648 0 -254.53946079 0 19956
0.13650000 0.13649900 12382.18084469 0 365.93590633 0 3230.60542931 0 6.63857843 0 -660.54500340 0 19723
0.13750000 0.13749600 12218.42116062 0 119.82580642 0 3574.10216216 0 -224.26883197 0 -609.91901264 0 20946
0.13850000 0.13851100 12106.70140320 0 29.91277128 0 3328.14153864 0 -124.10193826 0 -713.53604275 0 20955
0.13950000 0.13949800 12196.60868073 0 141.54306432 0 3396.38027650 0 356.41259975 0 -1115.20455573 0 20506
0.14050000 0.14048300 11866.32123139 0 211.54340906 0 3429.95156535 0 362.15692187 0 -301.74963935 0 21447
0.14150000 0.14148400 11771.98502394 0 303.88881251 0 3359.86374924 0 323.14912153 0 -168.56285857 0 21771
0.14250000 0.14249400 11470.81778887 0 357.28399171 0 3147.98374151 0 101.84412947 0 -116.55282720 0 22470
0.14350000 0.14350900 11257.45408961 0 315.46160641 0 3584.49907516 0 -59.05457659 0 235.90916705 0 22519
0.14450000 0.14449900 10943.31008986 0 249.64770769 0 3482.25722779 0 -4.17508581 0 126.01080706 0 22218
0.14550000 0.14550500 10813.35421346 0 277.33294866 0 3674.95996893 0 180.58518886 0 421.63080740 0 23559
0.14650000 0.14650700 10542.73552257 0 272.62278168 0 3679.89822580 0 163.56038222 0 487.31073099 0 23044
0.14750000 0.14750500 10479.55683716 0 194.52746027 0 3621.43635076 0 -119.33751690 0 439.95993390 0 23649
0.14850000 0.14849900 10215.30473303 0 177.61226965 0 3543.05536337 0 91.96351897 0 402.92522185 0 23640
0.14950000 0.14949500 10102.83205753 0 189.77521846 0 3360.74953523 0 357.30392190 0 470.25492184 0 24457
0.15050000 0.15050000 10034.48259642 0 -52.56708003 0 3526.23650197 0 174.41015331 0 586.05483095 0 24591
0.15150000 0.15149900 10100.07504865 0 32.38234261 0 3197.16700836 0 329.17468070 0 476.24726403 0 25020
0.15250000 0.15250500 10000.94452454 0 19.07617626 0 3248.25471507 0 112.46160318 0 20.29092102 0 25297
0.15350000 0.15350100 9925.37590766 0 88.18840982 0 2827.14098524 0 145.91109646 0 130.96013626 0 25452
0.15450000 0.15450400 9866.90296029 0 142.56836160 0 2914.77843618 0 174.11673670 0 215.26703189 0 26061
0.15550000 0.15549900 9668.30974234 0 138.21140178 0 2652.26468706 0 35.68898169 0 19.13773839 0 26128
0.15650000 0.15649500 9614.36537583 0 121.22756274 0 2632.34557471 0 270.75045156 0 191.39620682 0 26331
0.15750000 0.15749700 9474.79872149 0 220.00598691 0 2572.03462142 0 -48.97887173 0 -170.42300914 0 27345
0.15850000 0.15849900 9343.34808124 0 247.81191623 0 2534.30013844 0 -24.78074873 0 23.95807500 0 26980
0.15950000 0.15949700 9181.47069239 0 100.42177862 0 2928.51919128 0 -219.58191687 0 -109.18308780 0 27777
0.16050000 0.16050000 9085.40720227 0 75.21363815 0 2646.61780140 0 206.00946111 0 127.27858826 0 28224
0.16150000 0.16150500 8958.85052959 0 87.84948596 0 2732.68298222 0 295.79383583 0 115.67700631 0 28075
0.16250000 0.16249700 9029.11550289 0 0.80610511 0 2493.01143919 0 500.26313656 0 151.73513931 0 28590
0.16350000 0.16349900 8916.78676760 0 16.17113040 0 2333.82462527 0 461.12689726 0 117.79403482 0 29163
0.16450000 0.16449100 8960.78818643 0 115.48324063 0 2190.26086168 0 -12.49644724 0 244.43817886 0 28996
0.16550000 0.16550500 8856.92977963 0 79.05429546 0 2154.17615509 0 34.57333425 0 444.24160191 0 30777
0.16650000 0.16650700 8925.10208354 0 89.61220007 0 2307.16246711 0 -102.73943765 0 250.15924909 0 29211
0.16750000 0.16749900 8650.51950036 0 108.35199910 0 2241.42607466 0 -158.29659900 0 391.75988950 0 30922
0.16850000 0.16850800 8623.60267873 0 178.14374124 0 2101.95907125 0 2.26038189 0 269.79380269 0 30867
0.16950000 0.16949900 8634.46462938 0 -75.11730893 0 2069.89361857 0 87.44479249 0 -19.07163661 0 30852
0.17050000 0.17049200 8519.34566824 0 136.33796442 0 2197.98934440 0 -116.36016875 0 -163.17838701 0 31257
0.17150000 0.17149500 8503.14685703 0 183.91574417 0 1975.70135134 0 -187.27398029 0 -646.92936557 0 32608
0.17250000 0.17250900 8176.03716491 0 282.76392399 0 2319.51918161 0 -221.29480552 0 -298.57520383 0 32361
0.17350000 0.17350400 8075.10185186 0 254.75094219 0 2041.80313051 0 -33.72397621 0 -271.25756403 0 32508
0.17450000 0.17449800 7902.72789909 0 82.64881499 0 2327.66841268 0 249.48383728 0 -76.77118209 0 32791
0.17550000 0.17549800 7899.71622674 0 14.89327339 0 2167.07541351 0 381.56892174 0 -232.75244725 0 33633
0.17650000 0.17650100 7956.41760213 0 -108.33727291 0 2103.34311185 0 381.63424845 0 -245.15455827 0 33984
0.17750000 0.17750300 7984.36414997 0 -63.11679112 0 1912.99877589 0 46.65390496 0 -92.82837826 0 34069
0.17850000 0.17849800 8045.82662504 0 113.58212245 0 1953.06951941 0 209.32894409 0 9.78861055 0 34536
