### header ###
fiducial parameters:
Omega_m = 0.31
Omega_nu = 0
Omega_de = 0.69
Omega_k = 0
H_0 = 100
w_de = -1
zeff = 0
beta = 0
fgrowth = 0
b_1 = 2
gamma = 0.55
Lx = 3500 Ly = 3500 Lz = 3500
nx = 700 ny = 700 nz = 700
xoffset = -685.467585 yoffset = -31.7331281 zoffset = 572.489161
bins = 400 dk = 0.001
kx_ny = 0.628318531 ky_ny = 0.628318531 kz_ny = 0.628318531
############################
A(data) = 8.03491083 (not used)
A(ran) = 8.03448813 (used)
Ngal = 476945
weighted Ngal = 0
Nran = 23820508
weighted Nran = 0
SN(data) = 3483.14379
SN(ran) = 69.9833054
SN(data+ran) = 3553.12709
############################
13 columns: k_central k_mean P_0(k) sigma^{lin}_{P_0(k)} P^img_1(k) sigma^{lin}_{P_1(k)} P_2(k) sigma^{lin}_{P_2(k)} P^img_3(k) sigma^{lin}_{P_3(k)} P_4(k) sigma^{lin}_{P_4(k)} N_modes
### header ###
0.00050000 0 0 0 0 0 0 0 0 0 0 0 0
0.00150000 0.00179520 41008.90160056 0 -69261.48850082 0 -13178.05955266 0 -134765.69429767 0 103340.88633688 0 3
0.00250000 0.00253879 75856.71877904 0 -65757.31914221 0 -42900.49757258 0 -42374.45142045 0 21261.07811676 0 6
0.00350000 0.00331552 115975.95908043 0 -51722.70454158 0 -12686.22688421 0 -70852.58157726 0 -34142.73153403 0 7
0.00450000 0.00420575 137374.33402494 0 -20743.77910124 0 -10700.50507891 0 -87401.61042095 0 38448.31576300 0 24
0.00550000 0.00557378 130645.68223265 0 33429.89526220 0 1520.75059687 0 -38604.54626620 0 55936.94209081 0 45
0.00650000 0.00659388 95179.03282006 0 28148.94993995 0 21310.57140870 0 -35197.70264275 0 32734.88543334 0 40
0.00750000 0.00754703 85592.72471533 0 18198.14090218 0 4643.29013595 0 14236.68452857 0 29445.18700647 0 57
0.00850000 0.00846663 71708.58300898 0 3671.10679990 0 1706.15667595 0 43872.86913816 0 25048.80971398 0 75
0.00950000 0.00948925 73313.51649145 0 -8225.23150408 0 -7242.50731480 0 40671.97075633 0 13825.90127780 0 112
0.01050000 0.01054430 69507.62628153 0 -3493.52885445 0 -5534.21368016 0 42400.58210702 0 14904.78860812 0 105
0.01150000 0.01145670 70695.90818107 0 4448.12933869 0 -27628.55067347 0 12391.14942780 0 -7955.49859917 0 144
0.01250000 0.01249090 69663.52461498 0 -6383.84852511 0 -18630.95807934 0 1129.32176988 0 14041.36871877 0 169
0.01350000 0.01339930 69054.32530346 0 -6765.12403024 0 -13503.03228608 0 -38926.41874867 0 -13140.63509477 0 180
0.01450000 0.01448870 86131.72548750 0 -7492.70863873 0 2509.58670945 0 -24476.25979760 0 5521.53586824 0 267
0.01550000 0.01550050 84579.82844092 0 -8888.62984559 0 24051.30397106 0 -13980.58165551 0 23208.25715937 0 238
0.01650000 0.01653350 97201.50367144 0 10484.34008148 0 18143.00072459 0 -17420.19936042 0 10343.79906255 0 315
0.01750000 0.01747870 88680.79610725 0 3637.63516197 0 22532.51317569 0 13828.78008225 0 9186.71897436 0 297
0.01850000 0.01844180 85400.39843323 0 5772.80013535 0 22572.70571478 0 -1502.95737088 0 -2099.60066606 0 388
0.01950000 0.01947590 90199.58690262 0 5588.73380756 0 31816.10391988 0 3782.64940012 0 -1969.76658524 0 399
0.02050000 0.02045430 77730.70975460 0 5158.08680607 0 33975.65015251 0 -8647.44139406 0 -15489.29663530 0 462
0.02150000 0.02154770 71688.09920807 0 11282.47754370 0 38000.32950084 0 -6207.08993171 0 -16445.61332989 0 571
0.02250000 0.02255340 66284.47252683 0 3329.97954456 0 27845.12534692 0 674.11192300 0 -18686.65187318 0 510
0.02350000 0.02348930 62770.55952238 0 -2338.06532568 0 29912.77128356 0 11002.13735162 0 -22139.44564463 0 555
0.02450000 0.02439640 64573.24472610 0 -3612.61170788 0 23508.53860845 0 12889.62549113 0 -25558.69027187 0 592
0.02550000 0.02547300 64493.08109442 0 -750.06032063 0 15338.71301777 0 10290.97300084 0 -19755.46338793 0 837
0.02650000 0.02652900 65073.16019167 0 974.50298810 0 11934.85892202 0 3821.57969418 0 -11713.08025590 0 723
0.02750000 0.02749970 63089.11030741 0 3043.19525943 0 15898.41903735 0 -2875.83706980 0 -2435.46856711 0 826
0.02850000 0.02848090 61854.21392039 0 3884.39299288 0 17634.11667592 0 -4741.71203126 0 -185.34961023 0 831
0.02950000 0.02946900 62392.88252282 0 1744.83230655 0 25915.10840779 0 -4712.69146791 0 11660.26526652 0 996
0.03050000 0.03053250 59859.97749730 0 3278.63717437 0 28366.96401563 0 3951.35841338 0 10005.12986333 0 1041
0.03150000 0.03150510 57829.86674180 0 4267.52864858 0 29203.36743243 0 -2741.29725093 0 4701.46413054 0 1036
0.03250000 0.03246190 54785.64175617 0 4386.20182598 0 25954.96877713 0 7217.04096772 0 7336.21239974 0 1059
0.03350000 0.03345080 51160.23044080 0 2424.16372347 0 29493.68378917 0 -397.27612173 0 6159.00282502 0 1302
0.03450000 0.03451200 50435.98967441 0 1522.65503674 0 25507.09323822 0 8383.97542500 0 1936.99250377 0 1339
0.03550000 0.03553350 47250.59254733 0 797.04130207 0 19590.81791787 0 6237.47239101 0 331.84864714 0 1365
0.03650000 0.03647120 48179.44987637 0 -517.65000822 0 19895.41757363 0 6616.25662306 0 7713.11433657 0 1308
0.03750000 0.03744890 48981.08619324 0 -2869.76943580 0 17189.34138796 0 7084.99242193 0 3731.59491038 0 1579
0.03850000 0.03847530 49601.68999932 0 576.45512534 0 15822.01999610 0 4378.46227094 0 5879.28268313 0 1662
0.03950000 0.03950240 51064.23338462 0 1099.85831354 0 13709.86331370 0 2765.82245040 0 10498.46836795 0 1683
0.04050000 0.04050350 49230.87784115 0 1009.41292102 0 18013.12235446 0 1787.70434824 0 13608.55154161 0 1822
0.04150000 0.04152450 47504.14878568 0 2229.24651736 0 14009.81259303 0 1499.79068598 0 15600.01988349 0 1887
0.04250000 0.04250150 46497.89590616 0 2026.08042926 0 18398.21781166 0 942.35338576 0 12630.31164388 0 1920
0.04350000 0.04349210 45250.93068508 0 690.37273923 0 14191.95233630 0 596.94889134 0 9096.10306804 0 2005
0.04450000 0.04448520 45202.43390238 0 1169.15999458 0 14548.92408845 0 821.87874110 0 6825.04745216 0 2151
0.04550000 0.04548030 42488.82853583 0 1578.08309478 0 13124.46950053 0 -2975.20011272 0 616.40407328 0 2274
0.04650000 0.04648670 42251.88078471 0 1284.91007823 0 16064.39318638 0 -2765.24668951 0 -2566.34344647 0 2311
0.04750000 0.04749250 41230.79098993 0 958.18459578 0 15555.73058421 0 -3306.42870967 0 -6863.65664881 0 2568
0.04850000 0.04851840 40129.64828672 0 1532.50940582 0 16816.97910430 0 -4136.48768435 0 -7392.44873749 0 2493
0.04950000 0.04949480 39836.23167902 0 499.78924106 0 18624.31468445 0 -1480.59127475 0 -5883.62303446 0 2644
0.05050000 0.05050630 39589.42955881 0 -832.34651699 0 17082.93634645 0 5159.55942527 0 -5693.19011990 0 2829
0.05150000 0.05149060 40144.37447873 0 -729.66952725 0 18209.54539675 0 4143.67362316 0 -3679.79857488 0 2784
0.05250000 0.05249300 40771.95384945 0 856.06343675 0 15515.75949162 0 5797.43605807 0 -2174.98105343 0 3055
0.05350000 0.05348950 39092.83579070 0 1711.73712766 0 15392.19234664 0 3516.09425243 0 684.67159918 0 3009
0.05450000 0.05448610 38178.26176068 0 835.56192011 0 12574.17495705 0 -701.03649527 0 1746.88068664 0 3336
0.05550000 0.05550870 36207.72011270 0 1716.21034689 0 16609.92663020 0 -1731.98840976 0 1866.56144560 0 3349
0.05650000 0.05647670 37652.32633179 0 819.27563754 0 17514.53556788 0 -3675.41393425 0 820.79033157 0 3324
0.05750000 0.05747970 35473.84642372 0 117.66005969 0 17646.51767972 0 -1894.68515064 0 -339.60702514 0 3639
0.05850000 0.05849280 35189.17695264 0 1346.69365072 0 19108.28600228 0 101.30701099 0 -671.84984704 0 3846
0.05950000 0.05951020 35615.57218140 0 394.43385594 0 18370.75844611 0 2461.74319390 0 -1702.72425526 0 3787
0.06050000 0.06049470 35356.14761090 0 -209.07095892 0 17424.40684386 0 2616.86646461 0 -2994.85348927 0 3930
0.06150000 0.06148310 35112.33501839 0 -603.00323855 0 13743.08028815 0 3921.07560500 0 -2990.21418517 0 4083
0.06250000 0.06249100 35620.00111133 0 -397.27501449 0 14381.06764420 0 945.12921759 0 -4210.35116321 0 4303
0.06350000 0.06350600 34658.36970083 0 996.64874497 0 13366.84269081 0 457.76201774 0 -5697.25366311 0 4470
0.06450000 0.06451750 33439.08529180 0 1229.94705783 0 12190.85107183 0 -1096.37938908 0 -3867.62949310 0 4479
0.06550000 0.06550280 32895.21269671 0 1349.78282934 0 12729.74112075 0 1501.45153471 0 -3144.27451270 0 4636
0.06650000 0.06648880 31347.08024057 0 608.85717669 0 11248.48550651 0 2821.23943612 0 -3216.47714284 0 4653
0.06750000 0.06749660 31123.41927923 0 341.73955490 0 10198.92876463 0 3003.36810706 0 -3852.98080737 0 5220
0.06850000 0.06852730 30694.03452276 0 851.30344431 0 9432.85675507 0 1211.75522815 0 -2286.56794295 0 5029
0.06950000 0.06949320 29317.85527105 0 1405.84200990 0 7586.45801297 0 1440.03334894 0 -1537.27050550 0 5040
0.07050000 0.07048030 28906.73985054 0 224.28211876 0 7134.44142457 0 817.63139730 0 -1349.21814078 0 5475
0.07150000 0.07148790 28329.65028099 0 153.58975372 0 7816.36376550 0 -191.48810711 0 -1285.69621329 0 5509
0.07250000 0.07249820 28501.82493192 0 680.82839524 0 7353.47415413 0 452.21367578 0 -63.31166404 0 5916
0.07350000 0.07351270 27745.03153056 0 1194.00629147 0 7358.77779772 0 159.96519835 0 1165.03001742 0 5721
0.07450000 0.07449140 26809.86297638 0 598.02512131 0 7274.31810400 0 259.58733368 0 298.71803682 0 6028
0.07550000 0.07549160 26698.03249571 0 96.84752145 0 8152.88493371 0 -168.37020012 0 377.93387750 0 6183
0.07650000 0.07648840 26764.79861437 0 6.21161851 0 8553.39306705 0 -208.10877390 0 -663.15364313 0 6330
0.07750000 0.07749960 26660.82948432 0 657.22994935 0 9421.70692398 0 -735.05842774 0 -1366.93386049 0 6583
0.07850000 0.07848650 25697.98011809 0 1127.41733001 0 8623.77983593 0 -853.15362979 0 -909.15301979 0 6549
0.07950000 0.07947320 25049.58477671 0 434.65629031 0 8453.58713114 0 1121.88116760 0 -967.71786745 0 6828
0.08050000 0.08048110 24374.61585577 0 125.88347533 0 7936.76422558 0 758.34020513 0 -1510.37582851 0 7147
0.08150000 0.08149960 24313.16445302 0 740.15169715 0 7317.62196637 0 2361.15112293 0 -1742.92786668 0 7386
0.08250000 0.08250610 23625.01946555 0 618.44691721 0 7236.21823430 0 686.10103632 0 -80.59777754 0 7227
0.08350000 0.08350160 22990.02163720 0 158.69963163 0 7363.84892249 0 653.09443603 0 -1252.64532371 0 7798
0.08450000 0.08449610 23208.14643612 0 -54.75275695 0 7246.28297756 0 58.67335645 0 376.21545269 0 7371
0.08550000 0.08548940 22770.01454305 0 726.85383504 0 7995.52505339 0 -183.91131524 0 297.66948766 0 8256
0.08650000 0.08650700 22069.02565878 0 1072.85402054 0 7817.53743193 0 169.44310840 0 1383.48698609 0 8037
0.08750000 0.08749060 21639.97307206 0 816.79765124 0 8724.53799178 0 -514.75570252 0 1038.45562902 0 8155
0.08850000 0.08849210 20677.34515233 0 578.31638314 0 8443.66632810 0 -66.68673009 0 1304.67417803 0 8718
0.08950000 0.08949900 20692.84640707 0 153.43695564 0 9630.87421213 0 93.65105200 0 724.23744469 0 8571
0.09050000 0.09049190 20411.83080317 0 -36.08359935 0 8317.20930635 0 251.58093560 0 723.69822247 0 8932
0.09150000 0.09150830 20628.73764637 0 226.93836948 0 8815.02103019 0 478.68760442 0 160.89195194 0 9285
0.09250000 0.09250820 20053.75181854 0 298.06809135 0 8539.03226176 0 -985.43469439 0 -333.60139616 0 9204
0.09350000 0.09350330 19996.72934572 0 654.45854645 0 8713.77569205 0 220.92831157 0 -218.76145760 0 9349
0.09450000 0.09448040 19459.16797578 0 618.59971529 0 8892.16191721 0 -309.80143396 0 -337.75241073 0 9564
0.09550000 0.09549270 18856.50133590 0 654.55376844 0 9057.31671420 0 382.60529134 0 430.81862253 0 10155
0.09650000 0.09649430 18343.18835731 0 579.07815909 0 8080.62694195 0 1101.16706233 0 -400.91227320 0 9913
0.09750000 0.09749140 17874.93974073 0 288.69204669 0 7565.87456113 0 1593.08609491 0 640.59710301 0 10476
0.09850000 0.09850240 17996.29242074 0 -545.19020175 0 6272.02911677 0 1451.31604793 0 -267.90707854 0 10575
0.09950000 0.09950330 18170.34936689 0 -496.59708981 0 6047.24985063 0 681.69978720 0 -481.06151086 0 10882
0.10050000 0.10051200 18401.31806260 0 207.99583618 0 5331.90016107 0 429.32828761 0 -523.13191624 0 10875
0.10150000 0.10150300 18104.24758772 0 512.52795076 0 5357.85369044 0 -637.39830837 0 -1395.67761572 0 11118
0.10250000 0.10250800 17411.56294707 0 692.90055099 0 5478.56417562 0 -178.41944213 0 -997.73051111 0 11575
0.10350000 0.10349800 17028.01761535 0 642.78056546 0 6045.36755541 0 -594.62813206 0 -70.28213540 0 11364
0.10450000 0.10450100 16663.73812881 0 56.62165466 0 6266.81405178 0 432.32224424 0 -460.45591437 0 12093
0.10550000 0.10551000 16924.82354804 0 100.57789840 0 6347.16591299 0 359.16296523 0 -106.69447208 0 12067
0.10650000 0.10649700 16591.76801749 0 314.51492264 0 6190.04962381 0 912.19790911 0 -291.16006790 0 12054
0.10750000 0.10749900 16520.68369216 0 251.23437183 0 5979.42078879 0 53.43592536 0 465.83263531 0 12807
0.10850000 0.10850100 16100.15679555 0 336.91866467 0 6092.33635729 0 209.98331849 0 726.64124641 0 12736
0.10950000 0.10950300 15735.65586252 0 302.82365486 0 5751.99523701 0 312.69020351 0 295.07967088 0 12933
0.11050000 0.11050200 15719.71171478 0 26.46961043 0 5389.29909293 0 724.21419281 0 -8.47132500 0 13428
0.11150000 0.11150900 15562.37397910 0 51.30782453 0 4936.24170600 0 48.61149199 0 96.77710146 0 13453
0.11250000 0.11250000 15352.99631678 0 196.40089763 0 5108.03989789 0 459.17927532 0 -140.66835066 0 13668
0.11350000 0.11349100 15416.10856825 0 -42.94401181 0 4456.23428046 0 -320.32567870 0 -311.54753958 0 13791
0.11450000 0.11448600 15471.02729935 0 210.94993244 0 4813.49391306 0 34.53923149 0 -52.51858325 0 14205
0.11550000 0.11549300 15318.11849360 0 -14.10282012 0 4431.54299612 0 -111.13181697 0 -343.64842370 0 14776
0.11650000 0.11649800 15231.64363677 0 295.21364601 0 5120.07551496 0 763.89851219 0 -375.68287386 0 14553
0.11750000 0.11747300 14854.07736045 0 317.48341292 0 4463.20984510 0 478.11627246 0 -318.39466525 0 14568
0.11850000 0.11849100 14622.77649499 0 428.83003299 0 4523.58723233 0 625.82883617 0 -411.22835823 0 16015
0.11950000 0.11950300 14107.24905144 0 498.91563463 0 4184.66336963 0 729.43700843 0 40.73320071 0 15270
0.12050000 0.12050700 13813.50027400 0 344.09685285 0 4076.34281593 0 218.88103871 0 -150.46625089 0 15999
0.12150000 0.12150000 13384.00479428 0 72.93196418 0 3270.83118538 0 339.75207260 0 388.49023198 0 15670
0.12250000 0.12250700 13612.31613204 0 40.72179622 0 3549.76519221 0 233.88736054 0 93.17128816 0 16887
0.12350000 0.12352200 13385.11202677 0 -103.86726466 0 3361.71282749 0 118.90901792 0 -54.91031613 0 16407
0.12450000 0.12449800 13619.07025018 0 -39.85018281 0 3383.77997085 0 19.54630717 0 -231.12038657 0 16306
0.12550000 0.12549900 13546.87869237 0 45.82934893 0 3493.01952751 0 4.92059651 0 -63.74093807 0 17523
0.12650000 0.12650100 13518.42281758 0 294.64785021 0 3411.89260357 0 -269.08295944 0 -248.01675424 0 17154
0.12750000 0.12750600 13432.94446998 0 201.71450631 0 3406.09070536 0 -115.06470675 0 -12.64171614 0 18007
0.12850000 0.12850300 13139.52786229 0 173.24202304 0 3826.63974662 0 -120.14801107 0 70.46383225 0 17496
0.12950000 0.12949900 13159.01515397 0 348.64314942 0 3840.45800800 0 -134.58964433 0 -322.57114617 0 18405
0.13050000 0.13049000 12775.91271524 0 147.29624429 0 3683.96176901 0 -92.05298335 0 -137.51938148 0 18100
0.13150000 0.13148800 12629.64730439 0 424.09772137 0 3974.01238996 0 8.13139355 0 -557.57016813 0 19059
0.13250000 0.13249300 12457.80482320 0 236.41738676 0 4093.29454523 0 -15.99906647 0 -220.56624655 0 18957
0.13350000 0.13349100 12117.44155828 0 349.27427194 0 3856.47966201 0 208.46640999 0 169.42428544 0 19468
0.13450000 0.13450700 12095.85052488 0 148.63267390 0 4290.07190191 0 354.50705265 0 789.07476436 0 19953
0.13550000 0.13551000 12066.73031061 0 -86.49611570 0 4278.45703317 0 534.10901907 0 538.19802862 0 19956
0.13650000 0.13649900 11857.68481803 0 136.16302169 0 4315.35001947 0 147.94840423 0 636.32429286 0 19723
0.13750000 0.13749600 11787.48627868 0 407.46266056 0 4089.99499243 0 -238.67614102 0 760.94552316 0 20946
0.13850000 0.13851100 11545.11308840 0 309.13820170 0 4204.39425246 0 64.65894452 0 800.73724409 0 20955
0.13950000 0.13949800 11405.71251894 0 65.04503649 0 3866.93193664 0 -152.63974825 0 694.75959433 0 20506
0.14050000 0.14048300 11354.77982477 0 29.80858071 0 4037.39037722 0 266.50089329 0 192.01625700 0 21447
0.14150000 0.14148400 11250.36780173 0 131.52814652 0 3740.75172301 0 359.15410737 0 171.46380768 0 21771
0.14250000 0.14249400 11160.23907771 0 157.49164099 0 3428.95505611 0 251.22994290 0 -251.69608778 0 22470
0.14350000 0.14350900 10861.70705595 0 248.89257513 0 2962.88768752 0 272.20314057 0 54.90289768 0 22519
0.14450000 0.14449900 10793.43510111 0 164.14500097 0 3304.36925725 0 27.09829704 0 40.63044954 0 22218
0.14550000 0.14550500 10493.04292878 0 197.57899299 0 3124.23360478 0 184.66976949 0 320.13191302 0 23559
0.14650000 0.14650700 10493.12043506 0 276.93213050 0 3171.32420223 0 244.58654801 0 642.72963277 0 23044
0.14750000 0.14750500 10238.16908378 0 81.98702214 0 3011.28481930 0 85.95611842 0 421.18680717 0 23649
0.14850000 0.14849900 10177.71419027 0 5.95894806 0 3281.75956997 0 318.45999197 0 751.22734367 0 23640
0.14950000 0.14949500 10262.32889654 0 -45.96863878 0 3409.45669211 0 164.71854740 0 366.84494419 0 24457
0.15050000 0.15050000 10134.68713603 0 180.25744805 0 3373.10624973 0 180.85978252 0 1105.30811181 0 24591
0.15150000 0.15149900 10116.98248864 0 213.32605335 0 3298.75558857 0 -187.01267342 0 962.60356062 0 25020
0.15250000 0.15250500 9969.98630435 0 162.91708015 0 3408.02836220 0 73.14964608 0 1327.80426458 0 25297
0.15350000 0.15350100 9681.47473655 0 259.27952305 0 3313.61464848 0 190.15389197 0 1309.97782162 0 25452
0.15450000 0.15450400 9618.48428066 0 94.55366791 0 3173.94834321 0 351.68914598 0 940.38694087 0 26061
0.15550000 0.15549900 9551.07596716 0 -70.71473113 0 3151.73725963 0 145.87566502 0 815.72917190 0 26128
0.15650000 0.15649500 9606.43759126 0 -14.45436643 0 2973.17387728 0 -98.31072917 0 114.09587833 0 26331
0.15750000 0.15749700 9614.40966513 0 -5.76989919 0 2753.36608498 0 -205.66179011 0 113.53118976 0 27345
0.15850000 0.15849900 9597.91190115 0 79.84807043 0 2875.41632145 0 -421.78914164 0 -286.56726756 0 26980
0.15950000 0.15949700 9517.81470341 0 98.28338053 0 3045.55366462 0 -214.84849801 0 -359.15521461 0 27777
0.16050000 0.16050000 9548.70648965 0 143.29470611 0 2986.15064196 0 330.62072632 0 -440.82689693 0 28224
0.16150000 0.16150500 9391.64556210 0 181.47097485 0 2867.13422249 0 136.45090214 0 -49.67388156 0 28075
0.16250000 0.16249700 9251.48100222 0 67.58281334 0 2582.92978904 0 461.91524678 0 -352.88052813 0 28590
0.16350000 0.16349900 9295.64850592 0 44.89296242 0 2652.14289149 0 217.75387605 0 -357.97933371 0 29163
0.16450000 0.16449100 9127.24951775 0 64.04742002 0 2485.51547529 0 148.41787080 0 -399.80946964 0 28996
0.16550000 0.16550500 9005.93005472 0 211.60873577 0 2477.51018445 0 -117.48290249 0 -314.26468810 0 30777
0.16650000 0.16650700 8923.97270641 0 225.16790474 0 2473.46878589 0 190.45505921 0 -21.98520816 0 29211
0.16750000 0.16749900 8787.41772442 0 119.18804051 0 2430.74068441 0 246.13999518 0 -170.88251062 0 30922
0.16850000 0.16850800 8703.78845507 0 74.29673894 0 2192.12101225 0 388.08166320 0 203.82489142 0 30867
0.16950000 0.16949900 8616.89284989 0 144.41633261 0 2348.87191470 0 195.62029873 0 155.52187440 0 30852
0.17050000 0.17049200 8461.12738434 0 168.62929252 0 2347.28857225 0 -31.69331184 0 424.55722285 0 31257
0.17150000 0.17149500 8368.00913262 0 110.58683714 0 2364.21815690 0 159.09159192 0 952.22104164 0 32608
0.17250000 0.17250900 8280.46026027 0 139.16251448 0 2363.66454066 0 260.68570830 0 1022.08187508 0 32361
0.17350000 0.17350400 8146.45191299 0 122.27279020 0 2266.03985273 0 47.10654160 0 879.70617193 0 32508
0.17450000 0.17449800 8099.93707643 0 131.49825124 0 2337.02452715 0 153.20111512 0 913.42029377 0 32791
0.17550000 0.17549800 7932.25778938 0 141.75786742 0 2214.28780653 0 -12.32737284 0 932.49790944 0 33633
0.17650000 0.17650100 7911.92900101 0 111.27022103 0 2121.98890684 0 -12.06639814 0 975.83498878 0 33984
0.17750000 0.17750300 7802.47907018 0 30.87473486 0 2097.33083947 0 82.27313101 0 936.30789641 0 34069
0.17850000 0.17849800 7829.14122834 0 -16.98538916 0 2022.14975395 0 144.40968921 0 701.09739305 0 34536
