### header ###
fiducial parameters:
Omega_m = 0.31
Omega_nu = 0
Omega_de = 0.69
Omega_k = 0
H_0 = 100
w_de = -1
zeff = 0
beta = 0
fgrowth = 0
b_1 = 2
gamma = 0.55
Lx = 3500 Ly = 3500 Lz = 3500
nx = 700 ny = 700 nz = 700
xoffset = -685.467585 yoffset = -31.7331281 zoffset = 572.489161
bins = 400 dk = 0.001
kx_ny = 0.628318531 ky_ny = 0.628318531 kz_ny = 0.628318531
############################
A(data) = 8.04537752 (not used)
A(ran) = 8.04521664 (used)
Ngal = 477890
weighted Ngal = 0
Nran = 23820508
weighted Nran = 0
SN(data) = 3484.6202
SN(ran) = 70.0767547
SN(data+ran) = 3554.69695
############################
13 columns: k_central k_mean P_0(k) sigma^{lin}_{P_0(k)} P^img_1(k) sigma^{lin}_{P_1(k)} P_2(k) sigma^{lin}_{P_2(k)} P^img_3(k) sigma^{lin}_{P_3(k)} P_4(k) sigma^{lin}_{P_4(k)} N_modes
### header ###
0.00050000 0 0 0 0 0 0 0 0 0 0 0 0
0.00150000 0.00179520 22401.30612659 0 -16948.73976965 0 2280.37851337 0 42980.43975777 0 -19240.93245360 0 3
0.00250000 0.00253879 39813.64413639 0 -7955.19964640 0 16181.53838296 0 -12922.39957259 0 15629.69371400 0 6
0.00350000 0.00331552 35379.51021627 0 1322.40097007 0 10153.02290593 0 -45691.94138261 0 25708.94171966 0 7
0.00450000 0.00420575 29139.92301122 0 6225.11567651 0 3362.53217953 0 -8635.14004119 0 23096.86957170 0 24
0.00550000 0.00557378 32991.20975289 0 -14539.29116586 0 -7875.94394535 0 -2070.25900529 0 4944.11412895 0 45
0.00650000 0.00659388 55192.77113975 0 -28333.96848767 0 -1543.21634392 0 9571.39368321 0 -628.38654320 0 40
0.00750000 0.00754703 75169.68102405 0 -21714.82198783 0 1310.18819579 0 -16637.05382600 0 8697.64331479 0 57
0.00850000 0.00846663 107680.68404955 0 -23889.75875196 0 -11347.02919740 0 -9926.92603313 0 14869.80006170 0 75
0.00950000 0.00948925 111108.56509015 0 1012.45559588 0 5624.99567134 0 -17854.45593981 0 -1314.49533014 0 112
0.01050000 0.01054430 106888.56993202 0 14505.74202166 0 27610.72423051 0 5272.81823584 0 14351.72598343 0 105
0.01150000 0.01145670 89079.51052397 0 24040.34236949 0 26527.51869351 0 8905.58157489 0 -15074.30590110 0 144
0.01250000 0.01249090 76808.93871345 0 14884.85842345 0 33902.46208546 0 1180.50912751 0 4828.23117739 0 169
0.01350000 0.01339930 60716.64326852 0 7134.80681129 0 32592.16316642 0 4172.02984702 0 -11775.52816788 0 180
0.01450000 0.01448870 64898.77107577 0 -4881.53334907 0 24072.34138822 0 1407.38106305 0 2321.87758679 0 267
0.01550000 0.01550050 65161.18517397 0 -6336.10466050 0 26832.11834927 0 608.40321137 0 -4169.90396065 0 238
0.01650000 0.01653350 70311.14489362 0 7272.67939993 0 21850.90085985 0 -13249.36532449 0 -964.44710270 0 315
0.01750000 0.01747870 72363.28957551 0 -1061.75733660 0 20999.21763480 0 -2055.52174096 0 3931.38393941 0 297
0.01850000 0.01844180 65168.60363160 0 -4810.99156765 0 16186.85309888 0 8102.94874878 0 7648.62911682 0 388
0.01950000 0.01947590 79045.32688032 0 -8006.92954795 0 16602.17600282 0 24882.50339520 0 -5526.92809042 0 399
0.02050000 0.02045430 76581.40243842 0 -3286.99677961 0 12216.42814216 0 18115.31991254 0 -1376.86573585 0 462
0.02150000 0.02154770 79945.17471833 0 7512.91563152 0 3114.04706595 0 2902.77603608 0 -1505.09432957 0 571
0.02250000 0.02255340 74365.27662597 0 7798.40445464 0 7056.82442759 0 -7692.55302938 0 9151.35396888 0 510
0.02350000 0.02348930 64748.51962798 0 9594.21374466 0 14100.16276355 0 -8736.71754908 0 14164.05007776 0 555
0.02450000 0.02439640 61875.58350729 0 4971.11952918 0 19375.57192340 0 -2760.46344519 0 21756.34320590 0 592
0.02550000 0.02547300 57229.19312039 0 1162.50552736 0 24750.96417635 0 1532.11080213 0 8849.35630946 0 837
0.02650000 0.02652900 58916.94759250 0 1656.13191242 0 28814.83955454 0 3177.59113808 0 11722.27028550 0 723
0.02750000 0.02749970 57990.74762142 0 3828.42239092 0 33797.38572293 0 3565.41038718 0 10754.58231333 0 826
0.02850000 0.02848090 57487.28901192 0 2795.47413626 0 33376.52665658 0 1732.76347249 0 21592.25135209 0 831
0.02950000 0.02946900 55089.90924218 0 -2505.47887694 0 32021.71699177 0 8090.74704683 0 19148.36781812 0 996
0.03050000 0.03053250 59320.86600188 0 -3590.67743241 0 30579.21451439 0 8166.35995302 0 12750.33564491 0 1041
0.03150000 0.03150510 59389.29296926 0 -929.09870572 0 32851.03412068 0 9533.18309026 0 10508.78777468 0 1036
0.03250000 0.03246190 61443.43066962 0 3241.47845228 0 30407.26130996 0 6330.65707669 0 12446.06815890 0 1059
0.03350000 0.03345080 55683.60729896 0 4221.88852567 0 22987.03210950 0 4917.85057448 0 12364.57584823 0 1302
0.03450000 0.03451200 52029.29721581 0 5577.01928790 0 19275.36738379 0 1715.61244135 0 14176.45108155 0 1339
0.03550000 0.03553350 48889.96095998 0 3485.06959829 0 16740.02644681 0 9124.92432954 0 6722.13019297 0 1365
0.03650000 0.03647120 46949.75748201 0 -889.63140390 0 19136.52043056 0 2098.24984243 0 13247.81519901 0 1308
0.03750000 0.03744890 45853.48660172 0 -1261.37031567 0 10520.95625965 0 8326.39933595 0 7773.71317030 0 1579
0.03850000 0.03847530 48372.99411420 0 -594.85400749 0 13303.17682311 0 973.14995001 0 8694.88630591 0 1662
0.03950000 0.03950240 49043.20193547 0 67.54594249 0 10205.19570047 0 876.32468393 0 2708.74461596 0 1683
0.04050000 0.04050350 46038.50514944 0 3259.22738897 0 12276.55086592 0 -7081.58214589 0 4169.11782559 0 1822
0.04150000 0.04152450 43940.96393579 0 3528.39560531 0 13256.89450537 0 -2312.15608560 0 1127.28446211 0 1887
0.04250000 0.04250150 41899.33796248 0 454.75366709 0 14410.52002822 0 -1755.94892066 0 3659.97911345 0 1920
0.04350000 0.04349210 43475.37267717 0 -1148.54332576 0 13485.87018261 0 3824.53600491 0 -2125.42132754 0 2005
0.04450000 0.04448520 44298.71075068 0 -2620.64212738 0 14248.08902313 0 4899.70303410 0 234.89051317 0 2151
0.04550000 0.04548030 45135.77850697 0 984.99955203 0 10103.17529960 0 5203.56084410 0 220.61053585 0 2274
0.04650000 0.04648670 45073.44131824 0 675.59561453 0 10799.98991741 0 2207.88800279 0 4680.14990527 0 2311
0.04750000 0.04749250 43136.11664472 0 975.34337755 0 10635.21157946 0 252.23863169 0 3572.19772229 0 2568
0.04850000 0.04851840 42973.24274664 0 2992.18505899 0 13513.44027141 0 -1874.41172390 0 2554.31890171 0 2493
0.04950000 0.04949480 39912.96289002 0 2904.86870547 0 13673.76753479 0 -3295.01314278 0 5063.29663329 0 2644
0.05050000 0.05050630 37362.23142154 0 1891.95028641 0 12697.07776253 0 -3556.32000850 0 4467.05194181 0 2829
0.05150000 0.05149060 36576.87142216 0 798.99003124 0 14338.99280989 0 -644.21553876 0 -2300.27548107 0 2784
0.05250000 0.05249300 36850.02567543 0 831.25478576 0 14444.51206541 0 -567.65373434 0 -3928.18403754 0 3055
0.05350000 0.05348950 34948.35388783 0 814.90206924 0 12904.24095989 0 1943.06013777 0 -4803.84991814 0 3009
0.05450000 0.05448610 35267.12611936 0 -445.31451018 0 11784.71819748 0 442.99375090 0 -6217.90759306 0 3336
0.05550000 0.05550870 35840.67254497 0 -345.64144217 0 13258.66607734 0 297.40375186 0 -6366.03315448 0 3349
0.05650000 0.05647670 35642.92082370 0 631.00293355 0 13835.09130739 0 3049.99366687 0 -4173.45817692 0 3324
0.05750000 0.05747970 34577.76317615 0 1728.20167467 0 12065.73380138 0 1316.35548071 0 -2244.44881934 0 3639
0.05850000 0.05849280 33518.80603050 0 1289.30579118 0 10107.27205978 0 1832.83514420 0 1574.82783128 0 3846
0.05950000 0.05951020 33761.95428351 0 -617.90548053 0 10962.62022434 0 2188.74395318 0 829.56293453 0 3787
0.06050000 0.06049470 33690.53778843 0 158.08401037 0 11475.80033504 0 1846.49839303 0 92.54780555 0 3930
0.06150000 0.06148310 32141.96243930 0 1615.86186706 0 10949.35557921 0 -908.81199218 0 -160.44905895 0 4083
0.06250000 0.06249100 31503.97508325 0 2312.21144723 0 12048.46097466 0 -2438.49131178 0 1263.88373340 0 4303
0.06350000 0.06350600 30201.86968457 0 841.58194312 0 13311.48106672 0 -753.97660192 0 757.85191561 0 4470
0.06450000 0.06451750 30330.19792922 0 -823.33807351 0 13635.78946066 0 168.92935253 0 275.13841388 0 4479
0.06550000 0.06550280 31005.94191290 0 -154.64494628 0 14572.61886356 0 1633.98726279 0 1668.54398855 0 4636
0.06650000 0.06648880 31281.86424738 0 -97.72633187 0 13775.30075337 0 3255.76175130 0 609.00886754 0 4653
0.06750000 0.06749660 30245.49464436 0 694.78838237 0 13595.59692157 0 1794.02664572 0 3961.75532639 0 5220
0.06850000 0.06852730 30136.65369139 0 1043.55443460 0 12429.68111816 0 2942.61426078 0 2865.62838631 0 5029
0.06950000 0.06949320 29499.99501432 0 388.08609213 0 11527.95098493 0 106.03854756 0 4629.48294690 0 5040
0.07050000 0.07048030 29069.06013238 0 -74.94834525 0 10312.13221357 0 997.24886498 0 2938.68358547 0 5475
0.07150000 0.07148790 28623.28833518 0 -14.44982678 0 9536.07296703 0 489.23288658 0 1588.15891036 0 5509
0.07250000 0.07249820 28841.74530385 0 195.81074272 0 8838.81545623 0 -604.48139392 0 550.61231921 0 5916
0.07350000 0.07351270 28363.31014844 0 -244.09936572 0 8693.96730295 0 386.61236569 0 353.80838895 0 5721
0.07450000 0.07449140 28427.86180213 0 668.51154111 0 7695.98545007 0 988.38104003 0 -1235.67144976 0 6028
0.07550000 0.07549160 27548.60848828 0 1446.75425010 0 8154.06967247 0 555.62476065 0 -1640.27634328 0 6183
0.07650000 0.07648840 26340.17495757 0 1597.00569789 0 7190.74419627 0 890.63898546 0 -994.26708790 0 6330
0.07750000 0.07749960 25113.36136767 0 757.51420970 0 6778.49939862 0 646.02254217 0 -1190.65137705 0 6583
0.07850000 0.07848650 24210.30255546 0 538.98084199 0 7569.31805415 0 213.33048228 0 -773.39745965 0 6549
0.07950000 0.07947320 24216.17088761 0 449.13446225 0 7656.59011837 0 503.16408566 0 -442.34712713 0 6828
0.08050000 0.08048110 23368.91659249 0 3.63393701 0 7431.54511643 0 -100.11773258 0 -631.01732758 0 7147
0.08150000 0.08149960 23700.75416731 0 255.62676309 0 7177.05880280 0 -595.38658631 0 133.96073628 0 7386
0.08250000 0.08250610 23678.83096416 0 140.53105383 0 7528.16222280 0 -499.54786438 0 -1001.67225874 0 7227
0.08350000 0.08350160 23382.09265902 0 424.34463421 0 7507.74485583 0 -693.60142915 0 -1091.81094786 0 7798
0.08450000 0.08449610 22707.67735432 0 814.06278701 0 7716.34745541 0 933.05927630 0 -775.16238823 0 7371
0.08550000 0.08548940 22707.34518458 0 251.04503508 0 7777.74349653 0 640.08666884 0 -447.03293500 0 8256
0.08650000 0.08650700 21827.98114748 0 476.38345362 0 7877.01796086 0 854.01948559 0 -1521.74710610 0 8037
0.08750000 0.08749060 21787.34571539 0 714.63995354 0 7240.66930888 0 727.61671822 0 -378.66465094 0 8155
0.08850000 0.08849210 21164.19527460 0 310.43809264 0 7452.74861846 0 284.75694245 0 94.44327684 0 8718
0.08950000 0.08949900 21225.09306110 0 278.51990188 0 8267.41706164 0 -272.39026286 0 -110.03366380 0 8571
0.09050000 0.09049190 20693.84291631 0 80.58648377 0 7546.90766871 0 516.17738902 0 -237.20905798 0 8932
0.09150000 0.09150830 20571.16155731 0 438.61907537 0 7752.00034133 0 674.59356913 0 932.78800435 0 9285
0.09250000 0.09250820 20324.69160685 0 449.75008351 0 6402.19536734 0 684.63395328 0 574.55289993 0 9204
0.09350000 0.09350330 19502.46076582 0 453.73612044 0 6961.94567622 0 1123.14341263 0 1118.64804875 0 9349
0.09450000 0.09448040 19276.91750926 0 543.64229074 0 5800.79097249 0 797.62924252 0 1987.16120753 0 9564
0.09550000 0.09549270 18559.76303076 0 371.35691656 0 5551.76331499 0 858.35651522 0 1340.63708904 0 10155
0.09650000 0.09649430 18642.03040416 0 70.45829609 0 5905.91162432 0 473.63308814 0 1752.25076417 0 9913
0.09750000 0.09749140 18473.28817393 0 232.20436717 0 6277.07809689 0 160.63285954 0 2135.59679405 0 10476
0.09850000 0.09850240 18197.69800919 0 144.73300110 0 6106.55322236 0 -144.87251239 0 2719.62871126 0 10575
0.09950000 0.09950330 18543.81888302 0 142.84406249 0 6598.76234984 0 -68.85391622 0 2149.41505542 0 10882
0.10050000 0.10051200 18073.79869447 0 222.76299579 0 6998.81651787 0 -355.47698830 0 1779.34474301 0 10875
0.10150000 0.10150300 17682.39201213 0 728.67855417 0 6931.81788039 0 108.48973882 0 1456.99615056 0 11118
0.10250000 0.10250800 17338.59632651 0 304.15011937 0 6724.89827418 0 -314.42745127 0 924.62770096 0 11575
0.10350000 0.10349800 17105.41316583 0 455.45011632 0 6923.79044490 0 -104.43018165 0 -158.38960653 0 11364
0.10450000 0.10450100 16729.50773824 0 473.37953190 0 6956.95205773 0 21.15633392 0 -367.72630125 0 12093
0.10550000 0.10551000 16075.90840419 0 274.56818916 0 5987.10498221 0 221.40442154 0 928.61484512 0 12067
0.10650000 0.10649700 16204.01520234 0 213.66375926 0 5775.30248076 0 1040.40878712 0 233.40017825 0 12054
0.10750000 0.10749900 15895.31878640 0 -76.79808784 0 5606.34987635 0 987.90825176 0 848.70255521 0 12807
0.10850000 0.10850100 16019.66099411 0 214.17087173 0 5334.28071090 0 1249.03574582 0 588.49184965 0 12736
0.10950000 0.10950300 15716.05784759 0 331.67702610 0 4636.23706504 0 428.81010281 0 1141.70062903 0 12933
0.11050000 0.11050200 15417.21580073 0 22.47881240 0 4632.70499342 0 328.62881508 0 1651.79156110 0 13428
0.11150000 0.11150900 15486.19638435 0 102.03368767 0 4718.48229379 0 337.38259508 0 1600.57098648 0 13453
0.11250000 0.11250000 15383.88810303 0 260.76210734 0 4928.53536793 0 -436.21859535 0 1164.08886981 0 13668
0.11350000 0.11349100 15181.92889834 0 508.61942010 0 5386.90747077 0 -357.03818610 0 1114.37413137 0 13791
0.11450000 0.11448600 14892.16615783 0 579.85986522 0 5201.05849869 0 -868.81986217 0 943.96440902 0 14205
0.11550000 0.11549300 14370.10604263 0 411.04566487 0 5667.66841119 0 -548.92157521 0 1377.36399047 0 14776
0.11650000 0.11649800 14394.90805023 0 37.48347338 0 5984.14867149 0 255.84710235 0 956.76623097 0 14553
0.11750000 0.11747300 14438.31156351 0 -360.04653676 0 5968.08272817 0 884.66546622 0 230.95208723 0 14568
0.11850000 0.11849100 14555.34603685 0 -67.18077722 0 5394.63595349 0 931.85571460 0 275.20374060 0 16015
0.11950000 0.11950300 14265.25112660 0 251.44142431 0 5132.02255344 0 438.25590311 0 639.50094285 0 15270
0.12050000 0.12050700 14350.06513471 0 150.35884934 0 4809.77361192 0 589.71534154 0 282.09958450 0 15999
0.12150000 0.12150000 13924.77713843 0 278.28627583 0 4570.83284233 0 532.01081351 0 939.98169378 0 15670
0.12250000 0.12250700 13786.15163170 0 603.97760314 0 4411.65710074 0 86.65201403 0 783.77554971 0 16887
0.12350000 0.12352200 13357.87410771 0 225.46907198 0 4781.19594156 0 -404.57942718 0 1403.15143497 0 16407
0.12450000 0.12449800 13142.84955973 0 238.68610612 0 4818.47645923 0 80.25697139 0 712.11103455 0 16306
0.12550000 0.12549900 12950.52327763 0 39.46475518 0 4822.93860613 0 347.84040588 0 1069.61204383 0 17523
0.12650000 0.12650100 13020.27892399 0 18.50063682 0 4242.21731404 0 568.25717604 0 775.45248314 0 17154
0.12750000 0.12750600 12928.71079774 0 108.51299071 0 4191.50606637 0 419.45066664 0 994.66458436 0 18007
0.12850000 0.12850300 12901.58360193 0 143.31020736 0 3566.96051265 0 484.35884919 0 630.55118270 0 17496
0.12950000 0.12949900 12543.39389405 0 310.69386334 0 3512.04178155 0 230.11944840 0 784.53732565 0 18405
0.13050000 0.13049000 12464.11604835 0 88.47230423 0 3284.16226446 0 -186.72590021 0 615.02113991 0 18100
0.13150000 0.13148800 12385.17037239 0 -76.22011248 0 3523.18054032 0 226.49658372 0 664.89642706 0 19059
0.13250000 0.13249300 12473.97041744 0 -124.39092594 0 3227.95914368 0 291.37376377 0 360.01110532 0 18957
0.13350000 0.13349100 12486.92503748 0 86.84655478 0 3332.29366045 0 113.68509508 0 -13.50258939 0 19468
0.13450000 0.13450700 12480.61381233 0 294.49948106 0 3193.60171977 0 -426.73736360 0 -124.14622756 0 19953
0.13550000 0.13551000 12282.19775158 0 419.10078118 0 3464.65223133 0 -440.72613878 0 364.11007996 0 19956
0.13650000 0.13649900 12018.67642090 0 300.32241668 0 3821.48004326 0 -348.27001208 0 631.70049002 0 19723
0.13750000 0.13749600 11815.60998372 0 228.05778152 0 4146.12060694 0 -63.52059881 0 469.46325061 0 20946
0.13850000 0.13851100 11743.97204215 0 249.81379256 0 4410.69380848 0 217.12607523 0 181.65034651 0 20955
0.13950000 0.13949800 11403.94094696 0 160.37930330 0 4246.64624397 0 -162.57494531 0 208.29700342 0 20506
0.14050000 0.14048300 11412.46663708 0 83.17286813 0 4192.35863538 0 368.00975276 0 162.01579291 0 21447
0.14150000 0.14148400 11354.55837827 0 60.84685381 0 4081.25892815 0 5.35842945 0 297.77135305 0 21771
0.14250000 0.14249400 11194.56328464 0 114.83550962 0 3740.79601230 0 399.46844204 0 14.71069075 0 22470
0.14350000 0.14350900 11313.14788345 0 135.62047777 0 3300.75967936 0 241.02901005 0 34.65427294 0 22519
0.14450000 0.14449900 10930.98659234 0 48.80381827 0 2988.57548110 0 460.16139053 0 -277.89099383 0 22218
0.14550000 0.14550500 10816.68698323 0 87.03600226 0 2854.13531315 0 515.39346843 0 -355.88223539 0 23559
0.14650000 0.14650700 10717.63396541 0 191.11939869 0 2831.40383030 0 152.34300995 0 -341.72848258 0 23044
0.14750000 0.14750500 10563.93902460 0 239.62836096 0 2963.45237609 0 -13.39197687 0 -451.25370522 0 23649
0.14850000 0.14849900 10459.10625322 0 354.10069833 0 3245.39805527 0 -422.08034378 0 49.42386846 0 23640
0.14950000 0.14949500 10183.36107593 0 364.53525724 0 3488.42451271 0 -468.60625267 0 529.82624383 0 24457
0.15050000 0.15050000 9988.72067794 0 265.45566583 0 3845.61771136 0 -166.98173059 0 860.44918461 0 24591
0.15150000 0.15149900 9915.54368322 0 143.53608279 0 3920.00158949 0 159.91205119 0 572.36611578 0 25020
0.15250000 0.15250500 9835.78972755 0 -204.97973490 0 3791.45189835 0 667.06328102 0 737.06916192 0 25297
0.15350000 0.15350100 9955.45941419 0 -152.87005261 0 3309.05285065 0 753.52817277 0 354.93112269 0 25452
0.15450000 0.15450400 9883.40072427 0 80.79021455 0 2957.92728600 0 559.04278733 0 97.44908085 0 26061
0.15550000 0.15549900 9814.27620043 0 200.13670003 0 2779.46355458 0 110.07618152 0 206.74909241 0 26128
0.15650000 0.15649500 9583.92755490 0 282.81485668 0 2675.58300313 0 -218.93086417 0 594.62481036 0 26331
0.15750000 0.15749700 9467.31382991 0 196.95008494 0 2865.26299959 0 -197.64542694 0 624.29089025 0 27345
0.15850000 0.15849900 9116.83046010 0 213.78334037 0 3096.04346579 0 -154.02046716 0 538.96866243 0 26980
0.15950000 0.15949700 9328.89869735 0 17.58440194 0 2994.10057118 0 163.08870118 0 739.39767183 0 27777
0.16050000 0.16050000 9196.07508883 0 -118.28121711 0 2882.59118794 0 533.68162733 0 753.32444199 0 28224
0.16150000 0.16150500 9369.53412944 0 -78.37578340 0 2715.80875919 0 300.13640163 0 623.06518389 0 28075
0.16250000 0.16249700 9222.62652374 0 154.40578406 0 2583.28410344 0 91.09932402 0 306.83958707 0 28590
0.16350000 0.16349900 9100.90845701 0 330.55539960 0 2475.66110620 0 -52.26735220 0 256.99419520 0 29163
0.16450000 0.16449100 8790.23009492 0 234.17745545 0 2097.80694944 0 -59.70706869 0 300.42871100 0 28996
0.16550000 0.16550500 8714.45110387 0 174.75893154 0 2082.28355004 0 13.55330064 0 74.24790998 0 30777
0.16650000 0.16650700 8501.04311531 0 108.90240437 0 2040.27514968 0 251.29969855 0 -197.02205506 0 29211
0.16750000 0.16749900 8469.33197703 0 36.88556784 0 2038.08282937 0 -37.19105328 0 -518.83142528 0 30922
0.16850000 0.16850800 8579.73412780 0 -1.33254322 0 2075.87267397 0 -27.82541661 0 -390.96932551 0 30867
0.16950000 0.16949900 8309.49189595 0 88.98329202 0 2090.93103573 0 -7.23184467 0 -209.16285922 0 30852
0.17050000 0.17049200 8566.90130333 0 115.07467184 0 2351.20817524 0 -99.81889054 0 -78.19630101 0 31257
0.17150000 0.17149500 8479.85068561 0 -15.47346321 0 2400.23642954 0 136.96465801 0 -114.40590342 0 32608
0.17250000 0.17250900 8461.22703526 0 122.01148334 0 2448.89929711 0 24.44193559 0 -101.47663901 0 32361
0.17350000 0.17350400 8327.32941123 0 255.80170582 0 2351.18603059 0 92.41316608 0 108.80408213 0 32508
0.17450000 0.17449800 8274.00509491 0 53.30228240 0 2310.59488780 0 182.53502526 0 242.95448733 0 32791
0.17550000 0.17549800 8104.50994658 0 -23.13064016 0 2158.25077062 0 380.41186379 0 187.06249888 0 33633
0.17650000 0.17650100 8176.48005790 0 53.43027848 0 1968.51541253 0 167.54641916 0 -133.88101554 0 33984
0.17750000 0.17750300 8098.35373398 0 98.95635643 0 1711.07278817 0 333.28362044 0 50.52279670 0 34069
0.17850000 0.17849800 7935.19195545 0 112.90338894 0 1571.28468734 0 223.03094605 0 308.41074996 0 34536
