### header ###
fiducial parameters:
Omega_m = 0.31
Omega_nu = 0
Omega_de = 0.69
Omega_k = 0
H_0 = 100
w_de = -1
zeff = 0
beta = 0
fgrowth = 0
b_1 = 2
gamma = 0.55
Lx = 3500 Ly = 3500 Lz = 3500
nx = 700 ny = 700 nz = 700
xoffset = -685.467585 yoffset = -31.7331281 zoffset = 572.489161
bins = 400 dk = 0.001
kx_ny = 0.628318531 ky_ny = 0.628318531 kz_ny = 0.628318531
############################
A(data) = 8.04359042 (not used)
A(ran) = 8.04505464 (used)
Ngal = 478456
weighted Ngal = 0
Nran = 23820508
weighted Nran = 0
SN(data) = 3483.27493
SN(ran) = 70.0753436
SN(data+ran) = 3553.35027
############################
13 columns: k_central k_mean P_0(k) sigma^{lin}_{P_0(k)} P^img_1(k) sigma^{lin}_{P_1(k)} P_2(k) sigma^{lin}_{P_2(k)} P^img_3(k) sigma^{lin}_{P_3(k)} P_4(k) sigma^{lin}_{P_4(k)} N_modes
### header ###
0.00050000 0 0 0 0 0 0 0 0 0 0 0 0
0.00150000 0.00179520 14245.09949543 0 -27516.60946956 0 -3168.99901402 0 4970.42197271 0 -1095.21347327 0 3
0.00250000 0.00253879 27246.55546723 0 -36841.94287832 0 -17348.89358859 0 -34319.44583813 0 -10995.03999141 0 6
0.00350000 0.00331552 39545.25098279 0 -27149.45117857 0 -10321.47725572 0 -6678.63810109 0 -12143.90441459 0 7
0.00450000 0.00420575 61141.04547882 0 -31653.45146830 0 -3530.82044444 0 -38262.07925956 0 16306.32348367 0 24
0.00550000 0.00557378 80808.48388444 0 -2327.77913592 0 14064.73132413 0 -41388.23944885 0 10812.65665700 0 45
0.00650000 0.00659388 94150.30312116 0 19751.69879749 0 42142.26476900 0 -43468.84000552 0 65208.13183121 0 40
0.00750000 0.00754703 67872.68679881 0 17085.26153466 0 36582.18613807 0 -15518.41684957 0 7836.75898782 0 57
0.00850000 0.00846663 78433.69165733 0 14179.21916276 0 39703.91739744 0 -2135.20926268 0 19248.90452747 0 75
0.00950000 0.00948925 81159.36585794 0 -1317.90560619 0 49688.27557941 0 21858.31931748 0 -17199.41720354 0 112
0.01050000 0.01054430 71501.86270462 0 -1445.15983533 0 64857.47130420 0 13525.50910547 0 -20518.67873767 0 105
0.01150000 0.01145670 92221.72558425 0 -1323.30890070 0 53178.49380874 0 14360.69456654 0 -21657.68879177 0 144
0.01250000 0.01249090 84236.14347855 0 -5421.49741350 0 49275.72075666 0 -3965.76350797 0 -2907.83608852 0 169
0.01350000 0.01339930 98338.63143031 0 7074.89446170 0 50491.24057525 0 7978.77262594 0 -46858.74297200 0 180
0.01450000 0.01448870 93130.43128212 0 -1189.71022944 0 48207.90575115 0 -9596.58322217 0 -16227.26708446 0 267
0.01550000 0.01550050 88136.92351215 0 7795.82460296 0 58656.19434302 0 7004.09801680 0 -25908.57573614 0 238
0.01650000 0.01653350 84223.41030500 0 11558.95349443 0 52013.35306807 0 1885.56155499 0 -15692.80596547 0 315
0.01750000 0.01747870 78992.95478392 0 4975.41559121 0 51621.39276949 0 20178.97981224 0 -30864.21615522 0 297
0.01850000 0.01844180 74533.57596321 0 4283.31778377 0 48938.12557294 0 14007.93029781 0 -23184.11949127 0 388
0.01950000 0.01947590 70790.46583502 0 2187.52599745 0 35853.51644176 0 6216.12494876 0 -23425.71761881 0 399
0.02050000 0.02045430 69584.35749253 0 -174.70135545 0 32061.68808436 0 6756.26617039 0 -24043.99623668 0 462
0.02150000 0.02154770 72312.13543485 0 -2194.80051485 0 29825.18919424 0 -3332.64797484 0 -31296.14754640 0 571
0.02250000 0.02255340 71363.68009088 0 -776.97824950 0 32885.91194386 0 -7858.59361236 0 -33014.24018851 0 510
0.02350000 0.02348930 71246.75634080 0 333.19061291 0 23215.89706350 0 3672.34690028 0 -20764.70579514 0 555
0.02450000 0.02439640 70280.14238413 0 1705.40375787 0 25271.03127309 0 -2969.65287799 0 -23657.79354701 0 592
0.02550000 0.02547300 68626.93356546 0 1683.92344772 0 20286.27063973 0 3387.54456129 0 -20240.20976849 0 837
0.02650000 0.02652900 69612.92409056 0 -35.56065345 0 23595.12418854 0 2139.78213283 0 -19597.68275926 0 723
0.02750000 0.02749970 65976.77262012 0 2125.55419544 0 16560.65478475 0 -600.77770126 0 -22622.97406946 0 826
0.02850000 0.02848090 65517.16041689 0 5488.13066426 0 27064.96934020 0 -6390.29261816 0 -13813.05738101 0 831
0.02950000 0.02946900 64273.84906301 0 1099.54939567 0 28351.68420738 0 -6258.27728935 0 -15224.77879538 0 996
0.03050000 0.03053250 60783.85228017 0 -429.47444230 0 27776.58765630 0 323.88210943 0 -20868.23203220 0 1041
0.03150000 0.03150510 60656.96343775 0 3929.60129511 0 28237.63926175 0 1053.57267410 0 -19394.06270584 0 1036
0.03250000 0.03246190 58543.25662987 0 5258.14740545 0 23896.51287010 0 3985.78227124 0 -21739.84544192 0 1059
0.03350000 0.03345080 54127.39204570 0 5170.81997961 0 25815.45748442 0 3154.58284711 0 -13471.14399061 0 1302
0.03450000 0.03451200 51807.96144269 0 391.91379482 0 20291.03173940 0 4415.15595538 0 -10030.29725764 0 1339
0.03550000 0.03553350 50621.45111512 0 66.10908690 0 20259.47561367 0 6837.95778290 0 -5198.54508095 0 1365
0.03650000 0.03647120 51217.80652985 0 -1649.75425333 0 16246.42220640 0 6335.49568263 0 -9705.73420023 0 1308
0.03750000 0.03744890 53457.95928716 0 -1889.50330263 0 20162.26060176 0 1402.59781873 0 -9279.57149028 0 1579
0.03850000 0.03847530 53616.95787156 0 881.45559926 0 15898.30831410 0 -1423.93418865 0 -5793.57181671 0 1662
0.03950000 0.03950240 52215.97661225 0 3201.95025268 0 18347.17439424 0 -2815.57040581 0 -3775.05378529 0 1683
0.04050000 0.04050350 50974.54755359 0 2418.91544151 0 17546.97747960 0 1337.57005507 0 -2636.56413047 0 1822
0.04150000 0.04152450 47326.21652584 0 1828.69409472 0 16955.60461103 0 4746.21846746 0 3370.93607406 0 1887
0.04250000 0.04250150 45444.25347642 0 2194.62335765 0 15331.51600663 0 6631.83538408 0 -3682.16805239 0 1920
0.04350000 0.04349210 43339.40452839 0 2248.97740019 0 15114.16627044 0 5783.86138784 0 1052.13327187 0 2005
0.04450000 0.04448520 41695.82863231 0 252.09912040 0 13870.07985382 0 1216.17308576 0 -5480.90043615 0 2151
0.04550000 0.04548030 42019.58341001 0 1465.66578089 0 13243.60771558 0 -2330.51400015 0 -334.17051365 0 2274
0.04650000 0.04648670 40740.84061671 0 1324.20575901 0 16250.29752009 0 -5250.05353601 0 -524.81601685 0 2311
0.04750000 0.04749250 41243.52416347 0 -788.43478399 0 16670.04935396 0 -1338.09045433 0 3424.65899408 0 2568
0.04850000 0.04851840 42832.62422144 0 -2448.13530670 0 17742.40401265 0 2243.80662450 0 102.05084977 0 2493
0.04950000 0.04949480 44686.57428908 0 -1398.32390135 0 16176.99872979 0 6029.83308369 0 1320.05363720 0 2644
0.05050000 0.05050630 44991.72756108 0 1130.57294258 0 17444.77992152 0 384.34807527 0 -2312.69862952 0 2829
0.05150000 0.05149060 42383.30928030 0 4106.27130992 0 18295.13446759 0 1542.55200443 0 4031.55526204 0 2784
0.05250000 0.05249300 40647.94381148 0 3753.18594378 0 20936.65899958 0 -1291.87457054 0 9348.85102668 0 3055
0.05350000 0.05348950 37579.02754149 0 1612.70625449 0 19886.11682079 0 -995.64227064 0 11186.36976428 0 3009
0.05450000 0.05448610 37680.11786709 0 -334.96993551 0 20923.70437954 0 3235.63226478 0 6932.90296822 0 3336
0.05550000 0.05550870 37926.25564781 0 -245.23760071 0 21557.81642190 0 1756.51360923 0 5728.68799327 0 3349
0.05650000 0.05647670 37010.68510855 0 17.31390504 0 18591.31915649 0 2106.39907350 0 697.56199974 0 3324
0.05750000 0.05747970 36181.36797964 0 1731.19120237 0 17740.52171743 0 1996.19622458 0 4999.42039141 0 3639
0.05850000 0.05849280 35253.61788308 0 2248.85560462 0 16488.35250369 0 2952.56828079 0 4411.55744982 0 3846
0.05950000 0.05951020 34487.74517537 0 -159.47026543 0 14557.22833207 0 3341.31760517 0 5903.25426636 0 3787
0.06050000 0.06049470 33351.06030949 0 1085.63480507 0 14785.98256282 0 2279.38200414 0 1479.96015223 0 3930
0.06150000 0.06148310 33159.73053663 0 2116.18700864 0 15005.43604073 0 -405.49621567 0 3839.42828179 0 4083
0.06250000 0.06249100 30929.21070191 0 1810.56869899 0 16369.76790488 0 -909.17848614 0 5636.10121314 0 4303
0.06350000 0.06350600 29423.15308008 0 907.50102893 0 15642.75905729 0 -475.05034572 0 4544.99003621 0 4470
0.06450000 0.06451750 29868.37126104 0 -503.08325769 0 16485.03080624 0 -20.25958634 0 3185.65179055 0 4479
0.06550000 0.06550280 30540.35065428 0 -856.64694827 0 17147.59872339 0 499.61983449 0 -419.71418797 0 4636
0.06650000 0.06648880 31321.28172374 0 -708.88013017 0 15201.74835976 0 -196.52380044 0 -1292.78250118 0 4653
0.06750000 0.06749660 31238.23928760 0 255.48835903 0 16400.65969112 0 -393.81491299 0 -1681.57611486 0 5220
0.06850000 0.06852730 31092.97038598 0 568.47419361 0 15360.41477441 0 -226.52094284 0 -2787.92281074 0 5029
0.06950000 0.06949320 30022.94091550 0 907.49992169 0 15355.43222824 0 2693.27657819 0 -1264.34877104 0 5040
0.07050000 0.07048030 30331.30516170 0 -87.85147898 0 14686.99597894 0 2463.09401753 0 -331.62277171 0 5475
0.07150000 0.07148790 29870.25355625 0 171.04748826 0 13383.67262454 0 2014.78665795 0 -127.36163069 0 5509
0.07250000 0.07249820 29751.77968070 0 831.10198768 0 12619.01787256 0 1203.80529893 0 -600.42892303 0 5916
0.07350000 0.07351270 28602.02947153 0 610.35969116 0 12102.05102678 0 384.33035955 0 467.59645665 0 5721
0.07450000 0.07449140 27977.21818201 0 1003.00536665 0 12421.15542805 0 886.67177148 0 1260.83884407 0 6028
0.07550000 0.07549160 27945.66205628 0 -14.16072838 0 11269.52292367 0 1242.77988229 0 -273.02027815 0 6183
0.07650000 0.07648840 27164.84171007 0 521.90731712 0 12279.20822388 0 1577.50733389 0 874.94950119 0 6330
0.07750000 0.07749960 27172.26016770 0 765.63797442 0 10807.44159201 0 1848.44712220 0 386.84267005 0 6583
0.07850000 0.07848650 26195.90256519 0 439.73184401 0 10781.42162869 0 856.59158664 0 3439.86129606 0 6549
0.07950000 0.07947320 25924.07699089 0 1279.36284350 0 10049.47452422 0 1400.53836631 0 2813.87634011 0 6828
0.08050000 0.08048110 24946.94432564 0 559.53772025 0 10047.32649321 0 118.87469372 0 3414.07385156 0 7147
0.08150000 0.08149960 24312.50011354 0 627.46089685 0 9410.99998588 0 323.08268758 0 2427.70686741 0 7386
0.08250000 0.08250610 23613.17207799 0 516.93805774 0 9036.10213985 0 -345.15647434 0 1471.02478611 0 7227
0.08350000 0.08350160 23426.04978855 0 470.73213904 0 8898.32920213 0 -164.38527042 0 1916.35369031 0 7798
0.08450000 0.08449610 23119.90000732 0 6.26992538 0 8583.97482820 0 671.97053538 0 -639.63713245 0 7371
0.08550000 0.08548940 22669.03494070 0 463.20960156 0 8717.60671644 0 -530.15730634 0 -804.86168509 0 8256
0.08650000 0.08650700 22696.16213651 0 931.44936028 0 9112.40153017 0 126.35515637 0 -1704.88335860 0 8037
0.08750000 0.08749060 21117.69151036 0 831.64563883 0 9085.30755134 0 413.96986585 0 -297.42478928 0 8155
0.08850000 0.08849210 21293.63075173 0 407.02751819 0 8649.89945017 0 1021.99661818 0 -81.13312445 0 8718
0.08950000 0.08949900 20650.99301926 0 -50.03705381 0 8429.36088444 0 1267.84762568 0 -1303.57801787 0 8571
0.09050000 0.09049190 20269.99432225 0 484.78734816 0 6722.07483135 0 1547.19130853 0 -1068.77608330 0 8932
0.09150000 0.09150830 19955.31885090 0 671.28294401 0 6699.71980754 0 635.41193330 0 267.29699345 0 9285
0.09250000 0.09250820 19528.59145239 0 -210.49375266 0 5669.86073151 0 355.78922786 0 -673.27596248 0 9204
0.09350000 0.09350330 19640.42193306 0 160.04602632 0 6001.83117422 0 193.67821296 0 -1515.55767653 0 9349
0.09450000 0.09448040 19048.38472501 0 636.39737021 0 5533.28360487 0 -781.04843610 0 -2523.69285126 0 9564
0.09550000 0.09549270 18629.07578412 0 875.03918702 0 5799.34049794 0 -178.72282383 0 -1520.93882639 0 10155
0.09650000 0.09649430 18395.33900720 0 134.04377872 0 6714.89996487 0 -411.09549033 0 -1253.37609715 0 9913
0.09750000 0.09749140 18194.70848149 0 -198.86338267 0 5634.87218508 0 1159.44956571 0 -643.65749359 0 10476
0.09850000 0.09850240 18639.48376945 0 -687.67994984 0 5782.01230960 0 1445.81310249 0 -849.14876990 0 10575
0.09950000 0.09950330 18627.63638190 0 -26.77919264 0 5543.96839832 0 1439.84511942 0 -1245.86906092 0 10882
0.10050000 0.10051200 18819.07687801 0 572.61635032 0 5451.72486026 0 11.82092470 0 8.76591527 0 10875
0.10150000 0.10150300 18173.78178758 0 627.37342548 0 4932.93108088 0 164.34873175 0 1241.06367195 0 11118
0.10250000 0.10250800 17679.95610067 0 682.23236603 0 5498.26184147 0 -202.21386816 0 1779.88728692 0 11575
0.10350000 0.10349800 17435.03627568 0 576.19714017 0 6092.39171891 0 -405.97896903 0 1678.57551483 0 11364
0.10450000 0.10450100 16849.97463226 0 574.90942879 0 6483.88697985 0 -365.89383149 0 1344.44596878 0 12093
0.10550000 0.10551000 16446.05622288 0 844.65229879 0 6854.20088341 0 -535.54509960 0 1871.13431575 0 12067
0.10650000 0.10649700 15779.83443854 0 330.26530469 0 6995.62768832 0 470.71885225 0 2740.25645239 0 12054
0.10750000 0.10749900 15805.07933913 0 94.32712815 0 7414.69303805 0 602.61238549 0 2420.80880905 0 12807
0.10850000 0.10850100 15504.13355056 0 14.85662400 0 6792.72733602 0 1750.01415456 0 1723.80596172 0 12736
0.10950000 0.10950300 15647.52015696 0 -23.72201303 0 6633.27478630 0 239.54199682 0 1475.44264371 0 12933
0.11050000 0.11050200 15365.50804383 0 238.79350767 0 5907.33995422 0 979.37591825 0 2515.08965488 0 13428
0.11150000 0.11150900 15308.15340127 0 36.15302283 0 6388.53211851 0 -440.30649767 0 1088.48039255 0 13453
0.11250000 0.11250000 15068.99118518 0 343.96177049 0 5928.74275809 0 127.05714176 0 1403.48360471 0 13668
0.11350000 0.11349100 14816.32073282 0 665.01157924 0 6195.87366667 0 -641.43084907 0 985.10473911 0 13791
0.11450000 0.11448600 14447.61231636 0 308.71302443 0 5721.74564561 0 42.61914980 0 466.81475052 0 14205
0.11550000 0.11549300 14458.57391793 0 -169.05889873 0 5801.76533707 0 -130.17843013 0 1083.54324292 0 14776
0.11650000 0.11649800 14247.20323714 0 178.29543209 0 5623.68913701 0 663.24000726 0 746.63675780 0 14553
0.11750000 0.11747300 14648.24284208 0 -118.48273342 0 5856.13045193 0 437.93923462 0 1707.86181398 0 14568
0.11850000 0.11849100 14443.18338644 0 33.70482109 0 5187.98208308 0 467.66621230 0 1523.26401460 0 16015
0.11950000 0.11950300 14319.28407171 0 494.63950279 0 5826.23517492 0 532.76816053 0 2225.79195202 0 15270
0.12050000 0.12050700 13976.48489533 0 214.04686170 0 5651.02670699 0 -144.06644715 0 1604.92241014 0 15999
0.12150000 0.12150000 13750.83091553 0 73.32802124 0 5624.70779090 0 208.51734268 0 1805.99582884 0 15670
0.12250000 0.12250700 13904.73623050 0 -60.89036804 0 5149.88221338 0 42.90359782 0 1092.74655930 0 16887
0.12350000 0.12352200 13853.36064335 0 1.64399664 0 5191.97919234 0 -10.03344180 0 637.86888217 0 16407
0.12450000 0.12449800 13753.93116647 0 139.90657471 0 4814.90009831 0 -82.26726268 0 -74.43647167 0 16306
0.12550000 0.12549900 13579.76349708 0 171.28222155 0 4296.84816470 0 -161.11118397 0 -172.04067580 0 17523
0.12650000 0.12650100 13556.29016846 0 -68.05371931 0 4344.71382489 0 570.01103229 0 -535.30925908 0 17154
0.12750000 0.12750600 13522.96247076 0 213.44120553 0 4270.07528329 0 358.58056095 0 -822.47996834 0 18007
0.12850000 0.12850300 13314.69204092 0 284.25647337 0 4165.91792372 0 297.36056979 0 -735.42159999 0 17496
0.12950000 0.12949900 13075.30837834 0 255.67880301 0 4345.28958578 0 62.26400066 0 -269.48931376 0 18405
0.13050000 0.13049000 12812.45138714 0 312.53851266 0 3896.20716346 0 168.93378146 0 503.74095379 0 18100
0.13150000 0.13148800 12793.73915820 0 122.82308475 0 4338.83442041 0 597.82139054 0 447.35513965 0 19059
0.13250000 0.13249300 12651.45978428 0 74.87748237 0 3827.00513334 0 308.42957292 0 53.40591936 0 18957
0.13350000 0.13349100 12450.27564233 0 216.65882312 0 3752.77626776 0 323.92196980 0 6.10341975 0 19468
0.13450000 0.13450700 12284.63366304 0 278.38592675 0 3303.22880780 0 -20.60238551 0 129.07562657 0 19953
0.13550000 0.13551000 12224.84310902 0 151.54469533 0 3159.16678958 0 180.42574738 0 7.11536381 0 19956
0.13650000 0.13649900 12120.32036273 0 -51.35875722 0 3353.75182594 0 -267.27927773 0 79.12471545 0 19723
0.13750000 0.13749600 12184.76129318 0 181.69574304 0 3722.46024240 0 -58.86822936 0 -23.98077326 0 20946
0.13850000 0.13851100 11927.10829465 0 244.80688728 0 3818.37979231 0 -398.35013723 0 200.28174748 0 20955
0.13950000 0.13949800 11865.43544541 0 123.25047649 0 4368.64111882 0 127.95178560 0 554.61607186 0 20506
0.14050000 0.14048300 11718.28424857 0 180.32720369 0 4151.24709333 0 586.94836757 0 741.37961797 0 21447
0.14150000 0.14148400 11493.40533150 0 308.21255535 0 3900.74681663 0 646.02807833 0 635.44847197 0 21771
0.14250000 0.14249400 11301.30049590 0 268.65667493 0 3685.04685684 0 516.42762356 0 992.42354582 0 22470
0.14350000 0.14350900 10807.99520825 0 314.97553135 0 3204.34187484 0 766.30563561 0 889.65354855 0 22519
0.14450000 0.14449900 10640.26055957 0 86.16283872 0 2800.79992450 0 430.91827345 0 996.99420151 0 22218
0.14550000 0.14550500 10585.04287570 0 -107.59387702 0 2430.18706817 0 111.68654045 0 578.12815362 0 23559
0.14650000 0.14650700 10614.21845160 0 107.18951572 0 2621.78257683 0 -275.55694776 0 388.02519434 0 23044
0.14750000 0.14750500 10535.74888561 0 176.42753089 0 2802.43862857 0 -546.97506051 0 299.63482531 0 23649
0.14850000 0.14849900 10307.75864527 0 333.72208450 0 3161.76878591 0 -495.29166272 0 726.46519644 0 23640
0.14950000 0.14949500 10139.03855968 0 195.19622869 0 3097.64895289 0 -59.20095272 0 530.11412427 0 24457
0.15050000 0.15050000 10124.61132044 0 196.05765556 0 3603.77599267 0 285.58293788 0 570.53364602 0 24591
0.15150000 0.15149900 9766.13373212 0 276.41837463 0 3222.03544990 0 382.31076750 0 455.71474489 0 25020
0.15250000 0.15250500 9674.60989516 0 155.15648768 0 3184.83243851 0 481.78564090 0 535.05902454 0 25297
0.15350000 0.15350100 9501.78197707 0 61.80162038 0 2476.73512171 0 345.48753685 0 675.24019290 0 25452
0.15450000 0.15450400 9494.11992830 0 3.46429792 0 2429.58916263 0 378.24390259 0 646.69352506 0 26061
0.15550000 0.15549900 9426.47909598 0 -28.42498300 0 1872.35227148 0 332.78647305 0 545.84679061 0 26128
0.15650000 0.15649500 9484.11054666 0 43.81141774 0 1839.27923725 0 291.05930974 0 739.57815073 0 26331
0.15750000 0.15749700 9277.50096554 0 57.70430658 0 1740.27050872 0 188.19741218 0 305.60945178 0 27345
0.15850000 0.15849900 9391.12516283 0 133.31854144 0 2022.26047720 0 -207.50754666 0 -12.27068253 0 26980
0.15950000 0.15949700 9100.81987841 0 247.33137733 0 1848.00422921 0 -174.89622837 0 682.15153805 0 27777
0.16050000 0.16050000 9064.02654304 0 205.32740590 0 2038.70287956 0 -274.91696739 0 505.96095491 0 28224
0.16150000 0.16150500 8971.56155848 0 50.43167147 0 2082.26140539 0 -135.02810840 0 582.56372694 0 28075
0.16250000 0.16249700 8999.13164728 0 47.27484094 0 2518.44456930 0 1.31488286 0 212.21217747 0 28590
0.16350000 0.16349900 8888.12051865 0 149.93035037 0 2507.91478840 0 -317.88090938 0 188.63809070 0 29163
0.16450000 0.16449100 8797.18351491 0 132.98969340 0 2672.16165476 0 -58.78784429 0 105.32991877 0 28996
0.16550000 0.16550500 8705.67075028 0 34.79145905 0 2657.16972695 0 261.40430218 0 405.00349722 0 30777
0.16650000 0.16650700 8834.89585324 0 -26.71685545 0 2631.62587360 0 116.77205923 0 500.48458306 0 29211
0.16750000 0.16749900 8805.84207292 0 3.63064853 0 2628.39275475 0 325.30601040 0 542.54059442 0 30922
0.16850000 0.16850800 8899.97897853 0 123.93917509 0 2565.88948115 0 -59.26218268 0 425.85489931 0 30867
0.16950000 0.16949900 8497.23423557 0 308.41960782 0 2513.97135007 0 135.82753025 0 857.25592613 0 30852
0.17050000 0.17049200 8508.66087479 0 270.15918941 0 2609.20441584 0 -42.99140136 0 1014.78078409 0 31257
0.17150000 0.17149500 8133.80731805 0 124.97665193 0 2577.70365173 0 341.59782914 0 1317.10839880 0 32608
0.17250000 0.17250900 8195.87877098 0 52.34696221 0 2538.45226025 0 410.32707099 0 830.86946886 0 32361
0.17350000 0.17350400 8117.74137474 0 5.81475317 0 2492.52425690 0 236.84810020 0 869.27936365 0 32508
0.17450000 0.17449800 8075.58903415 0 108.23053570 0 2365.15930451 0 150.86374735 0 979.92067663 0 32791
0.17550000 0.17549800 8062.37975065 0 173.71702578 0 2349.35909699 0 2.08047876 0 1137.30491607 0 33633
0.17650000 0.17650100 7920.77578854 0 50.61934737 0 2209.84780428 0 -48.06518348 0 871.91014803 0 33984
0.17750000 0.17750300 7963.85820441 0 8.50527274 0 2254.28104378 0 -25.55182543 0 923.73305711 0 34069
