### header ###
fiducial parameters:
Omega_m = 0.31
Omega_nu = 0
Omega_de = 0.69
Omega_k = 0
H_0 = 100
w_de = -1
zeff = 0
beta = 0
fgrowth = 0
b_1 = 2
gamma = 0.55
Lx = 3500 Ly = 3500 Lz = 3500
nx = 700 ny = 700 nz = 700
xoffset = -685.467585 yoffset = -31.7331281 zoffset = 572.489161
bins = 400 dk = 0.001
kx_ny = 0.628318531 ky_ny = 0.628318531 kz_ny = 0.628318531
############################
A(data) = 8.04532753 (not used)
A(ran) = 8.05211097 (used)
Ngal = 478428
weighted Ngal = 0
Nran = 23820508
weighted Nran = 0
SN(data) = 3477.47876
SN(ran) = 70.1368068
SN(data+ran) = 3547.61557
############################
13 columns: k_central k_mean P_0(k) sigma^{lin}_{P_0(k)} P^img_1(k) sigma^{lin}_{P_1(k)} P_2(k) sigma^{lin}_{P_2(k)} P^img_3(k) sigma^{lin}_{P_3(k)} P_4(k) sigma^{lin}_{P_4(k)} N_modes
### header ###
0.00050000 0 0 0 0 0 0 0 0 0 0 0 0
0.00150000 0.00179520 37309.52715541 0 -4510.72119089 0 33497.99005984 0 7748.04752137 0 -70130.22310609 0 3
0.00250000 0.00253879 70832.31922284 0 -10667.91922697 0 4181.79563751 0 -20421.02083277 0 -7194.92953505 0 6
0.00350000 0.00331552 71889.83696627 0 -17915.35372631 0 -32260.32559161 0 13852.69630386 0 112731.76790857 0 7
0.00450000 0.00420575 77582.22987878 0 -22664.16311778 0 -28142.41726831 0 -27421.83036911 0 -11425.64270361 0 24
0.00550000 0.00557378 88025.53592448 0 9233.38882347 0 13057.14976564 0 -29871.80368173 0 -43817.95040706 0 45
0.00650000 0.00659388 70825.01148846 0 26921.69345705 0 16552.12909464 0 -33469.42346180 0 17211.26459110 0 40
0.00750000 0.00754703 51850.47916999 0 11395.41525685 0 8826.15978896 0 -3457.46629252 0 32604.23200048 0 57
0.00850000 0.00846663 47664.36532581 0 -9367.56325562 0 17051.60166721 0 -1632.72501776 0 9148.45301978 0 75
0.00950000 0.00948925 59521.05363460 0 -7947.58188693 0 12034.84201513 0 34872.39773957 0 -26964.21118435 0 112
0.01050000 0.01054430 57875.37399681 0 -2759.72159942 0 -2200.83493188 0 10692.27834157 0 -11231.76629603 0 105
0.01150000 0.01145670 57914.90219641 0 2809.75743528 0 -12635.62635979 0 -6655.26442339 0 -8873.28360339 0 144
0.01250000 0.01249090 53096.66932833 0 3918.68398284 0 -6197.88882978 0 -13647.52612497 0 4615.91934900 0 169
0.01350000 0.01339930 56307.75424898 0 -3083.05562878 0 -7118.74086798 0 -3931.20678221 0 7879.22135350 0 180
0.01450000 0.01448870 58681.77141335 0 -8520.81828744 0 -4267.49543160 0 7843.64597385 0 7516.73558358 0 267
0.01550000 0.01550050 67616.58392576 0 -9381.31508304 0 -17186.57330675 0 8083.35073385 0 8559.32783316 0 238
0.01650000 0.01653350 77242.30950685 0 -8550.86857700 0 -3674.20705085 0 -8950.24733320 0 -10215.90263857 0 315
0.01750000 0.01747870 87069.32995314 0 -4814.22468650 0 -4177.83174522 0 -17481.76148642 0 -3452.52803565 0 297
0.01850000 0.01844180 88301.45825896 0 -752.54273586 0 13078.74079903 0 -15947.91232929 0 -6195.75187109 0 388
0.01950000 0.01947590 92194.04477220 0 2230.16552032 0 21462.92659821 0 -21600.44487246 0 8344.91226304 0 399
0.02050000 0.02045430 89596.25592325 0 5330.64898836 0 32638.77765391 0 -9760.26539996 0 -4613.85989658 0 462
0.02150000 0.02154770 89623.60456555 0 3454.70928364 0 42117.24131491 0 6036.34361068 0 5904.07361840 0 571
0.02250000 0.02255340 86167.82126641 0 1749.42732135 0 28644.54719883 0 10055.71931542 0 -3945.47900890 0 510
0.02350000 0.02348930 77215.95737378 0 7013.71986707 0 41041.78640528 0 9308.42596876 0 -5344.81049181 0 555
0.02450000 0.02439640 79702.24791181 0 8835.05086579 0 38211.58945838 0 6249.36406787 0 -11926.44395516 0 592
0.02550000 0.02547300 69989.05096465 0 8423.72507110 0 35766.26652218 0 -10205.29535140 0 -3521.63041484 0 837
0.02650000 0.02652900 62626.39785324 0 3515.16417715 0 30520.30974636 0 -2959.57706240 0 6148.79414154 0 723
0.02750000 0.02749970 67410.30651439 0 -8520.43075607 0 34768.87150252 0 14349.95441146 0 -12165.82761774 0 826
0.02850000 0.02848090 66117.50186856 0 -5989.59625530 0 22366.20685691 0 14930.14423196 0 -23762.42701655 0 831
0.02950000 0.02946900 71202.13487178 0 4787.97220435 0 14794.50825293 0 8019.91738497 0 -30766.66897357 0 996
0.03050000 0.03053250 60211.63453354 0 7168.71026988 0 9380.41822473 0 -1942.06362854 0 -20410.39140095 0 1041
0.03150000 0.03150510 57795.43181162 0 8868.14604467 0 10603.13505446 0 -5444.29533030 0 -8252.66872498 0 1036
0.03250000 0.03246190 51328.86194778 0 4086.92795846 0 13890.12076174 0 -6146.31394078 0 -7438.40995782 0 1059
0.03350000 0.03345080 49323.33175338 0 2021.10895542 0 20859.04200260 0 1235.68252209 0 -4230.74638553 0 1302
0.03450000 0.03451200 49598.81119487 0 879.20238115 0 21704.41400250 0 -934.32816473 0 -4873.55020288 0 1339
0.03550000 0.03553350 48314.53223916 0 1264.94667658 0 27569.97807518 0 631.43253976 0 -3667.08754599 0 1365
0.03650000 0.03647120 48655.67056682 0 735.45592420 0 25575.29875910 0 3788.42915367 0 -303.33298180 0 1308
0.03750000 0.03744890 48280.87237171 0 -433.21799532 0 30306.61387736 0 -1467.26019567 0 -4319.03710363 0 1579
0.03850000 0.03847530 46783.34043999 0 1389.34424592 0 24797.68938709 0 4256.76634885 0 -342.64859277 0 1662
0.03950000 0.03950240 48369.56169350 0 770.07244051 0 26090.38330967 0 4934.32619381 0 878.49485960 0 1683
0.04050000 0.04050350 45178.29623427 0 3298.99917972 0 22394.10911546 0 4516.24628098 0 4095.01075558 0 1822
0.04150000 0.04152450 44011.27319839 0 1896.36814401 0 19169.40523527 0 3583.14825154 0 1318.34849918 0 1887
0.04250000 0.04250150 40661.45204776 0 2006.12809994 0 22017.65007162 0 4769.43713261 0 5005.21121729 0 1920
0.04350000 0.04349210 42334.92322085 0 -8.36369093 0 20534.40143892 0 1183.76439101 0 8425.65165562 0 2005
0.04450000 0.04448520 39630.84005364 0 422.31729154 0 19174.49850469 0 4913.25555968 0 5654.42591071 0 2151
0.04550000 0.04548030 39989.47265451 0 1554.53225989 0 17331.39931538 0 1831.00821061 0 11457.53099909 0 2274
0.04650000 0.04648670 38661.67946226 0 -297.12915821 0 14127.28995936 0 6149.07094966 0 8448.98104401 0 2311
0.04750000 0.04749250 38941.69855692 0 -625.03605771 0 13481.10908294 0 4563.79084375 0 8413.48317065 0 2568
0.04850000 0.04851840 38621.59764642 0 -10.33468654 0 11084.94726894 0 1004.71050467 0 6641.87798269 0 2493
0.04950000 0.04949480 38123.34302958 0 992.74796494 0 8957.20075319 0 -417.46761326 0 2796.96890011 0 2644
0.05050000 0.05050630 37701.70890048 0 1114.90560296 0 11285.79924115 0 -2739.74712545 0 3945.68938307 0 2829
0.05150000 0.05149060 35752.75828591 0 276.48037965 0 11854.25239734 0 -3487.72695625 0 -922.24493665 0 2784
0.05250000 0.05249300 36231.85778081 0 1764.49675542 0 11335.18180984 0 -1650.51824374 0 33.38903838 0 3055
0.05350000 0.05348950 35576.37615154 0 1281.58838078 0 12371.44068962 0 -220.45773777 0 -979.12900541 0 3009
0.05450000 0.05448610 34712.40264595 0 -259.96600718 0 14320.39130420 0 -502.10003525 0 -3359.21048208 0 3336
0.05550000 0.05550870 35257.49319677 0 -223.12727528 0 12187.19720464 0 -103.56410441 0 -3340.88578450 0 3349
0.05650000 0.05647670 35220.51163187 0 -115.32933531 0 12690.43436764 0 3939.78783395 0 -4465.45752704 0 3324
0.05750000 0.05747970 35019.65965966 0 -507.57197817 0 11175.29743946 0 2529.55011109 0 -1819.90266882 0 3639
0.05850000 0.05849280 35621.44051356 0 771.67682038 0 8602.01164533 0 1963.44428777 0 -3159.53217630 0 3846
0.05950000 0.05951020 34655.82306612 0 1338.77693847 0 9388.27957535 0 -661.07204606 0 -2625.74646912 0 3787
0.06050000 0.06049470 33778.89494049 0 834.90976018 0 9510.36302880 0 -127.05160560 0 -1963.13426267 0 3930
0.06150000 0.06148310 33053.10404862 0 1042.49149142 0 12937.01504135 0 -2587.01547690 0 -515.71899478 0 4083
0.06250000 0.06249100 32228.21584963 0 1154.59988744 0 13311.14889698 0 -1106.45741913 0 299.86070074 0 4303
0.06350000 0.06350600 32823.35330864 0 133.52891562 0 15327.64069295 0 1800.90255943 0 3634.16952430 0 4470
0.06450000 0.06451750 32117.16043170 0 -552.91425554 0 13081.95177323 0 2578.79981189 0 4022.50917267 0 4479
0.06550000 0.06550280 33268.12859660 0 166.07712165 0 13366.51052107 0 2562.32419256 0 1154.05734352 0 4636
0.06650000 0.06648880 32811.61664433 0 -412.79509219 0 12904.57312964 0 863.21726581 0 170.78285970 0 4653
0.06750000 0.06749660 32295.31413803 0 940.05366389 0 12346.30651228 0 -384.64038464 0 -247.97025048 0 5220
0.06850000 0.06852730 31894.82814934 0 1230.65568662 0 12051.78267210 0 -1522.65503674 0 1490.60065639 0 5029
0.06950000 0.06949320 30427.19149463 0 1262.17859538 0 12258.28152997 0 1129.89753077 0 1238.09628890 0 5040
0.07050000 0.07048030 29334.13158854 0 1417.56760188 0 11500.71306588 0 2124.09264856 0 1253.06607205 0 5475
0.07150000 0.07148790 28699.57665318 0 324.60734671 0 9928.94119625 0 2000.87981798 0 1781.84708842 0 5509
0.07250000 0.07249820 28407.71017096 0 -171.93216702 0 9847.51531953 0 2214.33209583 0 1522.92077253 0 5916
0.07350000 0.07351270 28401.17749932 0 344.21643396 0 10558.35857289 0 1100.79392498 0 3424.94687453 0 5721
0.07450000 0.07449140 28075.31897990 0 431.30469759 0 9561.96006246 0 559.49010925 0 2497.05283775 0 6028
0.07550000 0.07549160 27366.13657527 0 950.78606834 0 10290.79584365 0 -354.29667848 0 4309.17166222 0 6183
0.07650000 0.07648840 26418.01340105 0 1672.89541220 0 11268.52641443 0 -455.62173736 0 3433.05181630 0 6330
0.07750000 0.07749960 24814.51932081 0 1429.60321896 0 10615.59141988 0 -261.50727480 0 2327.43589385 0 6583
0.07850000 0.07848650 23937.03757894 0 601.22834488 0 10148.07357673 0 882.63148015 0 1991.83372860 0 6549
0.07950000 0.07947320 23831.51832341 0 156.29693714 0 10866.89997629 0 -171.30990236 0 139.25552201 0 6828
0.08050000 0.08048110 23441.10815031 0 147.83989544 0 10061.31083946 0 -598.48794449 0 -1124.16206651 0 7147
0.08150000 0.08149960 23609.96110379 0 145.11167461 0 10791.87390331 0 -561.46873369 0 -1594.75801595 0 7386
0.08250000 0.08250610 22599.72218734 0 632.38143799 0 9487.57618433 0 47.70455786 0 -1125.05892482 0 7227
0.08350000 0.08350160 22806.55321495 0 408.02402743 0 9588.40077413 0 1335.46631335 0 -2960.57357163 0 7798
0.08450000 0.08449610 22455.89268794 0 -106.50325303 0 7637.93325105 0 1780.91701313 0 -1876.40474237 0 7371
0.08550000 0.08548940 22000.04507516 0 187.30276833 0 7002.28215553 0 2183.46245424 0 -2210.26855262 0 8256
0.08650000 0.08650700 21598.45185399 0 398.74541923 0 6329.23981911 0 825.35102217 0 -2121.74531570 0 8037
0.08750000 0.08749060 21237.71551140 0 331.12230263 0 5668.35489533 0 1151.98681878 0 -2188.25677088 0 8155
0.08850000 0.08849210 20829.36817209 0 773.24244711 0 5522.16699075 0 80.50078398 0 -1280.92404129 0 8718
0.08950000 0.08949900 20281.39881681 0 327.90136334 0 5293.53455557 0 -612.62951775 0 -991.99061792 0 8571
0.09050000 0.09049190 20230.57684589 0 161.72459077 0 5569.01399706 0 -355.47255937 0 -896.04670890 0 8932
0.09150000 0.09150830 20043.78672620 0 165.66301670 0 6672.06114014 0 -488.63387380 0 -69.83381697 0 9285
0.09250000 0.09250820 19835.18412662 0 731.99803716 0 6909.67323075 0 -338.74116934 0 341.72737534 0 9204
0.09350000 0.09350330 19161.43316140 0 514.39695919 0 6532.25089466 0 468.53760426 0 -799.07750260 0 9349
0.09450000 0.09448040 19165.41919834 0 177.73185076 0 7278.24877931 0 671.01388652 0 116.12654270 0 9564
0.09550000 0.09549270 18695.95262603 0 192.60641192 0 6480.57635473 0 1165.78293551 0 -77.24839929 0 10155
0.09650000 0.09649430 18436.08516254 0 234.82740092 0 6100.88419205 0 681.21039044 0 -109.42158568 0 9913
0.09750000 0.09749140 18544.37249926 0 239.06477962 0 5888.02981973 0 816.88622984 0 330.00621229 0 10476
0.09850000 0.09850240 17949.12431701 0 417.44103969 0 5218.54169958 0 261.73647192 0 -84.33911610 0 10575
0.09950000 0.09950330 17611.75057979 0 542.26710799 0 5557.03374161 0 369.76582348 0 222.04329468 0 10882
0.10050000 0.10051200 17150.47752784 0 797.75435979 0 5469.88347296 0 16.38449410 0 -12.07326298 0 10875
0.10150000 0.10150300 16793.94866868 0 -2.98935054 0 5346.54884680 0 -208.13977641 0 471.00783993 0 11118
0.10250000 0.10250800 16609.70518370 0 -29.54450576 0 5647.29533353 0 226.36925199 0 25.35750613 0 11575
0.10350000 0.10349800 16743.12669776 0 -69.26447803 0 5075.64227547 0 192.71602793 0 -78.33691954 0 11364
0.10450000 0.10450100 16656.31967119 0 219.38040056 0 5700.80787938 0 374.80262404 0 197.13831447 0 12093
0.10550000 0.10551000 16351.83073867 0 497.90362414 0 4923.44209851 0 -363.51106719 0 143.91143460 0 12067
0.10650000 0.10649700 16086.09494303 0 370.33272651 0 5233.27896391 0 199.05271943 0 -871.24137961 0 12054
0.10750000 0.10749900 15670.77203908 0 322.95535585 0 5159.63693154 0 29.01425212 0 -517.99546476 0 12807
0.10850000 0.10850100 15742.40998065 0 281.62236730 0 5373.75354888 0 -118.67649910 0 -1026.79647099 0 12736
0.10950000 0.10950300 15357.97886295 0 118.79940191 0 5416.10519131 0 -113.94750917 0 -585.72266121 0 12933
0.11050000 0.11050200 15316.01475189 0 212.51445194 0 6007.75486800 0 47.76678433 0 -248.70102391 0 13428
0.11150000 0.11150900 15534.47172056 0 -112.01871019 0 5795.85271562 0 -20.35790858 0 -407.41837126 0 13453
0.11250000 0.11250000 15305.16387357 0 208.79304357 0 6252.75219926 0 147.06593994 0 297.18119813 0 13668
0.11350000 0.11349100 15268.73592491 0 570.29005488 0 5973.88462638 0 225.04943087 0 343.67167558 0 13791
0.11450000 0.11448600 15015.51185631 0 162.37342900 0 5711.88020420 0 322.50360499 0 710.69931313 0 14205
0.11550000 0.11549300 14840.01550794 0 -12.11179467 0 5683.05894269 0 517.86702579 0 606.94166449 0 14776
0.11650000 0.11649800 14862.82449706 0 12.65677450 0 5241.80465402 0 1048.27899560 0 351.14106590 0 14553
0.11750000 0.11747300 14667.28724076 0 154.19319542 0 4940.33846618 0 159.40493872 0 103.31453420 0 14568
0.11850000 0.11849100 14302.34341474 0 661.36767714 0 4667.01812803 0 146.44699698 0 649.78602538 0 16015
0.11950000 0.11950300 13835.53420039 0 655.83262196 0 5030.63327508 0 -284.56317677 0 286.38457420 0 15270
0.12050000 0.12050700 13475.68364378 0 190.86362799 0 5127.11751355 0 -311.23862172 0 177.79053408 0 15999
0.12150000 0.12150000 13299.85512566 0 200.26956792 0 5429.74629549 0 -70.01208140 0 316.91318819 0 15670
0.12250000 0.12250700 13262.43066777 0 257.68178657 0 5105.16109343 0 489.98469743 0 421.04286695 0 16887
0.12350000 0.12352200 12824.40949795 0 11.36308407 0 4884.82182954 0 894.58294756 0 929.02784284 0 16407
0.12450000 0.12449800 12919.07787515 0 -45.75826461 0 4182.48212165 0 1139.29793454 0 290.61198782 0 16306
0.12550000 0.12549900 12892.28284909 0 -14.91176417 0 3991.48451852 0 827.04619510 0 467.70828713 0 17523
0.12650000 0.12650100 12793.29626521 0 195.45199940 0 3730.68697975 0 452.68314235 0 -239.68040088 0 17154
0.12750000 0.12750600 12596.65177643 0 88.03649753 0 3265.87078386 0 -341.44613829 0 473.05289832 0 18007
0.12850000 0.12850300 12475.96343591 0 201.07341871 0 3548.42544091 0 -369.90312031 0 137.29682775 0 17496
0.12950000 0.12949900 12375.75889630 0 213.58293129 0 3697.20426949 0 -220.72015186 0 373.87365599 0 18405
0.13050000 0.13049000 12210.67053325 0 254.03788448 0 3690.94840597 0 9.09543873 0 582.93022089 0 18100
0.13150000 0.13148800 12208.23462179 0 -26.92302214 0 3558.80020926 0 430.88948541 0 172.07610724 0 19059
0.13250000 0.13249300 12265.03564811 0 -175.14867738 0 3421.68053871 0 608.81953078 0 636.35418814 0 18957
0.13350000 0.13349100 12337.78082217 0 -26.15072748 0 3348.74713513 0 203.84371438 0 253.16981421 0 19468
0.13450000 0.13450700 12489.80384193 0 -63.39869251 0 3170.19482510 0 -114.83883132 0 -222.41753926 0 19953
0.13550000 0.13551000 12339.99528713 0 194.38352005 0 3148.65915333 0 -254.98456825 0 226.66156136 0 19956
0.13650000 0.13649900 12273.89350797 0 279.94491009 0 3660.90918874 0 -477.24155880 0 2.72340437 0 19723
0.13750000 0.13749600 12057.76172751 0 314.46952610 0 3801.21768884 0 -31.77026450 0 485.70967282 0 20946
0.13850000 0.13851100 11916.47886282 0 216.98656394 0 3992.23743661 0 385.44644989 0 362.37504666 0 20955
0.13950000 0.13949800 11602.13556122 0 385.61917816 0 3898.94202769 0 101.55946000 0 619.92285811 0 20506
0.14050000 0.14048300 11554.63528775 0 92.74002111 0 3810.17519962 0 572.77468457 0 679.84628003 0 21447
0.14150000 0.14148400 11327.43118247 0 66.06003650 0 3939.58853210 0 214.73998923 0 651.74693410 0 21771
0.14250000 0.14249400 11139.42310705 0 217.07403530 0 3506.29524497 0 90.58014271 0 460.37508640 0 22470
0.14350000 0.14350900 10985.00846513 0 216.61785552 0 3231.83445737 0 67.78466182 0 350.68931505 0 22519
0.14450000 0.14449900 10730.32284965 0 162.01357844 0 3331.34144051 0 -12.69397751 0 430.56285183 0 22218
0.14550000 0.14550500 10782.21883607 0 44.18012615 0 2809.87923085 0 376.52658502 0 156.68779021 0 23559
0.14650000 0.14650700 10424.59381676 0 181.69242134 0 2865.20763797 0 244.53450808 0 145.83137572 0 23044
0.14750000 0.14750500 10457.63363401 0 131.49714401 0 2402.52840077 0 575.55826703 0 356.43363717 0 23649
0.14850000 0.14849900 10503.72772223 0 -191.84574320 0 2439.81999076 0 541.08015477 0 -4.70748748 0 23640
0.14950000 0.14949500 10442.13237927 0 -3.66831657 0 2401.31044504 0 291.62178384 0 15.04186399 0 24457
0.15050000 0.15050000 10474.53000169 0 198.17689853 0 2574.00549524 0 -155.15316599 0 589.92571571 0 24591
0.15150000 0.15149900 10294.38327689 0 296.43824514 0 2618.28372219 0 -415.14021059 0 576.60681619 0 25020
0.15250000 0.15250500 10123.94698095 0 467.03841148 0 3037.85839887 0 -355.76154705 0 1029.02422274 0 25297
0.15350000 0.15350100 9700.86237731 0 325.15210509 0 2826.88632177 0 -5.84893344 0 653.74548873 0 25452
0.15450000 0.15450400 9495.71434307 0 118.99870376 0 2984.72231206 0 382.72155075 0 955.29693347 0 26061
0.15550000 0.15549900 9588.50042505 0 -102.65085905 0 2718.76506992 0 286.83743229 0 445.90355786 0 26128
0.15650000 0.15649500 9456.13078184 0 90.45801496 0 2779.72929037 0 187.93942701 0 367.67869025 0 26331
0.15750000 0.15749700 9510.14158231 0 129.67574658 0 2322.77444511 0 -257.24332251 0 567.92057737 0 27345
0.15850000 0.15849900 9321.98956667 0 172.96964385 0 2627.48482411 0 -226.06144136 0 444.37557704 0 26980
0.15950000 0.15949700 9250.79451808 0 148.90283863 0 2632.83275700 0 -53.60688206 0 763.40690097 0 27777
0.16050000 0.16050000 9142.98329132 0 144.62892125 0 2698.82381292 0 174.68031804 0 520.59856832 0 28224
0.16150000 0.16150500 8921.53679495 0 196.64559601 0 2698.75737897 0 349.60090552 0 756.19992474 0 28075
0.16250000 0.16249700 8945.01012356 0 41.23588426 0 2542.21685069 0 378.49302990 0 419.48277638 0 28590
0.16350000 0.16349900 8707.17658646 0 60.29578420 0 2369.37786027 0 188.96029536 0 589.95782545 0 29163
0.16450000 0.16449100 8787.24056722 0 122.29604209 0 2303.63039549 0 -2.03425180 0 407.83136898 0 28996
0.16550000 0.16550500 8554.21241909 0 178.61542228 0 2197.16999236 0 -137.31565070 0 515.80646614 0 30777
0.16650000 0.16650700 8476.34075864 0 236.38306255 0 2130.61424788 0 -72.13708198 0 381.66857266 0 29211
0.16750000 0.16749900 8322.88940898 0 6.08264807 0 2079.29402234 0 187.04478316 0 281.10528973 0 30922
0.16850000 0.16850800 8321.25070491 0 50.84633003 0 1972.60110039 0 247.01581608 0 42.99151208 0 30867
0.16950000 0.16949900 8233.42502444 0 80.88731884 0 1757.29974429 0 206.27187521 0 49.44800613 0 30852
0.17050000 0.17049200 8288.99702271 0 65.84124736 0 2013.64620849 0 31.35361291 0 22.72107487 0 31257
0.17150000 0.17149500 8046.05914386 0 114.37711538 0 1794.82385310 0 22.81762554 0 299.58721432 0 32608
0.17250000 0.17250900 8108.92780418 0 152.48473570 0 1969.68907896 0 99.02367617 0 -3.94737238 0 32361
0.17350000 0.17350400 7987.86300462 0 22.87143704 0 1792.52080954 0 58.58555291 0 377.04809151 0 32508
0.17450000 0.17449800 7932.49030820 0 105.95738741 0 1721.15967608 0 250.92545397 0 110.59702368 0 32791
0.17550000 0.17549800 7780.73302423 0 97.20238946 0 1818.97259353 0 39.48379958 0 205.26982981 0 33633
0.17650000 0.17650100 7809.64286434 0 105.51715178 0 1657.15056631 0 -8.09120101 0 162.03572309 0 33984
0.17750000 0.17750300 7723.05728425 0 110.64917433 0 2004.84371026 0 -41.46740657 0 301.29235234 0 34069
0.17850000 0.17849800 7673.91830671 0 90.72164702 0 1837.48552063 0 -85.61387286 0 458.73084617 0 34536
