### header ###
fiducial parameters:
Omega_m = 0.31
Omega_nu = 0
Omega_de = 0.69
Omega_k = 0
H_0 = 100
w_de = -1
zeff = 0
beta = 0
fgrowth = 0
b_1 = 2
gamma = 0.55
Lx = 3500 Ly = 3500 Lz = 3500
nx = 700 ny = 700 nz = 700
xoffset = -685.467585 yoffset = -31.7331281 zoffset = 572.489161
bins = 400 dk = 0.001
kx_ny = 0.628318531 ky_ny = 0.628318531 kz_ny = 0.628318531
############################
A(data) = 8.03552134 (not used)
A(ran) = 8.03158999 (used)
Ngal = 477487
weighted Ngal = 0
Nran = 23820508
weighted Nran = 0
SN(data) = 3491.04386
SN(ran) = 69.9580616
SN(data+ran) = 3561.00192
############################
13 columns: k_central k_mean P_0(k) sigma^{lin}_{P_0(k)} P^img_1(k) sigma^{lin}_{P_1(k)} P_2(k) sigma^{lin}_{P_2(k)} P^img_3(k) sigma^{lin}_{P_3(k)} P_4(k) sigma^{lin}_{P_4(k)} N_modes
### header ###
0.00050000 0 0 0 0 0 0 0 0 0 0 0 0
0.00150000 0.00179520 51794.56392966 0 -85368.39941450 0 30719.83303959 0 -175276.00911165 0 79281.05667571 0 3
0.00250000 0.00253879 83268.31156615 0 -76972.69839751 0 -50672.38380929 0 31000.29502725 0 -1211.35662446 0 6
0.00350000 0.00331552 108476.34131102 0 -35175.55799311 0 6439.71947615 0 -43739.77979384 0 -27996.48402720 0 7
0.00450000 0.00420575 123256.01264869 0 3918.78363376 0 -24756.27889227 0 -30894.00070899 0 33866.58775305 0 24
0.00550000 0.00557378 102895.11453968 0 10316.91545789 0 -29739.26795365 0 -15066.88744347 0 30012.09003718 0 45
0.00650000 0.00659388 96295.56605477 0 16375.08262079 0 -62587.42326988 0 -44993.38840980 0 5936.43802384 0 40
0.00750000 0.00754703 92480.48581526 0 8937.40343641 0 -250.28547360 0 -920.87639731 0 16716.99601119 0 57
0.00850000 0.00846663 94643.90736158 0 4548.96500082 0 699.94697850 0 -48492.57522224 0 5649.87518521 0 75
0.00950000 0.00948925 81190.92198367 0 8039.44896595 0 22961.12286942 0 -20827.26443037 0 14936.89835010 0 112
0.01050000 0.01054430 82887.09142264 0 8785.32505503 0 61788.33358772 0 -46.46910786 0 25901.60017151 0 105
0.01150000 0.01145670 87056.48605635 0 -5974.88113561 0 70784.15460988 0 9301.48362110 0 14660.75456912 0 144
0.01250000 0.01249090 87674.32178123 0 -783.39355450 0 73735.03989729 0 43111.97897662 0 6347.21020229 0 169
0.01350000 0.01339930 112234.62052421 0 -12788.75661203 0 67457.03172512 0 28401.95256205 0 -11507.24573752 0 180
0.01450000 0.01448870 98120.39590814 0 3777.00251446 0 48114.56605293 0 32787.03608323 0 -556.38100044 0 267
0.01550000 0.01550050 92458.34116562 0 11285.90996440 0 39729.38374452 0 25093.65262949 0 22059.61418269 0 238
0.01650000 0.01653350 87034.00923697 0 2798.76261673 0 15157.12689074 0 11387.33245974 0 5888.22912158 0 315
0.01750000 0.01747870 81049.63911899 0 -673.57712971 0 16217.19126888 0 20140.00522888 0 -10837.15971182 0 297
0.01850000 0.01844180 76288.87161671 0 8066.32149828 0 4832.57152872 0 -1847.90457828 0 -9451.49147774 0 388
0.01950000 0.01947590 70784.15460988 0 14514.37843502 0 16013.57121546 0 -23865.28891411 0 -8001.54839809 0 399
0.02050000 0.02045430 64434.84066587 0 10841.93188382 0 29001.18678124 0 -19703.86635427 0 9523.72732486 0 462
0.02150000 0.02154770 59035.31074481 0 3872.49024370 0 41118.73906277 0 -4764.31064622 0 12822.30575623 0 571
0.02250000 0.02255340 62502.60926177 0 -6763.15315643 0 42063.65126279 0 11666.24432192 0 11788.59351116 0 510
0.02350000 0.02348930 67494.56690626 0 -7999.66610287 0 43021.07518986 0 24993.55881313 0 -3982.23912730 0 555
0.02450000 0.02439640 73744.00848040 0 -5499.03690421 0 34113.72204300 0 16881.75220449 0 1146.21813755 0 592
0.02550000 0.02547300 74794.43993594 0 3591.14247006 0 29184.76592673 0 5168.92661206 0 -4873.25125011 0 837
0.02650000 0.02652900 72496.93253607 0 4060.71976561 0 25670.96364554 0 2788.15532956 0 13667.67775614 0 723
0.02750000 0.02749970 66049.40707093 0 5147.05877055 0 23090.11545356 0 -8352.93969854 0 -5398.87665390 0 826
0.02850000 0.02848090 65219.31487927 0 3846.51456967 0 30476.02044708 0 -388.84122468 0 257.83347742 0 831
0.02950000 0.02946900 60400.41767170 0 1182.33606111 0 35658.86497144 0 1869.47346703 0 -60.63337939 0 996
0.03050000 0.03053250 59322.85902035 0 2899.13324122 0 34266.63084875 0 4098.91928624 0 -5781.28153616 0 1041
0.03150000 0.03150510 60254.81660034 0 -1774.67222193 0 31522.02297270 0 9861.76540157 0 5995.97391439 0 1036
0.03250000 0.03246190 59065.42746832 0 -811.52943910 0 21738.40603970 0 1941.08926396 0 1768.63780491 0 1059
0.03350000 0.03345080 62677.66271715 0 556.05658132 0 22182.40626492 0 7949.70777329 0 2318.30122588 0 1302
0.03450000 0.03451200 57713.71805446 0 2783.72639963 0 19765.64992676 0 3796.05798547 0 1722.20047462 0 1339
0.03550000 0.03553350 56285.83104584 0 5123.54115263 0 15877.49234344 0 3205.05050363 0 1371.89426200 0 1365
0.03650000 0.03647120 53271.61206046 0 1817.66605920 0 16627.31018016 0 -1785.39023236 0 1738.60966000 0 1308
0.03750000 0.03744890 50866.59238661 0 276.21907279 0 14396.34745245 0 2425.70277662 0 1013.92710785 0 1579
0.03850000 0.03847530 50888.29414325 0 108.59282217 0 17256.10750661 0 3933.95271877 0 816.15545640 0 1662
0.03950000 0.03950240 51316.01805099 0 1005.95171228 0 19119.35832709 0 80.04117177 0 3654.25472152 0 1683
0.04050000 0.04050350 50967.35054246 0 2355.36029705 0 18307.42474814 0 2446.92842330 0 6252.77434391 0 1822
0.04150000 0.04152450 48896.49363162 0 1570.40997368 0 19077.39421603 0 3738.64798129 0 9417.69874240 0 1887
0.04250000 0.04250150 48162.39849615 0 1788.80050840 0 19446.87769523 0 1533.48377041 0 8619.86023294 0 1920
0.04350000 0.04349210 46061.42486181 0 1911.54830134 0 17818.36016090 0 3557.18364984 0 9040.81895022 0 2005
0.04450000 0.04448520 45452.33627354 0 3407.84013268 0 16749.88081590 0 -375.01631991 0 8176.35826233 0 2151
0.04550000 0.04548030 41235.44136635 0 1731.88875883 0 15095.12187176 0 3355.47910862 0 4466.37653000 0 2274
0.04650000 0.04648670 40619.37721344 0 956.07310344 0 17836.18660386 0 2796.89139384 0 5207.08184339 0 2311
0.04750000 0.04749250 39023.96593033 0 294.16288239 0 15827.44543526 0 589.76516700 0 2453.18428682 0 2568
0.04850000 0.04851840 39747.87452697 0 1037.37275565 0 16449.37792033 0 -444.17406073 0 3682.44486051 0 2493
0.04950000 0.04949480 38716.48747011 0 777.74334714 0 16964.68391739 0 -415.02395118 0 6314.64649500 0 2644
0.05050000 0.05050630 37725.18222910 0 319.67794770 0 15652.50270313 0 2096.05752212 0 6423.37672472 0 2829
0.05150000 0.05149060 36810.49747583 0 1617.14625674 0 16711.45984878 0 2979.44081312 0 7532.55793575 0 2784
0.05250000 0.05249300 36114.15896799 0 1502.51447789 0 13394.85567261 0 1840.47504833 0 3089.77652994 0 3055
0.05350000 0.05348950 33827.39172319 0 1450.67385309 0 12853.97260521 0 3488.39129574 0 6121.63372876 0 3009
0.05450000 0.05448610 33276.43284022 0 324.42465335 0 9212.41784026 0 3513.23759263 0 3379.40640255 0 3336
0.05550000 0.05550870 32660.59013380 0 -1711.24994537 0 7276.05645900 0 3859.62420226 0 1919.52037521 0 3349
0.05650000 0.05647670 33687.88043048 0 -1503.01273251 0 5313.45366792 0 2128.33334897 0 -963.53031421 0 3324
0.05750000 0.05747970 35218.85078315 0 -13.62571365 0 5717.27242638 0 -1791.05926266 0 -3177.52470413 0 3639
0.05850000 0.05849280 34141.07068530 0 2126.90501906 0 6867.58732412 0 -3861.36255725 0 -796.42789528 0 3846
0.05950000 0.05951020 32800.32287301 0 1753.20298411 0 8085.57627114 0 -2841.04782522 0 -1301.09781711 0 3787
0.06050000 0.06049470 31925.16631935 0 557.73957469 0 9919.60722643 0 -348.71622677 0 2034.99365074 0 3930
0.06150000 0.06148310 32794.56526411 0 75.72672969 0 10729.59207621 0 1412.10894575 0 1493.18050807 0 4083
0.06250000 0.06249100 32839.74034937 0 -880.56870604 0 11508.79586300 0 1544.34572106 0 -873.49016878 0 4303
0.06350000 0.06350600 33020.10852066 0 334.11293757 0 9418.32986491 0 1766.22403810 0 77.38348165 0 4470
0.06450000 0.06451750 31674.04599246 0 1271.88902424 0 10950.56246262 0 -1236.51294645 0 2043.72971503 0 4479
0.06550000 0.06550280 31020.66810491 0 2386.39602351 0 10788.47469960 0 -380.10958933 0 1778.43681237 0 4636
0.06650000 0.06648880 29575.39754633 0 1405.56520178 0 11392.75789890 0 876.74875397 0 2406.84660745 0 4653
0.06750000 0.06749660 28263.21633208 0 536.25372838 0 11755.37653671 0 1386.11112707 0 1769.42393997 0 5220
0.06850000 0.06852730 27997.14836668 0 -65.25297475 0 10800.90892037 0 2522.71848668 0 4341.30354884 0 5029
0.06950000 0.06949320 28054.50300925 0 -52.34629788 0 10658.71812505 0 371.56396903 0 951.93980459 0 5040
0.07050000 0.07048030 28617.75217277 0 -35.52898660 0 10278.27304428 0 290.45033188 0 2113.27498721 0 5475
0.07150000 0.07148790 28497.50672524 0 240.69241137 0 9859.18554989 0 -384.08344670 0 1376.98753142 0 5509
0.07250000 0.07249820 29001.18678124 0 -175.25497169 0 10317.72373761 0 -1502.14909117 0 746.29240850 0 5916
0.07350000 0.07351270 28395.64133691 0 32.17495797 0 11140.75178603 0 -860.32185287 0 990.03192366 0 5721
0.07450000 0.07449140 29157.63873093 0 672.44996705 0 11850.37708365 0 409.22758913 0 -1229.12770579 0 6028
0.07550000 0.07549160 27760.53278531 0 809.33047539 0 10511.71086843 0 530.06983497 0 -536.64458145 0 6183
0.07650000 0.07648840 27880.44606310 0 196.05544110 0 11704.22239605 0 1110.95278300 0 -1556.22632559 0 6330
0.07750000 0.07749960 26782.73578058 0 1218.57578024 0 10699.77430547 0 1258.13719682 0 52.40343107 0 6583
0.07850000 0.07848650 26780.63203886 0 763.15445196 0 11389.98981769 0 1411.42246161 0 1566.62323859 0 6549
0.07950000 0.07947320 25092.32395051 0 190.96992231 0 10399.00567410 0 1030.79358025 0 287.84169215 0 6828
0.08050000 0.08048110 25118.01174409 0 556.73420760 0 9358.17392417 0 1638.43833736 0 933.47670295 0 7147
0.08150000 0.08149960 24712.87537898 0 892.56224828 0 9548.13072876 0 -141.48880993 0 1672.03177086 0 7386
0.08250000 0.08250610 23896.51287010 0 846.56559652 0 9063.42863750 0 12.32084017 0 243.41841774 0 7227
0.08350000 0.08350160 22942.52136372 0 392.49066294 0 9016.81415001 0 123.07774822 0 2551.79441165 0 7798
0.08450000 0.08449610 23075.27853830 0 635.35214274 0 7931.84811336 0 344.66597035 0 -601.71663441 0 7371
0.08550000 0.08548940 21942.46898610 0 381.36186926 0 7903.69119135 0 1299.08265400 0 400.66425312 0 8256
0.08650000 0.08650700 21916.55974603 0 -49.44235925 0 7135.12790871 0 1221.26635517 0 -820.86894508 0 8037
0.08750000 0.08749060 21715.59705057 0 -40.30226583 0 6166.90846494 0 1134.21573745 0 533.97836563 0 8155
0.08850000 0.08849210 21914.56672756 0 44.66155083 0 6029.94380694 0 1741.37774120 0 -447.17133906 0 8718
0.08950000 0.08949900 21543.97601588 0 508.85415339 0 5436.74400478 0 597.39842773 0 -90.55511925 0 8571
0.09050000 0.09049190 21041.95680860 0 940.60728013 0 5562.86885679 0 -327.04990156 0 881.67261682 0 8932
0.09150000 0.09150830 20484.02236099 0 363.25418926 0 5949.73588595 0 -591.29204059 0 920.87971900 0 9285
0.09250000 0.09250820 20311.29409382 0 66.72780841 0 6666.71320726 0 -644.38273087 0 1325.99947563 0 9204
0.09350000 0.09350330 20660.84738835 0 261.69439709 0 7617.17264201 0 -591.67846473 0 668.11958081 0 9349
0.09450000 0.09448040 20066.59571533 0 442.38034411 0 7377.18000157 0 -531.03977063 0 764.92602393 0 9564
0.09550000 0.09549270 19368.15346577 0 1135.31189760 0 7674.53835690 0 -120.51007609 0 249.79164791 0 10155
0.09650000 0.09649430 19007.74929292 0 730.32500888 0 7654.13206226 0 58.53140924 0 -51.60057680 0 9913
0.09750000 0.09749140 18112.77327783 0 588.63357540 0 7488.61187854 0 811.05332913 0 -306.22618028 0 10476
0.09850000 0.09850240 17576.65131011 0 252.55862188 0 6964.74697440 0 567.88403869 0 367.24686958 0 10575
0.09950000 0.09950330 17592.37401135 0 -252.61509074 0 6852.52896236 0 1230.05778108 0 -518.23462697 0 10882
0.10050000 0.10051200 17567.01838752 0 -268.48837560 0 6353.85359718 0 1616.70336375 0 -642.29670487 0 10875
0.10150000 0.10150300 17633.00944344 0 576.83933501 0 5745.26326352 0 -167.68925215 0 -1522.18999909 0 11118
0.10250000 0.10250800 17056.03059714 0 1026.33696951 0 6230.38610313 0 -1332.89753399 0 -1146.10741430 0 11575
0.10350000 0.10349800 16272.66361622 0 879.33524905 0 7015.73503019 0 -1311.42829617 0 247.42881379 0 11364
0.10450000 0.10450100 16070.04007204 0 384.72453431 0 6987.82169932 0 -369.44804776 0 457.46638667 0 12093
0.10550000 0.10551000 15928.42503761 0 -341.14275659 0 7633.37145322 0 140.11141272 0 44.16384983 0 12067
0.10650000 0.10649700 16215.30897366 0 -53.42773184 0 7842.35051185 0 623.38738854 0 -880.88537453 0 12054
0.10750000 0.10749900 15982.01508973 0 561.74332735 0 8026.51649056 0 -23.42881787 0 -560.12455346 0 12807
0.10850000 0.10850100 15864.42700016 0 147.26967072 0 8206.96216813 0 6.56527964 0 -907.75569240 0 12736
0.10950000 0.10950300 15506.45873877 0 -139.43710814 0 7923.18955535 0 24.65596363 0 -630.34523746 0 12933
0.11050000 0.11050200 15761.78654909 0 83.83621111 0 7445.25265455 0 251.13139921 0 -878.48378727 0 13428
0.11150000 0.11150900 15804.63644614 0 82.43943733 0 7137.48631390 0 826.53465369 0 -1101.18256358 0 13453
0.11250000 0.11250000 15336.94144580 0 32.98124466 0 6302.98733696 0 1550.13654694 0 13.67830719 0 13668
0.11350000 0.11349100 15494.61135121 0 89.15934199 0 5605.26478852 0 1240.37718781 0 -579.46679769 0 13791
0.11450000 0.11448600 14774.68879151 0 151.40739850 0 4787.06427372 0 1496.64614574 0 -663.92206247 0 14205
0.11550000 0.11549300 14697.73613402 0 427.26994243 0 4463.40914694 0 796.00161077 0 -1391.07152859 0 14776
0.11650000 0.11649800 14165.04658699 0 468.74022780 0 3865.13822002 0 -95.13895100 0 -23.63764192 0 14553
0.11750000 0.11747300 14251.96433682 0 83.97295432 0 3901.82083214 0 39.41614768 0 -358.53627165 0 14568
0.11850000 0.11849100 14023.43155256 0 -272.37143991 0 3901.52187937 0 -318.84863057 0 -520.12910175 0 16015
0.11950000 0.11950300 14252.29650656 0 91.98621724 0 3845.11945675 0 269.52142350 0 -270.14258093 0 15270
0.12050000 0.12050700 14297.36086857 0 19.52892362 0 4062.81243501 0 -258.69711876 0 -461.93185527 0 15999
0.12150000 0.12150000 14238.12393079 0 154.90957484 0 3958.56649684 0 310.09152887 0 88.92549449 0 15670
0.12250000 0.12250700 14242.44213747 0 268.41861995 0 4266.01174008 0 33.02863421 0 -251.31298534 0 16887
0.12350000 0.12352200 13947.58612755 0 240.45214192 0 4544.81287901 0 -293.07668732 0 -290.16355866 0 16407
0.12450000 0.12449800 13718.72117355 0 264.05501674 0 4588.83644249 0 93.90427606 0 -280.85616242 0 16306
0.12550000 0.12549900 13618.51663394 0 336.59313832 0 4852.15847133 0 -201.28600734 0 -20.65819003 0 17523
0.12650000 0.12650100 13313.03119220 0 199.40481936 0 4727.14085180 0 385.99563720 0 271.97505068 0 17154
0.12750000 0.12750600 13344.14442494 0 103.35860206 0 4661.71448445 0 601.19734238 0 756.01390969 0 18007
0.12850000 0.12850300 13102.76774389 0 60.46197980 0 4005.04811643 0 1170.21186543 0 726.77743600 0 17496
0.12950000 0.12949900 13207.84410642 0 -8.18657802 0 3576.30555480 0 503.87049999 0 560.23084778 0 18405
0.13050000 0.13049000 12999.02006034 0 94.84343065 0 3603.22237643 0 435.44463984 0 735.70394427 0 18100
0.13150000 0.13148800 13024.81857717 0 232.87092112 0 3724.69685202 0 79.45212409 0 497.31568369 0 19059
0.13250000 0.13249300 12685.11965173 0 109.12916558 0 3555.43422252 0 -115.04588380 0 1238.60561584 0 18957
0.13350000 0.13349100 12758.30771878 0 111.94784731 0 3834.22428912 0 50.99813161 0 771.97466591 0 19468
0.13450000 0.13450700 12464.33749485 0 267.94804615 0 3953.31821487 0 151.37861046 0 972.22762535 0 19953
0.13550000 0.13551000 12226.72540424 0 410.48761970 0 4034.48942812 0 7.86426264 0 1208.53318163 0 19956
0.13650000 0.13649900 11819.81746715 0 299.99910480 0 3797.35344748 0 525.80809715 0 1666.37381288 0 19723
0.13750000 0.13749600 11961.21105509 0 -164.14942990 0 3548.06005419 0 578.05175457 0 1822.03962751 0 20946
0.13850000 0.13851100 11991.10633210 0 -195.00135578 0 3137.32109271 0 787.00645409 0 1766.92159456 0 20955
0.13950000 0.13949800 12280.53690286 0 -95.97502225 0 2865.21871030 0 307.45410110 0 1409.46266011 0 20506
0.14050000 0.14048300 12128.51388310 0 266.68026495 0 2948.39401433 0 -342.37399911 0 889.24276530 0 21447
0.14150000 0.14148400 11664.69419644 0 568.07226822 0 2650.61491066 0 -312.85739561 0 728.04632443 0 21771
0.14250000 0.14249400 11343.37533021 0 394.24894812 0 2722.20856294 0 -689.76708306 0 712.12764304 0 22470
0.14350000 0.14350900 11033.63811573 0 270.93868108 0 2564.90404424 0 -22.13822769 0 -217.73283863 0 22519
0.14450000 0.14449900 10949.07877109 0 62.16789288 0 2704.70321740 0 -30.09668260 0 -597.80035312 0 22218
0.14550000 0.14550500 10846.17258423 0 35.97830154 0 2299.83258808 0 56.58290152 0 -1067.54262632 0 23559
0.14650000 0.14650700 10865.79274380 0 75.63361143 0 2324.81175287 0 32.34226080 0 -1018.01390294 0 23044
0.14750000 0.14750500 10628.20279785 0 69.84931823 0 2237.92722002 0 -13.93297066 0 -981.70996433 0 23649
0.14850000 0.14849900 10749.72156273 0 162.68899026 0 2564.26184940 0 105.40676070 0 -717.65605482 0 23640
0.14950000 0.14949500 10419.91022336 0 233.09790378 0 2686.88784677 0 138.11839425 0 -570.20922691 0 24457
0.15050000 0.15050000 10200.03599711 0 366.04552234 0 2861.03337151 0 202.36555901 0 -1.61712411 0 24591
0.15150000 0.15149900 9996.82561971 0 297.71377696 0 2843.66089387 0 291.81776399 0 354.91451420 0 25020
0.15250000 0.15250500 9888.49399369 0 284.71486762 0 2970.59402559 0 387.04529359 0 683.57543903 0 25297
0.15350000 0.15350100 9513.35255651 0 215.73317677 0 2732.87121174 0 461.46571040 0 1140.22800982 0 25452
0.15450000 0.15450400 9670.62385823 0 -103.65401168 0 2591.00151384 0 421.77031869 0 1221.35493377 0 26061
0.15550000 0.15549900 9627.84039513 0 -62.28780616 0 2248.67844742 0 309.90108488 0 1066.34570801 0 26128
0.15650000 0.15649500 9685.69329231 0 24.54834063 0 2073.39247321 0 -126.11820861 0 477.78520995 0 26331
0.15750000 0.15749700 9665.30914232 0 93.41620799 0 2009.92590735 0 -145.53463742 0 790.85408696 0 27345
0.15850000 0.15849900 9513.56293068 0 138.61997057 0 1985.32320161 0 75.62541791 0 395.91976194 0 26980
0.15950000 0.15949700 9297.18755907 0 170.74632103 0 1762.04977164 0 198.14589602 0 440.11162475 0 27777
0.16050000 0.16050000 9307.71733997 0 107.82196691 0 1751.12138704 0 238.40708353 0 298.27735829 0 28224
0.16150000 0.16150500 9030.23380769 0 268.22928320 0 1706.74350917 0 262.29230263 0 382.47131621 0 28075
0.16250000 0.16249700 8950.97810664 0 223.79272200 0 1547.96637127 0 -78.44221735 0 730.42687426 0 28590
0.16350000 0.16349900 8771.68395085 0 78.29838785 0 1764.60747867 0 -69.75442840 0 262.02988853 0 29163
0.16450000 0.16449100 8682.45208514 0 146.22001432 0 1824.33159874 0 -319.55061596 0 449.04145472 0 28996
0.16550000 0.16550500 8647.31959849 0 157.10189515 0 2044.46048846 0 -235.04663295 0 448.29296556 0 30777
0.16650000 0.16650700 8483.16131073 0 22.79725246 0 2081.16524524 0 -168.86624027 0 379.97229250 0 29211
0.16750000 0.16749900 8565.55047970 0 87.68329036 0 2233.17719267 0 74.20362068 0 -17.83208984 0 30922
0.16850000 0.16850800 8470.71601763 0 122.04912924 0 2317.78082661 0 18.58921541 0 18.99379816 0 30867
0.16950000 0.16949900 8356.43855318 0 214.51854273 0 2449.63007055 0 61.05623147 0 218.60533782 0 30852
0.17050000 0.17049200 8273.23003217 0 131.18268999 0 2418.76042896 0 112.84249116 0 307.04221062 0 31257
0.17150000 0.17149500 8304.73079628 0 -149.19736247 0 2250.49430869 0 233.56626312 0 501.96052396 0 32608
0.17250000 0.17250900 8421.98671611 0 -106.03633309 0 2221.77269811 0 342.04515107 0 211.44597260 0 32361
0.17350000 0.17350400 8373.05811273 0 107.67082968 0 2006.02844902 0 -1.42932641 0 404.36019514 0 32508
0.17450000 0.17449800 8378.07387588 0 201.11660077 0 2200.04879682 0 -68.08317169 0 297.41593142 0 32791
0.17550000 0.17549800 8087.97896563 0 303.46917140 0 1864.19196809 0 -11.58729865 0 471.67771558 0 33633
0.17650000 0.17650100 7815.48905184 0 312.17534040 0 2037.55135778 0 -159.89876440 0 528.19861208 0 33984
0.17750000 0.17750300 7676.76389419 0 147.07036887 0 1946.24896732 0 167.86419488 0 536.19393783 0 34069
0.17850000 0.17849800 7557.28243707 0 22.59363241 0 2080.97701572 0 155.11884178 0 288.57578728 0 34536
