### header ###
fiducial parameters:
Omega_m = 0.31
Omega_nu = 0
Omega_de = 0.69
Omega_k = 0
H_0 = 100
w_de = -1
zeff = 0
beta = 0
fgrowth = 0
b_1 = 2
gamma = 0.55
Lx = 3500 Ly = 3500 Lz = 3500
nx = 700 ny = 700 nz = 700
xoffset = -685.467585 yoffset = -31.7331281 zoffset = 572.489161
bins = 400 dk = 0.001
kx_ny = 0.628318531 ky_ny = 0.628318531 kz_ny = 0.628318531
############################
A(data) = 8.07337303 (not used)
A(ran) = 8.07272196 (used)
Ngal = 479566
weighted Ngal = 0
Nran = 23820508
weighted Nran = 0
SN(data) = 3481.99621
SN(ran) = 70.316336
SN(data+ran) = 3552.31255
############################
13 columns: k_central k_mean P_0(k) sigma^{lin}_{P_0(k)} P^img_1(k) sigma^{lin}_{P_1(k)} P_2(k) sigma^{lin}_{P_2(k)} P^img_3(k) sigma^{lin}_{P_3(k)} P_4(k) sigma^{lin}_{P_4(k)} N_modes
### header ###
0.00050000 0 0 0 0 0 0 0 0 0 0 0 0
0.00150000 0.00179520 33728.95875555 0 -54881.30664260 0 -39908.97685308 0 34376.46831095 0 11975.71580060 0 3
0.00250000 0.00253879 57721.69012833 0 -54172.56713096 0 -13497.16395393 0 -31520.02995423 0 -12258.50297647 0 6
0.00350000 0.00331552 67450.16688373 0 -8291.31113860 0 -11237.63462819 0 -50878.99339040 0 4339.36589200 0 7
0.00450000 0.00420575 76369.81031114 0 14628.20193415 0 -14605.72511477 0 -23523.70769346 0 30607.00604969 0 24
0.00550000 0.00557378 63002.08183434 0 -13929.75968459 0 -49165.88329446 0 2696.44326308 0 17087.36527638 0 45
0.00650000 0.00659388 56941.75556810 0 -7755.21131553 0 -36723.80117250 0 14136.03709597 0 -8184.98360336 0 40
0.00750000 0.00754703 84649.36264078 0 -13754.26333622 0 -37759.06354304 0 -6658.17644482 0 -17171.95783799 0 57
0.00850000 0.00846663 77683.32020437 0 -8557.15765749 0 -31174.79486639 0 -22562.96206894 0 9619.60258547 0 75
0.00950000 0.00948925 78208.03767753 0 9237.48558365 0 -32269.84779095 0 -27505.86931448 0 10223.67541060 0 112
0.01050000 0.01054430 74335.60279546 0 -1727.71449238 0 -13040.65200166 0 -28986.23914273 0 8687.99931987 0 105
0.01150000 0.01145670 76027.78619749 0 6324.76659988 0 4371.88530999 0 -19595.24684780 0 -19902.50386152 0 144
0.01250000 0.01249090 68393.30751179 0 6056.71668835 0 10277.55334316 0 -19476.44080250 0 -8518.95813687 0 169
0.01350000 0.01339930 69289.50148261 0 7316.32650437 0 33925.27107459 0 -22279.95344658 0 -2820.13220363 0 180
0.01450000 0.01448870 62950.92769368 0 6742.95723596 0 27966.25658044 0 -6125.57547639 0 -7715.24022293 0 267
0.01550000 0.01550050 67027.42552216 0 -2842.34328722 0 36120.69163963 0 -5073.59389537 0 5572.21389893 0 238
0.01650000 0.01653350 69442.63173485 0 -7668.70324172 0 35148.43079730 0 6258.08905982 0 -13664.46678194 0 315
0.01750000 0.01747870 78746.26338696 0 -10384.20197582 0 37539.27789539 0 13379.02224811 0 1909.78780169 0 297
0.01850000 0.01844180 78962.61661392 0 8055.03879929 0 28700.46243916 0 13554.62931974 0 -19601.89024269 0 388
0.01950000 0.01947590 75516.02334437 0 3519.23879268 0 25229.28860852 0 2066.76015065 0 -3273.95358098 0 399
0.02050000 0.02045430 74107.51290419 0 -2170.35282165 0 13047.62756629 0 16544.48919052 0 -4195.77998375 0 462
0.02150000 0.02154770 75660.51718326 0 128.11454878 0 14964.02554590 0 -1646.91973818 0 -6047.79239454 0 571
0.02250000 0.02255340 75434.75248020 0 3369.20879139 0 15167.64559932 0 -5173.05658922 0 -22703.58059414 0 510
0.02350000 0.02348930 69606.94503516 0 5028.57382266 0 16475.06571390 0 -5477.56766638 0 -14617.46177908 0 555
0.02450000 0.02439640 67293.93638054 0 5199.12084184 0 18709.90375530 0 -10764.60276729 0 -4346.07572084 0 592
0.02550000 0.02547300 68177.28645457 0 6.10430554 0 23288.42079106 0 7332.35923070 0 -21165.63467683 0 837
0.02650000 0.02652900 67464.00728976 0 -3427.82567898 0 23855.76671477 0 7364.18109223 0 -19962.40513879 0 723
0.02750000 0.02749970 72837.51724749 0 -326.30030517 0 21288.09458932 0 6096.03451378 0 -15472.68814807 0 826
0.02850000 0.02848090 67914.20801688 0 6023.96475153 0 21553.83038497 0 135.75888183 0 -6666.48068843 0 831
0.02950000 0.02946900 63795.30318435 0 5434.98350513 0 16584.79245286 0 6727.09059449 0 -5943.26964826 0 996
0.03050000 0.03053250 57403.13934329 0 2596.98056924 0 14947.41705868 0 5702.94483807 0 -1829.83454418 0 1041
0.03150000 0.03150510 59082.03595554 0 1499.60245646 0 15310.92148247 0 4751.25637525 0 -1275.21072169 0 1036
0.03250000 0.03246190 55513.64711299 0 849.39014658 0 13955.11530843 0 -362.23885707 0 -8961.67397242 0 1059
0.03350000 0.03345080 53795.66519413 0 2861.36554126 0 12888.29681215 0 -5070.32755955 0 -8449.24677981 0 1302
0.03450000 0.03451200 51546.32240722 0 3946.02155282 0 13973.05247464 0 -9454.48100544 0 -6365.63455079 0 1339
0.03550000 0.03553350 47622.84410774 0 2718.51040645 0 16395.56642171 0 -748.63531243 0 -3936.65436602 0 1365
0.03650000 0.03647120 48739.26661920 0 -645.66601331 0 20818.29584727 0 4187.68611431 0 -9057.36100350 0 1308
0.03750000 0.03744890 47252.69628905 0 -881.35373387 0 17041.19368188 0 4817.55745627 0 -11803.20897993 0 1579
0.03850000 0.03847530 47938.40536507 0 933.12571025 0 17568.78995949 0 2458.06718206 0 -13086.71287290 0 1662
0.03950000 0.03950240 47743.53244826 0 1987.94734259 0 18337.98436464 0 -539.39273247 0 -4600.87205957 0 1683
0.04050000 0.04050350 46160.52216894 0 1647.56193301 0 17069.09594043 0 809.11013612 0 -745.11431314 0 1822
0.04150000 0.04152450 45896.55794526 0 -330.46903547 0 18485.57845447 0 3628.14617960 0 -1182.88967735 0 1887
0.04250000 0.04250150 46634.97128742 0 -665.10347953 0 17955.21409566 0 5457.58212009 0 4680.11668829 0 1920
0.04350000 0.04349210 45730.03017999 0 1710.84026935 0 16055.31388003 0 5298.68318661 0 3083.69782362 0 2005
0.04450000 0.04448520 44672.95532955 0 2435.83395383 0 21315.77540137 0 1625.79374242 0 9216.69175764 0 2151
0.04550000 0.04548030 41520.11083744 0 3418.17061174 0 16955.38316454 0 1356.94662350 0 9531.31186736 0 2274
0.04650000 0.04648670 39895.02572381 0 2181.59123134 0 18841.88586714 0 -239.09135320 0 13722.26431749 0 2311
0.04750000 0.04749250 39749.53537569 0 -444.41211571 0 20507.16351986 0 2702.00157014 0 10658.61847412 0 2568
0.04850000 0.04851840 39135.46424125 0 65.69321038 0 17350.22226757 0 785.69991976 0 8787.19627792 0 2493
0.04950000 0.04949480 39994.78737043 0 585.05057109 0 17363.39833410 0 369.28639182 0 5112.31381527 0 2644
0.05050000 0.05050630 38164.19990816 0 608.48293211 0 15564.03482783 0 1645.74607174 0 6199.62718478 0 2829
0.05150000 0.05149060 38804.95534541 0 1227.33398917 0 16061.40365868 0 1217.68999426 0 4584.06427049 0 2784
0.05250000 0.05249300 36860.76583051 0 119.27772634 0 13221.90595894 0 2143.52457862 0 2107.37343808 0 3055
0.05350000 0.05348950 38140.50513305 0 -1088.90446259 0 14270.56584251 0 1792.44330327 0 787.52906782 0 3009
0.05450000 0.05448610 37710.89893008 0 -10.04372799 0 13042.31285038 0 1530.47209806 0 611.48906829 0 3336
0.05550000 0.05550870 37687.86849446 0 1752.58293392 0 13252.13340569 0 85.02382867 0 2456.71635844 0 3349
0.05650000 0.05647670 36325.52964877 0 1439.33579248 0 12894.38659080 0 -653.48861080 0 3717.77664901 0 3324
0.05750000 0.05747970 35921.94340913 0 658.05926648 0 14482.15796980 0 582.22823550 0 2959.55491775 0 3639
0.05850000 0.05849280 34897.31047042 0 374.51806529 0 14247.86757663 0 1493.88913686 0 2913.01793654 0 3846
0.05950000 0.05951020 34911.15087644 0 858.55692430 0 13471.03326736 0 4.72848060 0 -249.19706407 0 3787
0.06050000 0.06049470 33287.94805803 0 76.63764985 0 13244.93639456 0 811.58480072 0 1160.37964099 0 3930
0.06150000 0.06148310 34300.84433244 0 95.51518860 0 12327.59428334 0 1952.00657623 0 1229.71453901 0 4083
0.06250000 0.06249100 32819.25654845 0 204.26446272 0 9706.61998622 0 2132.13115638 0 -894.60619944 0 4303
0.06350000 0.06350600 32725.36323399 0 485.51812160 0 8813.63698959 0 1274.90069659 0 -1804.17996757 0 4470
0.06450000 0.06451750 32143.51256477 0 1963.04568407 0 7776.07157549 0 627.84953545 0 -3221.73649713 0 4479
0.06550000 0.06550280 29643.82451371 0 1691.64085812 0 7730.42038026 0 1314.59498107 0 44.09796950 0 4636
0.06650000 0.06648880 28663.37015102 0 241.19952385 0 6268.28667098 0 328.25457050 0 783.51645730 0 4653
0.06750000 0.06749660 29514.49975983 0 -152.19906972 0 7952.77480727 0 915.33580597 0 -498.78941013 0 5220
0.06850000 0.06852730 29973.66907006 0 92.53939058 0 9242.58992539 0 -1118.30480668 0 124.13294077 0 5029
0.06950000 0.06949320 28864.00067674 0 698.32931185 0 9317.80422788 0 -1936.93714215 0 1339.18661449 0 5040
0.07050000 0.07048030 29444.19049723 0 1420.75643143 0 11394.08657788 0 -1820.69987620 0 2251.26937143 0 5475
0.07150000 0.07148790 29086.11151260 0 -425.84493422 0 12058.64751349 0 -91.84582016 0 3078.93672395 0 5509
0.07250000 0.07249820 29392.37201708 0 364.96154174 0 11811.95611653 0 902.68013870 0 1767.98453774 0 5916
0.07350000 0.07351270 28772.65399698 0 623.69519917 0 11423.20679215 0 26.52087530 0 943.46393994 0 5721
0.07450000 0.07449140 28535.04190637 0 492.42393059 0 10572.54222098 0 1002.56358089 0 423.85966638 0 6028
0.07550000 0.07549160 27695.98113162 0 1233.35733387 0 9968.30331098 0 1106.71983323 0 -525.94982291 0 6183
0.07650000 0.07648840 26193.90954672 0 1171.60697836 0 8543.04044335 0 960.43006326 0 -134.04931488 0 6330
0.07750000 0.07749960 25895.84256260 0 -156.59921161 0 8540.15056657 0 1257.28462781 0 -1083.44469922 0 6583
0.07850000 0.07848650 25375.88618912 0 -115.23632778 0 8175.76035679 0 1718.17014838 0 -453.13267874 0 6549
0.07950000 0.07947320 25645.38657520 0 -138.10178577 0 7867.72828033 0 1155.17564833 0 -2659.93780816 0 6828
0.08050000 0.08048110 25322.73902999 0 551.19915242 0 7750.05161216 0 -99.40389980 0 -1786.56389879 0 7147
0.08150000 0.08149960 24924.68895276 0 917.96880481 0 7624.96755869 0 -658.50326671 0 -1023.98852941 0 7386
0.08250000 0.08250610 24181.62523418 0 830.40996738 0 7395.67078402 0 372.32242328 0 -850.76200763 0 7227
0.08350000 0.08350160 23639.63493431 0 342.85564524 0 8350.89131845 0 -422.34718681 0 -1568.05156849 0 7798
0.08450000 0.08449610 23222.87262813 0 916.01453948 0 8368.93920790 0 27.32029715 0 -1107.98539995 0 7371
0.08550000 0.08548940 22900.11435967 0 358.92158855 0 8062.00329160 0 557.92448252 0 -679.04685818 0 8256
0.08650000 0.08650700 22430.31561761 0 466.55897981 0 8343.74966894 0 111.77954797 0 124.71977399 0 8037
0.08750000 0.08749060 22357.90261330 0 737.05698237 0 8583.54300754 0 583.69531853 0 961.08333042 0 8155
0.08850000 0.08849210 21815.13725069 0 214.24837801 0 8833.74433146 0 269.83698476 0 1550.83410340 0 8718
0.08950000 0.08949900 21182.02171756 0 893.50782482 0 10147.74140699 0 466.03968778 0 2823.14387598 0 8571
0.09050000 0.09049190 20972.75477849 0 576.89026770 0 9453.05267554 0 1292.28424656 0 2355.63710517 0 8932
0.09150000 0.09150830 20309.63324510 0 -14.92028986 0 9653.67212893 0 1279.78359184 0 4052.42659433 0 9285
0.09250000 0.09250820 20244.19580542 0 400.80597888 0 8805.14451646 0 1033.64802558 0 3389.65937533 0 9204
0.09350000 0.09350330 19840.94173553 0 134.04377872 0 8395.12525610 0 695.53908599 0 2914.78950851 0 9349
0.09450000 0.09448040 19440.56647008 0 375.98182663 0 7896.23951674 0 735.06839283 0 2957.73905648 0 9564
0.09550000 0.09549270 19008.96724865 0 211.54783799 0 7100.41617040 0 629.29225937 0 2008.94047045 0 10155
0.09650000 0.09649430 18827.27039838 0 241.34346407 0 7232.06611250 0 659.67471867 0 1698.69392903 0 9913
0.09750000 0.09749140 18595.08374693 0 273.43770479 0 6503.08639109 0 407.79261584 0 445.28793660 0 10476
0.09850000 0.09850240 18340.42027610 0 185.56552057 0 5948.32970070 0 226.22863346 0 900.49556901 0 10575
0.09950000 0.09950330 17883.79760058 0 611.65515317 0 5354.08910001 0 144.10962921 0 1358.71819547 0 10882
0.10050000 0.10051200 17800.42299470 0 283.92541086 0 5257.20625784 0 715.61431812 0 2142.05195942 0 10875
0.10150000 0.10150300 17206.06059843 0 258.59414614 0 5056.53144283 0 1046.58825160 0 796.69916723 0 11118
0.10250000 0.10250800 17137.74435430 0 235.27583007 0 5329.05457359 0 -15.34325267 0 92.47306736 0 11575
0.10350000 0.10349800 16592.76452673 0 672.55847583 0 5254.67069546 0 -544.68087480 0 804.76757033 0 11364
0.10450000 0.10450100 16312.85615531 0 580.63160626 0 5810.85571575 0 -1062.46485816 0 413.80599545 0 12093
0.10550000 0.10551000 15897.42252812 0 169.11647482 0 6305.63362259 0 -182.24382312 0 1561.59640312 0 12067
0.10650000 0.10649700 16011.68892024 0 69.06606197 0 5701.08468750 0 665.08133488 0 478.51044722 0 12054
0.10750000 0.10749900 15697.45634189 0 74.94745946 0 5276.98142997 0 1054.91463986 0 948.26711444 0 12807
0.10850000 0.10850100 15949.13028502 0 284.14685736 0 5618.14190228 0 643.58109455 0 524.95109921 0 12736
0.10950000 0.10950300 15579.64680582 0 291.06816760 0 5136.46255569 0 303.29976483 0 1373.48867678 0 12933
0.11050000 0.11050200 15447.00035449 0 11.04732351 0 5343.58146375 0 -96.54879012 0 1987.63731749 0 13428
0.11150000 0.11150900 15631.35456272 0 -142.17750853 0 5011.96533543 0 228.29251481 0 1843.04382769 0 13453
0.11250000 0.11250000 15923.11032170 0 -405.53164711 0 5674.61075886 0 487.13578826 0 1526.56356740 0 13668
0.11350000 0.11349100 16133.26304675 0 89.34225679 0 5409.84932779 0 359.82951919 0 1572.71301724 0 13791
0.11450000 0.11448600 15877.38162019 0 363.78012468 0 5039.72365375 0 -202.84056175 0 1294.72015802 0 14205
0.11550000 0.11549300 15415.22278226 0 514.18547779 0 5248.87986958 0 -16.87455519 0 623.30656057 0 14776
0.11650000 0.11649800 15160.11641844 0 360.27351941 0 5052.91079261 0 -35.03405368 0 662.85247590 0 14553
0.11750000 0.11747300 14853.74519071 0 318.91838622 0 4734.45965850 0 -28.10410702 0 -273.17418346 0 14568
0.11850000 0.11849100 14512.49613980 0 235.75415450 0 4353.72669729 0 -90.88130994 0 -876.78861434 0 16015
0.11950000 0.11950300 14239.67405627 0 353.78956600 0 4118.55051814 0 213.07028265 0 -493.00965657 0 15270
0.12050000 0.12050700 13950.68637850 0 107.76505516 0 4059.96684753 0 483.51845974 0 -696.23110629 0 15999
0.12150000 0.12150000 13842.28831853 0 113.61533943 0 3870.01004294 0 880.47902021 0 -734.20142979 0 15670
0.12250000 0.12250700 13758.80298939 0 14.74900100 0 3569.66215991 0 629.92559635 0 -1501.10829264 0 16887
0.12350000 0.12352200 13676.53561599 0 281.74527010 0 3533.31171753 0 -104.35234321 0 -797.64474377 0 16407
0.12450000 0.12449800 13618.84880369 0 255.69208980 0 3916.30343300 0 -934.70905270 0 -500.62741605 0 16306
0.12550000 0.12549900 13324.43568676 0 260.61152372 0 4133.35421642 0 -333.54271284 0 268.74082460 0 17523
0.12650000 0.12650100 13136.20616484 0 105.35638162 0 4069.99837381 0 206.76016473 0 35.29115306 0 17154
0.12750000 0.12750600 13153.92188455 0 33.24675901 0 3896.63898413 0 656.45820831 0 -670.29861434 0 18007
0.12850000 0.12850300 13046.96322680 0 117.66116692 0 3508.97474758 0 384.79761165 0 -737.46333669 0 17496
0.12950000 0.12949900 13002.34175778 0 240.81642141 0 3563.21806686 0 443.06129208 0 -909.72213728 0 18405
0.13050000 0.13049000 12470.64871999 0 293.31584954 0 3105.95319650 0 -155.92490703 0 -123.54389309 0 18100
0.13150000 0.13148800 12586.24379110 0 305.53637444 0 3571.22335771 0 -258.35055499 0 -236.63551156 0 19059
0.13250000 0.13249300 12348.96387024 0 147.70592031 0 3776.52640449 0 195.15969002 0 197.92666399 0 18957
0.13350000 0.13349100 12206.35232657 0 108.75469956 0 3971.05607923 0 480.62193957 0 722.55777302 0 19468
0.13450000 0.13450700 12174.46403109 0 163.97448717 0 3809.53300478 0 352.25937071 0 954.32589058 0 19953
0.13550000 0.13551000 12204.35930810 0 72.79987134 0 3975.82825123 0 631.83335792 0 1759.85745133 0 19956
0.13650000 0.13649900 11936.63049399 0 282.09737003 0 3977.44481065 0 286.66913295 0 2078.53003193 0 19723
0.13750000 0.13749600 11742.64336317 0 96.50361504 0 3754.06065744 0 405.69773198 0 2562.03631211 0 20946
0.13850000 0.13851100 11700.01491262 0 287.44751738 0 3690.61623623 0 75.18761819 0 1634.71803622 0 20955
0.13950000 0.13949800 11310.71197199 0 175.10549531 0 3914.58722266 0 -4.18401010 0 1556.13774699 0 20506
0.14050000 0.14048300 11207.96079767 0 193.79115067 0 3665.71457771 0 -510.04442831 0 455.99598194 0 21447
0.14150000 0.14148400 10948.69123972 0 329.88109502 0 3420.17470253 0 -266.81313285 0 1276.58368997 0 21771
0.14250000 0.14249400 10881.23863693 0 115.12228284 0 3149.52279466 0 -20.39533304 0 214.97361528 0 22470
0.14350000 0.14350900 10842.05367939 0 -60.88538550 0 3368.52230725 0 181.07347839 0 -96.69040516 0 22519
0.14450000 0.14449900 10934.37472373 0 17.81935667 0 3024.48303049 0 57.34235228 0 -829.31159275 0 22218
0.14550000 0.14550500 10573.01833095 0 262.03210300 0 2973.26245588 0 -265.67379063 0 -647.89376507 0 23559
0.14650000 0.14650700 10609.41306263 0 317.22432052 0 3076.40116156 0 -357.56965769 0 -991.59865762 0 23044
0.14750000 0.14750500 10300.11874114 0 250.07842112 0 3296.48576198 0 -190.08413632 0 -866.49024503 0 23649
0.14850000 0.14849900 10132.56124966 0 70.37735740 0 3327.13395708 0 -297.09815570 0 -909.58151876 0 23640
0.14950000 0.14949500 10172.18910019 0 54.91474506 0 3703.85873671 0 263.33863732 0 -829.84527881 0 24457
0.15050000 0.15050000 10125.62997433 0 17.36982028 0 3542.72319362 0 403.95051913 0 -496.75320959 0 24591
0.15150000 0.15149900 10185.75269809 0 34.48663794 0 3216.02317752 0 665.88961459 0 -691.16551769 0 25020
0.15250000 0.15250500 10040.10733743 0 -10.94716326 0 3045.75296646 0 624.47911977 0 -191.85792276 0 25297
0.15350000 0.15350100 10004.55410244 0 140.14352246 0 2642.04493125 0 605.22988307 0 -395.11037499 0 25452
0.15450000 0.15450400 9905.57859088 0 161.86078036 0 2774.34814051 0 267.45200599 0 -240.40120923 0 26061
0.15550000 0.15549900 9649.53107945 0 203.82710589 0 2228.62646717 0 204.98637830 0 87.30528120 0 26128
0.15650000 0.15649500 9544.86439294 0 197.86465897 0 2523.40497082 0 -37.77080021 0 193.46451709 0 26331
0.15750000 0.15749700 9494.13100062 0 105.13316356 0 2339.92547625 0 64.02627188 0 317.69267986 0 27345
0.15850000 0.15849900 9505.17010846 0 -84.38783433 0 2416.95564001 0 315.24569607 0 269.79601716 0 26980
0.15950000 0.15949700 9492.97947884 0 -71.92460407 0 2087.16644529 0 321.73407842 0 469.34256227 0 27777
0.16050000 0.16050000 9531.31186736 0 186.30072293 0 2166.28927844 0 268.59466992 0 414.83129273 0 28224
0.16150000 0.16150500 9297.45329487 0 162.69895535 0 1881.01082949 0 156.88044866 0 487.69051173 0 28075
0.16250000 0.16249700 9139.01939904 0 283.57995433 0 2018.58446536 0 34.63578216 0 620.81418026 0 28590
0.16350000 0.16349900 8902.66955346 0 282.51590391 0 1931.71100484 0 -134.45234751 0 580.28725696 0 29163
0.16450000 0.16449100 8814.67778812 0 72.64939845 0 1989.35352784 0 -107.60683164 0 483.09217523 0 28996
0.16550000 0.16550500 8669.05457211 0 136.38114649 0 2034.11893708 0 -109.23202748 0 300.49403772 0 30777
0.16650000 0.16650700 8625.41854000 0 110.61529302 0 1959.94543312 0 -150.49282447 0 170.66327859 0 29211
0.16750000 0.16749900 8620.35848756 0 2.69090710 0 1963.73216821 0 90.33976253 0 27.27866521 0 30922
0.16850000 0.16850800 8639.17036742 0 -0.90523010 0 2083.20255300 0 -35.26336153 0 196.01668796 0 30867
0.16950000 0.16949900 8620.33634291 0 50.86349214 0 2297.72884637 0 -239.70918893 0 -422.86647885 0 30852
0.17050000 0.17049200 8544.80094299 0 229.05539799 0 2385.94205820 0 -307.31237534 0 73.35669856 0 31257
0.17150000 0.17149500 8412.96277138 0 185.95748086 0 2433.17659587 0 -46.59223211 0 -173.91300593 0 32608
0.17250000 0.17250900 8313.83224728 0 117.02340101 0 2601.68630729 0 -139.47032511 0 -119.24893830 0 32361
0.17350000 0.17350400 8358.65301814 0 92.64103453 0 2564.18434313 0 87.16244820 0 -346.44861465 0 32508
0.17450000 0.17449800 8190.80764622 0 191.22237132 0 2719.97195332 0 -14.62820193 0 -113.77145921 0 32791
0.17550000 0.17549800 8113.19064924 0 123.25158372 0 2566.57596529 0 88.47186134 0 -164.37419810 0 33633
0.17650000 0.17650100 8002.03558038 0 94.79327302 0 2579.78524880 0 378.62479057 0 173.44243212 0 33984
0.17750000 0.17750300 7896.79313298 0 138.42731212 0 2502.26790274 0 276.68743213 0 284.12692717 0 34069
0.17850000 0.17849800 7825.69773532 0 72.58717198 0 2349.71341139 0 388.69174829 0 247.35684368 0 34536
