### header ###
fiducial parameters:
Omega_m = 0.31
Omega_nu = 0
Omega_de = 0.69
Omega_k = 0
H_0 = 100
w_de = -1
zeff = 0
beta = 0
fgrowth = 0
b_1 = 2
gamma = 0.55
Lx = 3500 Ly = 3500 Lz = 3500
nx = 700 ny = 700 nz = 700
xoffset = -685.467585 yoffset = -31.7331281 zoffset = 572.489161
bins = 400 dk = 0.001
kx_ny = 0.628318531 ky_ny = 0.628318531 kz_ny = 0.628318531
############################
A(data) = 8.02802463 (not used)
A(ran) = 8.02406563 (used)
Ngal = 476891
weighted Ngal = 0
Nran = 23820508
weighted Nran = 0
SN(data) = 3493.72899
SN(ran) = 69.8925217
SN(data+ran) = 3563.62151
############################
13 columns: k_central k_mean P_0(k) sigma^{lin}_{P_0(k)} P^img_1(k) sigma^{lin}_{P_1(k)} P_2(k) sigma^{lin}_{P_2(k)} P^img_3(k) sigma^{lin}_{P_3(k)} P_4(k) sigma^{lin}_{P_4(k)} N_modes
### header ###
0.00050000 0 0 0 0 0 0 0 0 0 0 0 0
0.00150000 0.00179520 19522.72312024 0 -21450.52559441 0 -1444.21868772 0 61222.31634299 0 -36983.22574300 0 3
0.00250000 0.00253879 42381.98060133 0 -27677.15817943 0 8742.76303843 0 -14931.69435743 0 49784.60480533 0 6
0.00350000 0.00331552 50317.18362910 0 -21604.32018614 0 -337.70258527 0 -34822.90444764 0 -14166.26454272 0 7
0.00450000 0.00420575 64560.51155256 0 -8321.64930860 0 -2648.67725382 0 -16046.12385043 0 13497.60684692 0 24
0.00550000 0.00557378 65978.54419209 0 -1738.62073232 0 3483.74091931 0 -12103.04753601 0 15095.34331825 0 45
0.00650000 0.00659388 83816.39164467 0 1984.57028352 0 25137.49903577 0 -13009.20659917 0 -13529.05224941 0 40
0.00750000 0.00754703 69452.15393419 0 -3164.47043317 0 -71.01091582 0 26221.36891227 0 20229.91250640 0 57
0.00850000 0.00846663 81935.09293473 0 -13848.71026692 0 -4541.45796459 0 17483.09016539 0 -7341.79285145 0 75
0.00950000 0.00948925 86733.39561814 0 -7413.10969561 0 -23519.83237977 0 9026.29206006 0 -14933.24448291 0 112
0.01050000 0.01054430 96471.72674264 0 -1999.35183715 0 -4927.43920777 0 -12738.15608761 0 -5832.22530265 0 105
0.01150000 0.01145670 97833.62269533 0 968.80516975 0 -4778.35035409 0 -35283.73460659 0 -10264.79802497 0 144
0.01250000 0.01249090 84361.03930250 0 11705.99396802 0 20286.71353272 0 -27601.53420091 0 8962.77013257 0 169
0.01350000 0.01339930 91749.49093073 0 -217.20136704 0 30151.37988340 0 423.84305790 0 -18335.32700669 0 180
0.01450000 0.01448870 87548.42944804 0 -4377.20002591 0 28278.93903332 0 28395.64133691 0 4585.08292438 0 267
0.01550000 0.01550050 87134.98883932 0 -2221.41838372 0 26273.18739242 0 37488.23447798 0 25791.76270931 0 238
0.01650000 0.01653350 99232.27876642 0 -4823.82439212 0 6919.74904634 0 23279.23076146 0 6996.71277615 0 315
0.01750000 0.01747870 93298.50917286 0 1142.76357221 0 7344.41699243 0 11164.77873088 0 19574.09870740 0 297
0.01850000 0.01844180 93337.26230973 0 8717.55135482 0 2070.27007762 0 338.17094461 0 11943.93822837 0 388
0.01950000 0.01947590 86305.00737091 0 8116.88880573 0 4942.67472672 0 -20970.98320652 0 19092.12040804 0 399
0.02050000 0.02045430 76595.46429094 0 10089.41239985 0 17019.82409498 0 -12332.57682950 0 17066.99219871 0 462
0.02150000 0.02154770 69905.45491227 0 6186.38468430 0 20207.43568702 0 -15620.50368440 0 14539.62333561 0 571
0.02250000 0.02255340 69585.02183202 0 1103.97057497 0 29255.40735908 0 1888.22998527 0 17260.42571329 0 510
0.02350000 0.02348930 66550.87266196 0 1245.27115538 0 29869.03560052 0 1700.48764565 0 9146.61501386 0 555
0.02450000 0.02439640 65408.87308017 0 6027.06500248 0 40488.94522708 0 5068.48955363 0 5134.77956232 0 592
0.02550000 0.02547300 58670.03474904 0 5994.74488634 0 33421.70174184 0 7209.74430566 0 6448.46661276 0 837
0.02650000 0.02652900 58427.55083551 0 -358.04355320 0 36020.26565352 0 2085.48345192 0 7267.86293863 0 723
0.02750000 0.02749970 56910.08871912 0 -2538.80657464 0 34640.10036488 0 1808.17707683 0 2259.00892647 0 826
0.02850000 0.02848090 62493.19778567 0 -2874.46410152 0 34555.39708002 0 -660.63358200 0 6545.16122540 0 831
0.02950000 0.02946900 63517.72000114 0 1109.80126122 0 31658.98763071 0 2477.93093279 0 2346.40278627 0 996
0.03050000 0.03053250 62068.79557537 0 1511.62700122 0 24170.22073962 0 4050.32285261 0 -512.58331239 0 1041
0.03150000 0.03150510 61358.61666151 0 522.00807527 0 23496.69122090 0 4600.61739610 0 4774.04321973 0 1036
0.03250000 0.03246190 61251.99017350 0 2075.62908283 0 19605.87627963 0 8499.33797729 0 -4014.73640064 0 1059
0.03350000 0.03345080 54663.62473666 0 3570.07183593 0 20128.26856457 0 1184.48409212 0 -363.34830402 0 1302
0.03450000 0.03451200 53038.87179278 0 4718.28299194 0 17616.95457245 0 3884.83588587 0 -3509.89375054 0 1339
0.03550000 0.03553350 49425.52931146 0 1529.15449140 0 18697.39202826 0 3498.07957995 0 6343.97708344 0 1365
0.03650000 0.03647120 49196.22146446 0 2912.36466937 0 18067.48746932 0 3244.14688256 0 4669.16615905 0 1308
0.03750000 0.03744890 48953.07321145 0 -461.64065313 0 19804.29234038 0 2988.03293718 0 5618.97232664 0 1579
0.03850000 0.03847530 48426.14127333 0 -133.53445178 0 16739.91572357 0 4854.73832301 0 5225.28474539 0 1662
0.03950000 0.03950240 48673.16484003 0 1447.50716819 0 17686.37804906 0 -2812.07155117 0 8930.89290942 0 1683
0.04050000 0.04050350 47053.39444231 0 2553.01236738 0 18697.28130501 0 612.71034572 0 11293.99276152 0 1822
0.04150000 0.04152450 46683.24662362 0 286.01697302 0 19720.36411825 0 -352.85284732 0 7679.57626469 0 1887
0.04250000 0.04250150 44912.56043863 0 1450.10916452 0 18179.31794999 0 2623.07803884 0 8163.65830576 0 1920
0.04350000 0.04349210 43301.20500777 0 1923.35139960 0 19094.77776600 0 1767.27590895 0 5034.69681829 0 2005
0.04450000 0.04448520 42641.62661832 0 1424.95284254 0 16718.21396692 0 1849.36612516 0 2026.35723739 0 2151
0.04550000 0.04548030 41365.76262947 0 158.36192572 0 16124.62663339 0 1511.32804845 0 -1661.51306229 0 2274
0.04650000 0.04648670 40710.28100021 0 389.45130978 0 13968.06992847 0 2692.77832357 0 836.16536182 0 2311
0.04750000 0.04749250 39783.63813613 0 607.45984929 0 13404.26714870 0 1719.90850338 0 -3298.03588746 0 2568
0.04850000 0.04851840 40026.23277291 0 1482.58429322 0 11787.92917168 0 1468.07954770 0 -4507.10054068 0 2493
0.04950000 0.04949480 37294.46879365 0 1430.22326915 0 11114.06748321 0 -329.46256114 0 -3274.07537655 0 2644
0.05050000 0.05050630 36536.67888307 0 1526.75179692 0 9017.10203046 0 251.42038689 0 -4322.75740477 0 2829
0.05150000 0.05149060 36226.87523464 0 -265.43130671 0 10494.27195684 0 -86.98263365 0 -3576.30555480 0 2784
0.05250000 0.05249300 35918.51098844 0 487.59971867 0 11242.72789761 0 -1362.07310989 0 -5147.51273586 0 3055
0.05350000 0.05348950 35052.65518762 0 2704.14960116 0 13870.85491656 0 -2213.91134749 0 -1031.56089236 0 3009
0.05450000 0.05448610 34276.81738758 0 2121.41314595 0 14876.44345659 0 -2804.01089870 0 -455.44790186 0 3336
0.05550000 0.05550870 32054.26962673 0 405.90035553 0 16023.75775430 0 207.79985603 0 1974.63840816 0 3349
0.05650000 0.05647670 33610.48487999 0 360.47282126 0 19117.14386213 0 63.35174585 0 2549.15919835 0 3324
0.05750000 0.05747970 33432.77406665 0 -742.69279570 0 18057.41165374 0 3314.12397542 0 4109.27190994 0 3639
0.05850000 0.05849280 34617.95571524 0 -1406.96031471 0 15380.12351259 0 4862.85433710 0 3428.82218821 0 3846
0.05950000 0.05951020 34097.33500227 0 -50.78399284 0 14573.50464955 0 3327.55470542 0 2318.05763473 0 3787
0.06050000 0.06049470 34401.38104179 0 425.78292920 0 11953.46042771 0 3621.55814633 0 1959.73505895 0 3930
0.06150000 0.06148310 33973.10351780 0 386.61790186 0 11878.83295844 0 2738.08627673 0 224.08613861 0 4083
0.06250000 0.06249100 32408.69474418 0 926.48452983 0 8258.66992503 0 1010.90547041 0 1375.53705687 0 4303
0.06350000 0.06350600 31363.79945104 0 849.01147307 0 7555.32263558 0 1969.05795645 0 684.00947416 0 4470
0.06450000 0.06451750 30826.90242059 0 384.97144715 0 7533.60980661 0 10.54796166 0 1703.25572685 0 4479
0.06550000 0.06550280 30607.22749618 0 83.61830775 0 8187.17592368 0 641.14075416 0 -2229.93300150 0 4636
0.06650000 0.06648880 30500.93317793 0 1080.98221418 0 8660.71711152 0 -2402.14086941 0 230.94544383 0 4653
0.06750000 0.06749660 28943.49996893 0 1704.39617631 0 8605.83159740 0 -1443.95295192 0 1502.71377974 0 5220
0.06850000 0.06852730 28511.01496152 0 315.88567645 0 10132.69411756 0 -1156.37145941 0 1438.09569210 0 5029
0.06950000 0.06949320 28449.12066578 0 59.57043620 0 9334.41271511 0 1108.70510107 0 2825.52442582 0 5040
0.07050000 0.07048030 28955.23663324 0 -204.59773970 0 9116.21040991 0 1426.27044919 0 1442.56891132 0 5475
0.07150000 0.07148790 28976.05260390 0 500.83114682 0 9690.12222224 0 657.28752544 0 1480.59127475 0 5509
0.07250000 0.07249820 28848.38869874 0 523.15184643 0 9206.18412139 0 -1038.36815766 0 221.02021187 0 5916
0.07350000 0.07351270 28146.62475174 0 1083.14021029 0 10671.81668531 0 -1373.03471146 0 517.83934498 0 5721
0.07450000 0.07449140 27312.98941614 0 873.42484206 0 11058.30725543 0 -1261.73570238 0 1349.17385148 0 6028
0.07550000 0.07549160 26390.44331225 0 602.35107862 0 11982.58064199 0 891.18817277 0 1211.17946726 0 6183
0.07650000 0.07648840 26713.86592020 0 520.83662331 0 13528.60935641 0 603.60778749 0 532.87113315 0 6330
0.07750000 0.07749960 25719.23898174 0 1216.36131528 0 12141.24705664 0 1957.22164122 0 530.93679801 0 6583
0.07850000 0.07848650 24868.10937294 0 978.25097005 0 12983.62952884 0 747.82592548 0 3081.27298448 0 6549
0.07950000 0.07947320 24066.25160957 0 305.13112735 0 11820.14963690 0 1336.89464325 0 3354.64868425 0 6828
0.08050000 0.08048110 24101.01870950 0 -291.08145439 0 11701.12214510 0 1150.60277818 0 3710.44676998 0 7147
0.08150000 0.08149960 24542.14013027 0 -210.47935864 0 11751.39049977 0 1161.70831997 0 2391.07961691 0 7386
0.08250000 0.08250610 23903.37771149 0 286.19413021 0 10564.52585781 0 400.15824788 0 3390.98805431 0 7227
0.08350000 0.08350160 23557.58900740 0 892.99628341 0 11316.02668790 0 478.46615792 0 3776.53747682 0 7798
0.08450000 0.08449610 22649.99054202 0 1310.13283417 0 10659.01707782 0 1496.73472433 0 3200.74336928 0 7371
0.08550000 0.08548940 21957.85951760 0 630.63311791 0 10760.12954806 0 666.84626346 0 3176.45068862 0 8256
0.08650000 0.08650700 21046.82863152 0 362.96077265 0 9413.00407667 0 670.68060954 0 2483.02420221 0 8037
0.08750000 0.08749060 21235.61176968 0 -25.82985151 0 9011.10083041 0 1105.23282000 0 3334.92887375 0 8155
0.08850000 0.08849210 20723.73819332 0 -158.04525723 0 8256.00149475 0 850.12424172 0 1221.69817584 0 8718
0.08950000 0.08949900 21165.52395358 0 174.91615856 0 7413.75189045 0 1036.79367307 0 832.66318548 0 8571
0.09050000 0.09049190 20676.57008959 0 124.44075140 0 6501.83521838 0 437.56499004 0 -181.12662555 0 8932
0.09150000 0.09150830 20289.81378367 0 727.98874834 0 5737.45727453 0 359.04892029 0 -548.32588413 0 9285
0.09250000 0.09250820 20027.73185522 0 412.35219920 0 5575.46916243 0 -293.00250275 0 -703.48680075 0 9204
0.09350000 0.09350330 19527.70566641 0 558.43048776 0 5935.04291091 0 -307.99443055 0 -609.33439388 0 9349
0.09450000 0.09448040 19198.96834254 0 275.70310245 0 6204.37721213 0 -374.93217024 0 9.55126420 0 9564
0.09550000 0.09549270 19617.05932769 0 -122.55513449 0 6581.50059545 0 -226.29285295 0 752.83061630 0 10155
0.09650000 0.09649430 19575.09521663 0 -63.05013572 0 7474.95970204 0 398.97793805 0 918.22125382 0 9913
0.09750000 0.09749140 19518.29419031 0 505.58560310 0 7158.55694802 0 246.19424958 0 692.97362833 0 10476
0.09850000 0.09850240 18863.91979353 0 617.13706118 0 7285.33506720 0 1164.60926907 0 2526.08447343 0 10575
0.09950000 0.09950330 18437.08167177 0 503.57597615 0 6398.74080199 0 1245.70297605 0 1825.20631240 0 10882
0.10050000 0.10051200 17633.12016669 0 130.81065987 0 5770.45280249 0 1983.73985916 0 1781.01666405 0 10875
0.10150000 0.10150300 17369.70955925 0 573.83541328 0 4879.91678965 0 893.58422386 0 2020.62177313 0 11118
0.10250000 0.10250800 16766.60002638 0 541.62491315 0 4544.71322809 0 75.80645042 0 1254.48332963 0 11575
0.10350000 0.10349800 16230.92095165 0 441.12031354 0 4388.34985700 0 -50.08256107 0 1267.93620428 0 11364
0.10450000 0.10450100 15952.56270571 0 357.07472477 0 5009.27476050 0 -665.43897097 0 1433.38995405 0 12093
0.10550000 0.10551000 16015.12134094 0 314.86370087 0 5528.48928822 0 -490.73318659 0 1610.64680207 0 12067
0.10650000 0.10649700 15776.95563409 0 243.23129545 0 5776.47614719 0 -32.32377001 0 1443.74257775 0 12054
0.10750000 0.10749900 15623.82538185 0 185.19681215 0 5721.02594450 0 43.80045613 0 1829.70167628 0 12807
0.10850000 0.10850100 15615.52113823 0 12.10127596 0 6112.60978403 0 471.62346119 0 1371.66174318 0 12736
0.10950000 0.10950300 15618.39994269 0 67.61115849 0 5456.24236878 0 692.28714419 0 1608.88630242 0 12933
0.11050000 0.11050200 15407.80432464 0 -38.57166146 0 5026.70259977 0 511.05311710 0 1494.05522173 0 13428
0.11150000 0.11150900 15693.13813521 0 -118.34543659 0 4690.54681827 0 548.41889166 0 565.56106495 0 13453
0.11250000 0.11250000 15643.31267353 0 -107.88917593 0 4714.19730409 0 172.05839152 0 163.16067130 0 13668
0.11350000 0.11349100 15700.22442310 0 222.63455683 0 4645.07278024 0 -543.85930830 0 133.23992794 0 13791
0.11450000 0.11448600 15316.78981463 0 692.09448574 0 4928.20319818 0 -774.96419361 0 731.47985235 0 14205
0.11550000 0.11549300 15033.00612952 0 560.45672321 0 4979.30197722 0 4.83429881 0 528.32926551 0 14776
0.11650000 0.11649800 14568.18993364 0 165.22012371 0 4799.79744726 0 262.57132521 0 142.53846632 0 14553
0.11750000 0.11747300 14383.61427891 0 205.19343077 0 4809.17570638 0 1092.08221982 0 415.01287885 0 14568
0.11850000 0.11849100 14155.52438765 0 152.53899010 0 4479.43080096 0 671.84763258 0 553.69153274 0 16015
0.11950000 0.11950300 13958.99062212 0 158.10172609 0 4005.02597178 0 441.53109679 0 384.97809055 0 15270
0.12050000 0.12050700 13815.82546221 0 103.06186375 0 3925.09485891 0 187.30498279 0 343.98280791 0 15999
0.12150000 0.12150000 13595.04330533 0 207.47765138 0 3765.57587525 0 -13.49184924 0 713.94682600 0 15670
0.12250000 0.12250700 13470.81182086 0 45.24240499 0 3817.84832072 0 -45.17707828 0 795.29298198 0 16887
0.12350000 0.12352200 13413.56790155 0 -38.77539224 0 3855.67138230 0 458.90911060 0 327.17723330 0 16407
0.12450000 0.12449800 13565.14802832 0 152.17581784 0 3532.34842527 0 301.59794850 0 49.19378555 0 16306
0.12550000 0.12549900 13461.17889827 0 138.89345699 0 3467.74140995 0 1.09803581 0 -7.69639513 0 17523
0.12650000 0.12650100 13371.49306724 0 54.31927543 0 3054.20115030 0 -142.54510972 0 -71.63052312 0 17154
0.12750000 0.12750600 13328.64317019 0 200.00715383 0 3455.31826151 0 -254.83952079 0 -725.72667238 0 18007
0.12850000 0.12850300 13021.05398673 0 230.18256065 0 3443.50409092 0 -371.57061243 0 -689.03298793 0 17496
0.12950000 0.12949900 13064.01460702 0 244.09272232 0 3433.21790117 0 -87.98567556 0 -853.71499665 0 18405
0.13050000 0.13049000 12686.66977720 0 189.84829581 0 3389.52650743 0 181.89393766 0 -565.15249616 0 18100
0.13150000 0.13148800 12820.42346101 0 68.88325789 0 3499.65185008 0 403.11788030 0 -778.22277881 0 19059
0.13250000 0.13249300 12551.25524467 0 118.27900264 0 3215.40312733 0 588.35676728 0 -698.30052380 0 18957
0.13350000 0.13349100 12504.08714095 0 226.49879819 0 3488.69024851 0 163.89808813 0 -352.69894201 0 19468
0.13450000 0.13450700 12243.00172172 0 238.44251497 0 3104.42521568 0 88.68345347 0 100.11330365 0 19953
0.13550000 0.13551000 12346.52795878 0 136.27595940 0 3417.38447668 0 232.53210798 0 227.99577650 0 19956
0.13650000 0.13649900 12154.53384642 0 -134.87641755 0 3002.73698454 0 405.44196128 0 237.02636463 0 19723
0.13750000 0.13749600 12225.95034150 0 15.97492880 0 3265.21751669 0 170.33996671 0 370.34933500 0 20946
0.13850000 0.13851100 12275.11146370 0 75.54602934 0 2892.43448470 0 122.56731404 0 73.99778617 0 20955
0.13950000 0.13949800 12108.91586817 0 197.93884355 0 2989.68271358 0 -35.54758811 0 443.30709769 0 20506
0.14050000 0.14048300 11872.63245654 0 384.58502302 0 2693.85233908 0 34.71672085 0 304.87646388 0 21447
0.14150000 0.14148400 11582.09465330 0 286.41557671 0 2524.97724094 0 410.92719099 0 275.43736665 0 21771
0.14250000 0.14249400 11316.91247389 0 104.70045710 0 2466.37142568 0 243.51917590 0 273.48974472 0 22470
0.14350000 0.14350900 11150.16326212 0 248.71209624 0 2508.85593601 0 -15.90340158 0 -213.98264221 0 22519
0.14450000 0.14449900 11045.87303465 0 303.67733110 0 2670.78868648 0 -271.68384854 0 189.78407632 0 22218
0.14550000 0.14550500 10851.95233778 0 72.61562786 0 2468.17621462 0 11.85104142 0 381.24671709 0 23559
0.14650000 0.14650700 10841.69936500 0 76.27027011 0 3104.12626291 0 -195.35124124 0 757.44445405 0 23044
0.14750000 0.14750500 10870.47633720 0 73.83480154 0 3031.29251025 0 40.35054117 0 35.41139851 0 23649
0.14850000 0.14849900 10764.24845289 0 285.54750645 0 3453.79028068 0 -244.97961554 0 173.04936459 0 23640
0.14950000 0.14949500 10479.63434343 0 310.12253138 0 3221.08322997 0 -198.61204090 0 100.74996233 0 24457
0.15050000 0.15050000 10189.37334831 0 273.62039815 0 3306.57264989 0 228.07881894 0 475.12674476 0 24591
0.15150000 0.15149900 10073.19144399 0 162.33689033 0 3006.13618826 0 306.68900345 0 352.36234333 0 25020
0.15250000 0.15250500 9865.57428131 0 157.66104756 0 2915.86352402 0 581.04571121 0 416.92285488 0 25297
0.15350000 0.15350100 9764.35108782 0 135.04471688 0 2423.79833675 0 378.62589780 0 447.16358843 0 25452
0.15450000 0.15450400 9615.08507694 0 -52.51725457 0 2381.33597107 0 651.22874930 0 434.05395584 0 26061
0.15550000 0.15549900 9600.94571815 0 -0.74908596 0 2089.69093535 0 449.61832284 0 420.11611336 0 26128
0.15650000 0.15649500 9789.03129984 0 -32.68096321 0 1985.48928648 0 180.48443071 0 247.66576154 0 26331
0.15750000 0.15749700 9657.21527287 0 117.88150618 0 1989.46425109 0 -272.17213806 0 479.04966944 0 27345
0.15850000 0.15849900 9637.82763212 0 249.71524887 0 2031.64980865 0 -280.31694020 0 206.73469839 0 26980
0.15950000 0.15949700 9247.91571363 0 366.85380205 0 2177.67162836 0 -306.05677371 0 328.06634098 0 27777
0.16050000 0.16050000 9033.54443281 0 298.15113379 0 2212.13977552 0 131.04650039 0 295.36201516 0 28224
0.16150000 0.16150500 8798.87758061 0 13.32842172 0 2209.37169431 0 283.00308620 0 205.68725646 0 28075
0.16250000 0.16249700 8972.86809281 0 -36.52150980 0 2121.49065223 0 198.16361174 0 -430.29600880 0 28590
0.16350000 0.16349900 8772.29292872 0 154.04371904 0 2059.55206719 0 -130.85937810 0 -444.18070412 0 29163
0.16450000 0.16449100 8803.07399171 0 211.21456101 0 2191.34594951 0 -432.54147627 0 -118.31221962 0 28996
0.16550000 0.16550500 8645.00548260 0 -38.28234161 0 2167.71760834 0 -333.97453350 0 -85.44014808 0 30777
0.16650000 0.16650700 8712.49130237 0 48.84124273 0 2397.57907158 0 54.43099519 0 4.87688297 0 29211
0.16750000 0.16749900 8753.35925328 0 77.61378600 0 2349.72448371 0 134.93842256 0 -303.24883213 0 30922
0.16850000 0.16850800 8682.00919215 0 166.53219420 0 2434.01809256 0 230.02976257 0 144.02880124 0 30867
0.16950000 0.16949900 8524.93719227 0 86.94819872 0 2126.71678954 0 237.84571666 0 9.49459604 0 30852
0.17050000 0.17049200 8480.76968857 0 36.89243268 0 2169.56668659 0 328.83033139 0 39.08298142 0 31257
0.17150000 0.17149500 8502.21678174 0 77.11154535 0 1992.97417806 0 -6.71878635 0 -267.04897337 0 32608
0.17250000 0.17250900 8277.79182999 0 139.86560711 0 2125.22202569 0 2.64981770 0 -167.15445886 0 32361
0.17350000 0.17350400 8236.39240750 0 222.35553424 0 2061.14648197 0 -119.22679365 0 250.69293515 0 32508
0.17450000 0.17449800 8105.65039604 0 147.03272296 0 2239.38876690 0 147.01168555 0 403.34818466 0 32791
0.17550000 0.17549800 8064.82673443 0 83.41369119 0 2015.00810445 0 280.06227673 0 683.42374818 0 33633
0.17650000 0.17650100 7933.15464769 0 117.45854337 0 1973.74154985 0 448.67163907 0 819.99201695 0 33984
0.17750000 0.17750300 7910.37887554 0 66.98191827 0 2175.91112871 0 314.51602987 0 1006.35917384 0 34069
0.17850000 0.17849800 7903.48081717 0 58.79072309 0 2149.59221262 0 79.37971109 0 1290.57910854 0 34536
