### header ###
fiducial parameters:
Omega_m = 0.31
Omega_nu = 0
Omega_de = 0.69
Omega_k = 0
H_0 = 100
w_de = -1
zeff = 0
beta = 0
fgrowth = 0
b_1 = 2
gamma = 0.55
Lx = 3500 Ly = 3500 Lz = 3500
nx = 700 ny = 700 nz = 700
xoffset = -685.467585 yoffset = -31.7331281 zoffset = 572.489161
bins = 400 dk = 0.001
kx_ny = 0.628318531 ky_ny = 0.628318531 kz_ny = 0.628318531
############################
A(data) = 8.0876092 (not used)
A(ran) = 8.07815823 (used)
Ngal = 479658
weighted Ngal = 0
Nran = 23820508
weighted Nran = 0
SN(data) = 3503.40752
SN(ran) = 70.3636878
SN(data+ran) = 3573.77121
############################
13 columns: k_central k_mean P_0(k) sigma^{lin}_{P_0(k)} P^img_1(k) sigma^{lin}_{P_1(k)} P_2(k) sigma^{lin}_{P_2(k)} P^img_3(k) sigma^{lin}_{P_3(k)} P_4(k) sigma^{lin}_{P_4(k)} N_modes
### header ###
0.00050000 0 0 0 0 0 0 0 0 0 0 0 0
0.00150000 0.00179520 13446.23125976 0 -17374.91355192 0 -25085.56983237 0 53788.68962949 0 -64221.47696662 0 3
0.00250000 0.00253879 23684.92074281 0 -22001.15230764 0 13128.56626072 0 -9888.01788372 0 10546.61083626 0 6
0.00350000 0.00331552 44099.85179694 0 -20933.11585564 0 -800.88229155 0 28944.49647817 0 7929.62257607 0 7
0.00450000 0.00420575 59643.73499359 0 -11974.49784487 0 18781.76314337 0 15707.53215748 0 -8650.60807896 0 24
0.00550000 0.00557378 67225.06652017 0 2867.73212803 0 4621.57730698 0 34568.13025356 0 666.30814847 0 45
0.00650000 0.00659388 78013.60765371 0 -5227.89781405 0 27088.44266882 0 16534.30265168 0 24980.27202335 0 40
0.00750000 0.00754703 87328.09018415 0 -5532.43103586 0 -756.00615906 0 27132.73196809 0 11354.55837827 0 57
0.00850000 0.00846663 97820.22518230 0 -24324.01533135 0 16128.28050058 0 18958.58817073 0 13379.90803410 0 75
0.00950000 0.00948925 102266.87082947 0 -6211.88424836 0 10947.84974304 0 614.88273585 0 14706.37254737 0 112
0.01050000 0.01054430 115518.67206542 0 8939.58468440 0 32131.11156097 0 9723.93710223 0 9680.62216754 0 105
0.01150000 0.01145670 100642.33933208 0 18509.82684583 0 33664.18565536 0 -6330.35812392 0 36049.05369805 0 144
0.01250000 0.01249090 85534.70573328 0 18431.65623261 0 11911.71776315 0 27162.62724510 0 44472.43552709 0 169
0.01350000 0.01339930 77202.22769100 0 491.31891257 0 13357.87410771 0 35226.49068728 0 49711.74890802 0 180
0.01450000 0.01448870 85638.45341683 0 -14237.57031455 0 3085.60226349 0 28630.48534631 0 18799.70030958 0 267
0.01550000 0.01550050 82216.21926188 0 -3166.20878817 0 10668.98217015 0 2887.50730016 0 31199.70759723 0 238
0.01650000 0.01653350 86056.32295548 0 5559.63573794 0 -7533.78696380 0 -5074.61254926 0 33331.79446431 0 315
0.01750000 0.01747870 82671.62398167 0 -1188.23761024 0 11219.80818523 0 -16977.63853742 0 36297.29522049 0 297
0.01850000 0.01844180 83415.01986999 0 3698.59938242 0 19545.64283261 0 -4724.00738388 0 21177.92495738 0 388
0.01950000 0.01947590 84905.24406734 0 7055.54003791 0 33919.18129594 0 -10362.78809962 0 25886.54180975 0 399
0.02050000 0.02045430 80704.18258465 0 4263.12186330 0 37409.95314151 0 -10493.18686901 0 28553.53268882 0 462
0.02150000 0.02154770 79771.33921867 0 2198.83084109 0 40506.21805380 0 7144.52831248 0 28776.41858742 0 571
0.02250000 0.02255340 78840.93176416 0 1768.46064771 0 41854.60577021 0 15066.88744347 0 -2735.57285899 0 510
0.02350000 0.02348930 76357.07713760 0 475.75676004 0 30488.53217413 0 7028.76715650 0 -2218.65030251 0 555
0.02450000 0.02439640 76816.57861757 0 3187.87732784 0 21900.28342855 0 3228.96672524 0 -8612.10960557 0 592
0.02550000 0.02547300 67033.62602406 0 10200.54532405 0 19249.12597397 0 -1464.94607978 0 -2174.49387113 0 837
0.02650000 0.02652900 63458.81523311 0 630.43824499 0 14994.25299266 0 10765.23388980 0 4077.18431262 0 723
0.02750000 0.02749970 62942.40200357 0 -9832.65625963 0 2161.78284224 0 11840.63343781 0 -8987.83787596 0 826
0.02850000 0.02848090 66615.97793190 0 -3360.99312638 0 4709.03760072 0 12158.51988336 0 -16116.10094328 0 831
0.02950000 0.02946900 70741.96905232 0 -88.13858436 0 1431.35264628 0 -791.40991767 0 -24659.83894310 0 996
0.03050000 0.03053250 65080.68937254 0 5770.20921134 0 -48.44186397 0 -7816.83987547 0 -14420.48512056 0 1041
0.03150000 0.03150510 62636.80583857 0 7097.37128108 0 6253.82621477 0 -12056.76521827 0 -9728.08922404 0 1036
0.03250000 0.03246190 58260.35873075 0 4026.43984798 0 8065.44678462 0 -6728.03174210 0 -8414.54611383 0 1059
0.03350000 0.03345080 56506.39175623 0 3121.75340402 0 12702.72464819 0 -7323.70067270 0 -9225.31709867 0 1302
0.03450000 0.03451200 53945.80591867 0 -3.63203257 0 16389.14447331 0 -2308.32506122 0 -13920.45893175 0 1339
0.03550000 0.03553350 54507.72640322 0 30.75581810 0 20328.56692054 0 630.67408551 0 -10419.85486173 0 1365
0.03650000 0.03647120 56291.58865475 0 696.55441818 0 17411.00933082 0 4770.40042487 0 -10718.71905324 0 1308
0.03750000 0.03744890 53539.34087458 0 -63.81578699 0 16867.91179847 0 2952.83401659 0 -7862.69037254 0 1579
0.03850000 0.03847530 54070.48029613 0 1260.88313337 0 15178.38575439 0 3694.53583921 0 -3125.81694723 0 1662
0.03950000 0.03950240 53061.79150515 0 2628.53669497 0 17753.14416772 0 -543.20493391 0 -1475.52014998 0 1683
0.04050000 0.04050350 52200.80752725 0 2598.90715376 0 17123.46105528 0 911.19032756 0 4973.51115134 0 1822
0.04150000 0.04152450 48548.15829283 0 431.47964032 0 19933.06347802 0 -3785.77179572 0 4419.16413697 0 1887
0.04250000 0.04250150 48424.81259435 0 1230.84391614 0 21717.59006904 0 2031.71624260 0 7865.77955117 0 1920
0.04350000 0.04349210 49307.71977539 0 -115.29611834 0 24231.22924937 0 1954.16567957 0 3145.74713190 0 2005
0.04450000 0.04448520 46664.75584118 0 727.78501756 0 21182.90750355 0 2699.87568378 0 4679.43020416 0 2151
0.04550000 0.04548030 48557.90193867 0 2339.72617440 0 18562.19894222 0 6630.50670510 0 2605.88271839 0 2274
0.04650000 0.04648670 44691.44611200 0 422.86094268 0 16338.10105590 0 4916.73226967 0 4822.66179801 0 2311
0.04750000 0.04749250 43778.31148420 0 1917.54950139 0 12632.52610884 0 5176.72152874 0 710.21877424 0 2568
0.04850000 0.04851840 41803.78379930 0 1859.22049425 0 12042.70336575 0 1011.51887720 0 498.80934031 0 2493
0.04950000 0.04949480 40158.10416150 0 2091.29642245 0 12399.56439466 0 -2649.58518445 0 -255.46621438 0 2644
0.05050000 0.05050630 37426.22945900 0 3418.32562429 0 13061.46797232 0 -3048.98608531 0 -6.23820316 0 2829
0.05150000 0.05149060 36667.33231593 0 1553.75719715 0 17237.17383117 0 -2324.39100453 0 165.98854305 0 2784
0.05250000 0.05249300 35332.67428229 0 -1227.58865264 0 12819.53767503 0 1857.55964553 0 177.99094316 0 3055
0.05350000 0.05348950 37892.26361061 0 -1125.05892482 0 15740.52768544 0 -6.58444583 0 -1439.65688989 0 3009
0.05450000 0.05448610 37513.92227156 0 301.48833249 0 14379.07462574 0 2129.55130470 0 -5512.01366889 0 3336
0.05550000 0.05550870 36696.34180695 0 1144.90053090 0 13859.33969875 0 -124.15508542 0 -3417.55056155 0 3349
0.05650000 0.05647670 34439.46983917 0 1509.52325950 0 12781.89177065 0 -450.50410883 0 -4858.94580644 0 3324
0.05750000 0.05747970 34480.32671775 0 1467.01660452 0 13576.99541587 0 -361.62102134 0 -5725.69846557 0 3639
0.05850000 0.05849280 33650.12380284 0 523.24817565 0 12983.96169859 0 -520.94181039 0 -5950.54416566 0 3846
0.05950000 0.05951020 32559.83197795 0 356.60304374 0 12092.41810419 0 221.23169327 0 -3836.70448988 0 3787
0.06050000 0.06049470 33135.92503827 0 508.42676165 0 13334.51150234 0 458.38317517 0 -2545.57176511 0 3930
0.06150000 0.06148310 32138.75146510 0 14.38671453 0 13024.70785392 0 2454.57939975 0 -4896.60278315 0 4083
0.06250000 0.06249100 32820.14233444 0 1303.20155883 0 14362.68758500 0 1371.97176828 0 -1721.06002516 0 4303
0.06350000 0.06350600 31540.07086215 0 1300.27846508 0 13237.29649044 0 1424.90855324 0 -510.77409451 0 4470
0.06450000 0.06451750 31236.13554588 0 64.88736658 0 13262.31994453 0 1583.50853394 0 4617.71306562 0 4479
0.06550000 0.06550280 31414.84286846 0 -664.24648159 0 12691.76304662 0 2149.45934472 0 3152.45696074 0 4636
0.06650000 0.06648880 31757.30987510 0 184.00875170 0 14361.69107577 0 2477.17801470 0 3972.86086818 0 4653
0.06750000 0.06749660 31960.81920526 0 876.29700312 0 13666.23835391 0 -1057.89420247 0 2862.37312282 0 5220
0.06850000 0.06852730 29899.48449378 0 658.39365069 0 12578.49316373 0 -445.24143284 0 3972.46226449 0 5029
0.06950000 0.06949320 30550.98008611 0 491.79945147 0 13118.49044513 0 122.31265057 0 4428.67526399 0 5040
0.07050000 0.07048030 29676.15570218 0 -164.30001352 0 11441.36540485 0 1716.46501036 0 2027.01050455 0 5475
0.07150000 0.07148790 29472.42492552 0 -146.25433853 0 10997.16587778 0 2411.76271967 0 3651.54200194 0 5509
0.07250000 0.07249820 29479.95410640 0 197.59006532 0 9193.82740689 0 3043.81530962 0 357.64605673 0 5916
0.07350000 0.07351270 29207.79636236 0 -137.74193521 0 8915.03734028 0 1793.06335346 0 991.96736604 0 5721
0.07450000 0.07449140 29120.10354979 0 684.42025741 0 8019.04267131 0 -119.22457918 0 1764.69605727 0 6028
0.07550000 0.07549160 28485.65933768 0 1059.96915614 0 8531.58058716 0 -677.44912170 0 2612.16072657 0 6183
0.07650000 0.07648840 27678.48685840 0 302.71736054 0 7902.68360979 0 -312.54737052 0 3677.35159109 0 6330
0.07750000 0.07749960 27466.67328462 0 494.18996640 0 9556.34639378 0 561.03359133 0 2350.31131693 0 6583
0.07850000 0.07848650 27254.85971084 0 505.33979749 0 7914.95174569 0 821.95735461 0 2077.05741273 0 6549
0.07950000 0.07947320 26246.06019662 0 943.83597005 0 8818.15449812 0 119.27108295 0 -57.23794026 0 6828
0.08050000 0.08048110 25530.56656683 0 871.55361917 0 8299.31642944 0 -156.08988467 0 1465.99795064 0 7147
0.08150000 0.08149960 24487.55356892 0 970.13274150 0 7732.45768803 0 -143.47961393 0 596.16829244 0 7386
0.08250000 0.08250610 24185.94344086 0 1247.76242846 0 9339.88244357 0 -748.84900830 0 853.53783946 0 7227
0.08350000 0.08350160 23236.93448065 0 498.60560954 0 8938.41101797 0 -562.89484913 0 316.98294384 0 7798
0.08450000 0.08449610 22849.84600499 0 171.71514945 0 9761.01831805 0 298.51541327 0 908.65144347 0 7371
0.08550000 0.08548940 22687.74716965 0 165.11050770 0 9162.66988485 0 905.45818500 0 2175.41287409 0 8256
0.08650000 0.08650700 22927.13083223 0 -171.76165321 0 9296.61179818 0 2572.22285094 0 851.47617258 0 8037
0.08750000 0.08749060 22939.31038953 0 -224.60764511 0 7807.68306284 0 1019.43780391 0 901.05582865 0 8155
0.08850000 0.08849210 22515.12962572 0 651.75025580 0 7819.51937807 0 522.87060938 0 607.44988420 0 8718
0.08950000 0.08949900 21910.58069063 0 520.87205475 0 5942.64959807 0 518.70962971 0 316.56330273 0 8571
0.09050000 0.09049190 21232.06862574 0 789.65495418 0 6082.12767381 0 397.63818675 0 1189.41127667 0 8932
0.09150000 0.09150830 20402.41932708 0 908.23733853 0 6100.55202230 0 -181.91276061 0 219.27853517 0 9285
0.09250000 0.09250820 19916.01209780 0 752.55491541 0 5537.45787133 0 -135.87514124 0 540.60958097 0 9204
0.09350000 0.09350330 19492.71711998 0 521.69915741 0 5901.22803092 0 293.98351072 0 -258.70597662 0 9349
0.09450000 0.09448040 19033.43708650 0 197.26453897 0 6138.04291414 0 31.03528357 0 1606.59433119 0 9564
0.09550000 0.09549270 18917.17767591 0 173.08922496 0 7301.88819280 0 372.70220402 0 981.76089702 0 10155
0.09650000 0.09649430 19325.41429197 0 -206.39256355 0 6671.97256154 0 301.85593367 0 1020.86502658 0 9913
0.09750000 0.09749140 19457.39640381 0 128.84200052 0 7855.44907211 0 -71.34408208 0 1761.04219008 0 10476
0.09850000 0.09850240 19112.49348571 0 639.85747171 0 7497.48081072 0 -337.53871486 0 2463.85800794 0 10575
0.09950000 0.09950330 18404.08614381 0 679.50635966 0 7640.07020974 0 243.20693634 0 2380.74913786 0 10882
0.10050000 0.10051200 18032.05602990 0 650.34628501 0 6949.17928570 0 587.39901119 0 2623.73130600 0 10875
0.10150000 0.10150300 17340.36789848 0 386.02553248 0 7049.98173085 0 738.19743182 0 1773.24389203 0 11118
0.10250000 0.10250800 17022.59217619 0 193.21317532 0 6843.42751136 0 665.91397371 0 2073.11566509 0 11575
0.10350000 0.10349800 16484.69863650 0 184.06189886 0 5993.63765386 0 865.83697787 0 1617.99882575 0 11364
0.10450000 0.10450100 16703.81994466 0 -38.41399156 0 5643.15428405 0 667.07656781 0 1105.17413668 0 12093
0.10550000 0.10551000 16404.97789780 0 -7.86803831 0 5525.24509705 0 -121.37150296 0 875.90836452 0 12067
0.10650000 0.10649700 16427.12254744 0 416.91842595 0 5430.90888960 0 -443.17533703 0 337.71255036 0 12054
0.10750000 0.10749900 16161.49747504 0 443.59719260 0 5583.86198464 0 -1322.25702984 0 111.33554775 0 12807
0.10850000 0.10850100 16097.49943759 0 231.83122982 0 6605.84863773 0 -1089.49129581 0 7.91572681 0 12736
0.10950000 0.10950300 15972.60361363 0 168.09892816 0 7126.30326583 0 -375.82238516 0 -455.33385691 0 12933
0.11050000 0.11050200 15986.33329641 0 -41.47106044 0 6750.46427218 0 361.76274710 0 -987.34909936 0 13428
0.11150000 0.11150900 15901.51928830 0 -94.53141254 0 6793.33631388 0 423.61718247 0 -1004.56324275 0 13453
0.11250000 0.11250000 16014.45700145 0 112.25787241 0 7053.14841575 0 787.59439453 0 -1352.58412752 0 13668
0.11350000 0.11349100 15672.32216455 0 377.66814170 0 6348.88212334 0 626.79323566 0 -697.55646357 0 13791
0.11450000 0.11448600 15180.82166585 0 816.81868866 0 6068.16547221 0 886.58319288 0 266.80427499 0 14205
0.11550000 0.11549300 14749.77606066 0 303.58100188 0 5978.30248398 0 346.53608601 0 341.45278169 0 14776
0.11650000 0.11649800 14536.08019166 0 200.90179767 0 5657.41543841 0 663.26990254 0 593.30388201 0 14553
0.11750000 0.11747300 14312.86212332 0 32.34425381 0 6031.80395751 0 212.24317998 0 839.84801705 0 14568
0.11850000 0.11849100 14312.64067682 0 -2.45756893 0 5563.54426860 0 130.54824577 0 940.31275629 0 16015
0.11950000 0.11950300 14364.79132672 0 84.15885865 0 5660.12815799 0 614.58931924 0 843.06563464 0 15270
0.12050000 0.12050700 14348.07211624 0 -85.01895684 0 5358.82805503 0 173.43025256 0 1143.12895893 0 15999
0.12150000 0.12150000 14442.29760045 0 113.36067596 0 5359.53668382 0 224.55781965 0 1389.51033079 0 15670
0.12250000 0.12250700 14363.01975475 0 129.27271396 0 5090.32417818 0 317.31400635 0 1062.18583557 0 16887
0.12350000 0.12352200 14251.29999733 0 52.98528174 0 4918.82493906 0 671.24640534 0 1584.29466900 0 16407
0.12450000 0.12449800 14156.74234338 0 106.59725707 0 5201.64533190 0 483.83402100 0 1566.50144302 0 16306
0.12550000 0.12549900 13925.99509416 0 88.49467033 0 4503.63490301 0 654.60802284 0 1517.39568245 0 17523
0.12650000 0.12650100 13916.80506456 0 172.33409241 0 4493.23799001 0 307.46738789 0 1429.19354294 0 17154
0.12750000 0.12750600 13519.08715707 0 411.09659756 0 4378.42905396 0 107.69386012 0 1824.44232199 0 18007
0.12850000 0.12850300 13419.65768020 0 301.94008334 0 4031.99815503 0 447.30088526 0 1450.89529959 0 17496
0.12950000 0.12949900 13058.81061436 0 145.00205859 0 3933.97486342 0 -121.94504939 0 1256.39884182 0 18405
0.13050000 0.13049000 12949.96966139 0 279.84083023 0 3838.03316886 0 232.06264141 0 895.96366647 0 18100
0.13150000 0.13148800 12759.85784426 0 191.41835146 0 3694.20366947 0 336.65071441 0 917.07858989 0 19059
0.13250000 0.13249300 12607.50265475 0 27.86029443 0 3203.10177446 0 664.70487584 0 1285.15366938 0 18957
0.13350000 0.13349100 12519.47767244 0 -31.52921998 0 2944.54084530 0 491.59793516 0 852.98422322 0 19468
0.13450000 0.13450700 12673.38298742 0 47.11694959 0 3188.80740312 0 467.53112993 0 943.31446355 0 19953
0.13550000 0.13551000 12365.01874122 0 257.43708820 0 2815.13858514 0 -19.80484596 0 1319.43358701 0 19956
0.13650000 0.13649900 12297.03466684 0 348.10835614 0 3078.52704793 0 -401.27655268 0 1399.11003641 0 19723
0.13750000 0.13749600 11899.53820585 0 298.65160287 0 3344.92718306 0 -428.47239690 0 1471.35695585 0 20946
0.13850000 0.13851100 11709.64783521 0 309.87672577 0 3454.23317367 0 -95.56113875 0 1032.81427953 0 20955
0.13950000 0.13949800 11535.14799607 0 221.15529423 0 3581.63134304 0 -278.09693908 0 1168.67281228 0 20506
0.14050000 0.14048300 11455.31653412 0 95.50932027 0 3445.61890496 0 62.04930828 0 459.30771429 0 21447
0.14150000 0.14148400 11281.70248097 0 84.57772470 0 3173.32829302 0 194.46434802 0 445.77844059 0 21771
0.14250000 0.14249400 11302.29700513 0 39.27231818 0 3285.24735229 0 344.68590053 0 186.32065312 0 22470
0.14350000 0.14350900 11101.55575617 0 67.66375203 0 2715.29943225 0 340.90691607 0 -57.15500854 0 22519
0.14450000 0.14449900 11196.66702636 0 259.96711442 0 2877.48684619 0 90.62886094 0 -161.27283991 0 22218
0.14550000 0.14550500 10938.28325439 0 211.81468101 0 2741.58513137 0 -14.08034330 0 439.62997862 0 23559
0.14650000 0.14650700 10802.85764953 0 183.75740992 0 2986.52710101 0 34.60511182 0 141.99592240 0 23044
0.14750000 0.14750500 10750.19767270 0 33.45381148 0 2819.89968481 0 197.38079838 0 165.40281707 0 23649
0.14850000 0.14849900 10674.16401817 0 10.78585056 0 2750.39870193 0 49.26453771 0 672.38464033 0 23640
0.14950000 0.14949500 10636.29666729 0 169.57929799 0 2823.57569665 0 209.21600638 0 440.76821361 0 24457
0.15050000 0.15050000 10507.19335990 0 292.57178931 0 2794.45548238 0 111.13181697 0 547.28730007 0 24591
0.15150000 0.15149900 10151.45063580 0 359.13528442 0 2895.26899985 0 27.35318196 0 1054.10414569 0 25020
0.15250000 0.15250500 10000.39090830 0 224.64086208 0 2996.00501105 0 -238.86769224 0 1025.06808108 0 25297
0.15350000 0.15350100 9869.74854777 0 80.37378441 0 3165.58873798 0 50.05964135 0 1006.02368239 0 25452
0.15450000 0.15450400 9810.57804394 0 174.11673670 0 3098.94441489 0 -21.77505543 0 642.54361771 0 26061
0.15550000 0.15549900 9493.10127441 0 292.05803344 0 3139.11480933 0 -213.36369926 0 838.47837047 0 26128
0.15650000 0.15649500 9330.90278814 0 158.18033959 0 3060.19127803 0 134.51767422 0 495.62161800 0 26331
0.15750000 0.15749700 9227.01116437 0 21.74338859 0 2861.90808517 0 483.90156218 0 724.57847229 0 27345
0.15850000 0.15849900 9219.53734512 0 23.25664322 0 2587.24799572 0 462.61612495 0 197.77386591 0 26980
0.15950000 0.15949700 9161.27477192 0 101.53565450 0 2555.97975044 0 152.52238161 0 299.97917461 0 27777
0.16050000 0.16050000 8954.59875686 0 200.23302925 0 2522.00985789 0 46.95784028 0 211.51683548 0 28224
0.16150000 0.16150500 8903.38925457 0 150.86153289 0 2636.57520279 0 -118.95662892 0 844.87042359 0 28075
0.16250000 0.16249700 8863.41816198 0 95.25598548 0 2780.33826824 0 255.11965061 0 1046.42659566 0 28590
0.16350000 0.16349900 8800.61593560 0 -12.64780592 0 2651.05780365 0 369.09373336 0 1019.44666177 0 29163
0.16450000 0.16449100 8889.23882345 0 -37.64856174 0 2696.24396124 0 495.33373755 0 923.85263822 0 28996
0.16550000 0.16550500 8761.15416995 0 175.47531096 0 2491.43916907 0 107.07059895 0 995.52711847 0 30777
0.16650000 0.16650700 8702.95803070 0 87.26973903 0 2142.51699706 0 154.47332524 0 784.52293163 0 29211
0.16750000 0.16749900 8618.00008237 0 39.81596932 0 2164.98274411 0 -181.94819205 0 653.58161832 0 30922
0.16850000 0.16850800 8727.57180878 0 63.19263654 0 2102.84485723 0 -164.73515588 0 396.21317854 0 30867
0.16950000 0.16949900 8538.10218648 0 74.06189493 0 2032.32522046 0 -91.13265172 0 313.96684256 0 30852
0.17050000 0.17049200 8610.48197382 0 -14.10569893 0 2093.06799442 0 -123.59704025 0 120.70273455 0 31257
0.17150000 0.17149500 8490.32510489 0 2.20219683 0 2011.96321512 0 89.41245533 0 4.47837893 0 32608
0.17250000 0.17250900 8610.90272216 0 152.84680073 0 2075.64015515 0 115.46441767 0 -120.72930813 0 32361
0.17350000 0.17350400 8364.83137539 0 155.63924105 0 2113.99468832 0 1.30144106 0 254.46638345 0 32508
0.17450000 0.17449800 8433.60158484 0 167.76343672 0 2166.24498914 0 -46.28707884 0 174.89622837 0 32791
0.17550000 0.17549800 8180.58789041 0 213.48660206 0 2254.54677957 0 -135.63597903 0 566.54428739 0 33633
0.17650000 0.17650100 8130.21988481 0 186.65835903 0 2253.72742754 0 -11.45919185 0 331.35260699 0 33984
0.17750000 0.17750300 8015.15628529 0 14.10758122 0 2347.83111617 0 85.63734618 0 570.59786551 0 34069
0.17850000 0.17849800 7922.80202398 0 63.99560154 0 2324.93354844 0 222.10972863 0 260.54730424 0 34536
