### header ###
fiducial parameters:
Omega_m = 0.31
Omega_nu = 0
Omega_de = 0.69
Omega_k = 0
H_0 = 100
w_de = -1
zeff = 0
beta = 0
fgrowth = 0
b_1 = 2
gamma = 0.55
Lx = 3500 Ly = 3500 Lz = 3500
nx = 700 ny = 700 nz = 700
xoffset = -685.467585 yoffset = -31.7331281 zoffset = 572.489161
bins = 400 dk = 0.001
kx_ny = 0.628318531 ky_ny = 0.628318531 kz_ny = 0.628318531
############################
A(data) = 8.01997974 (not used)
A(ran) = 8.01637926 (used)
Ngal = 475828
weighted Ngal = 0
Nran = 23820508
weighted Nran = 0
SN(data) = 3495.34099
SN(ran) = 69.8255706
SN(data+ran) = 3565.16656
############################
13 columns: k_central k_mean P_0(k) sigma^{lin}_{P_0(k)} P^img_1(k) sigma^{lin}_{P_1(k)} P_2(k) sigma^{lin}_{P_2(k)} P^img_3(k) sigma^{lin}_{P_3(k)} P_4(k) sigma^{lin}_{P_4(k)} N_modes
### header ###
0.00050000 0 0 0 0 0 0 0 0 0 0 0 0
0.00150000 0.00179520 54515.58775384 0 -33201.91609419 0 26189.03772380 0 56661.40430369 0 -8181.49582105 0 3
0.00250000 0.00253879 87000.68153927 0 -8054.10872401 0 39545.47242928 0 -27775.70187031 0 42082.47421498 0 6
0.00350000 0.00331552 74649.72465056 0 20538.16602936 0 27406.43983761 0 -44169.27527355 0 75710.12119844 0 7
0.00450000 0.00420575 59313.33682101 0 30021.16934353 0 35017.55591795 0 -17860.43499521 0 44837.60079960 0 24
0.00550000 0.00557378 42563.45600510 0 6915.36440571 0 50332.35271411 0 25563.22992505 0 18984.94030380 0 45
0.00650000 0.00659388 64102.00658182 0 -7780.16833567 0 84004.73188984 0 47663.14737007 0 -1561.27530570 0 40
0.00750000 0.00754703 53893.21237578 0 -8917.79434916 0 50409.08392510 0 23820.11382885 0 7841.79689561 0 57
0.00850000 0.00846663 77217.17532951 0 -11317.02319714 0 60608.90954804 0 40035.53352576 0 28363.97448793 0 75
0.00950000 0.00948925 62012.65888854 0 -3229.52034148 0 27420.94458312 0 30449.77903726 0 9469.07432956 0 112
0.01050000 0.01054430 88675.37066809 0 -2046.79674900 0 33514.04493082 0 38489.06191834 0 35961.58233199 0 105
0.01150000 0.01145670 85654.72973431 0 -8309.86835499 0 3787.31084887 0 18152.96581692 0 -8802.43179687 0 144
0.01250000 0.01249090 89998.73493041 0 -10221.99241722 0 -13675.76055325 0 13289.33641708 0 -4844.67357975 0 169
0.01350000 0.01339930 92259.37148863 0 -6939.74566496 0 -18407.18639476 0 -14747.89376544 0 -15448.66120322 0 180
0.01450000 0.01448870 95581.17965748 0 -1871.82079989 0 -18569.39595335 0 -19945.57520506 0 -25246.89360498 0 267
0.01550000 0.01550050 101309.55762565 0 1834.86137965 0 -8653.43152179 0 -40593.68941987 0 -23465.91015790 0 238
0.01650000 0.01653350 94382.93266560 0 4987.39584666 0 3872.71169019 0 -25511.41144490 0 -20310.62975433 0 315
0.01750000 0.01747870 92151.96993789 0 8122.91215043 0 21537.99696048 0 -31250.97246114 0 -21156.77681697 0 297
0.01850000 0.01844180 85173.41577444 0 14729.84587599 0 30253.02382524 0 -1441.49489581 0 -12235.80471059 0 388
0.01950000 0.01947590 77111.87752048 0 11729.02440364 0 47235.64490883 0 1753.24727341 0 9751.13073199 0 399
0.02050000 0.02045430 71715.00495738 0 8251.17396113 0 40391.50876868 0 24274.74348590 0 2117.85892969 0 462
0.02150000 0.02154770 64933.31672921 0 778.30249955 0 46241.90375635 0 14179.77277900 0 10906.71605633 0 571
0.02250000 0.02255340 66168.65600922 0 3312.08666765 0 35717.32684649 0 19376.67915588 0 -424.92260957 0 510
0.02350000 0.02348930 59155.88836209 0 1267.99156591 0 29509.62793691 0 8133.51943761 0 9946.00364879 0 555
0.02450000 0.02439640 63685.35499890 0 783.99478174 0 15547.31561735 0 5371.24013115 0 9094.11004957 0 592
0.02550000 0.02547300 60568.38483920 0 -2947.86254274 0 15798.98956048 0 11131.56175643 0 16418.70758058 0 837
0.02650000 0.02652900 63650.92006871 0 -4444.38689291 0 15705.42841576 0 12710.91816856 0 16096.06003536 0 723
0.02750000 0.02749970 66298.09148635 0 344.05145632 0 8781.93692364 0 8250.34353677 0 17415.99187699 0 826
0.02850000 0.02848090 64682.63929531 0 3375.56430584 0 15267.73941568 0 6933.47872911 0 21040.51740638 0 831
0.02950000 0.02946900 60809.31862725 0 6317.62495037 0 11545.77742789 0 -4338.66833554 0 28380.14008216 0 996
0.03050000 0.03053250 56386.69992494 0 3207.57499369 0 22257.25518070 0 -1444.24083237 0 34308.26279006 0 1041
0.03150000 0.03150510 53880.25775574 0 3505.65305013 0 23815.35272918 0 772.57810762 0 32433.27530528 0 1036
0.03250000 0.03246190 52320.49935854 0 790.98474039 0 21585.49723395 0 7159.81919305 0 28952.35782879 0 1059
0.03350000 0.03345080 51921.23132558 0 -40.02999736 0 24944.28696769 0 2676.44664446 0 18280.40827559 0 1302
0.03450000 0.03451200 51653.05961847 0 2280.67746614 0 17561.37150186 0 -1095.08171261 0 17354.31902775 0 1339
0.03550000 0.03553350 50299.35718615 0 -1815.47373889 0 14760.07332274 0 4635.79417205 0 16589.77499903 0 1365
0.03650000 0.03647120 53454.08397348 0 -2156.64528353 0 14171.46853539 0 -210.00546314 0 8808.83160062 0 1308
0.03750000 0.03744890 54955.71266538 0 -2003.99114125 0 16600.40443085 0 2549.44707879 0 2462.75077546 0 1579
0.03850000 0.03847530 54409.62560532 0 2444.86897088 0 14851.75217224 0 -1107.08964887 0 -170.66327859 0 1662
0.03950000 0.03950240 52871.12607177 0 4723.34304439 0 12850.98307751 0 -3786.32541196 0 2078.47467031 0 1683
0.04050000 0.04050350 48389.15970843 0 3074.97283166 0 14700.83638496 0 -648.69650861 0 6965.26737367 0 1822
0.04150000 0.04152450 46715.13491910 0 1869.52882865 0 16952.28291359 0 2870.67736643 0 -179.76915852 0 1887
0.04250000 0.04250150 44403.67638996 0 1248.60392515 0 17031.22858955 0 2511.32506444 0 8113.21279389 0 1920
0.04350000 0.04349210 43070.45775855 0 2860.57940620 0 14643.37101916 0 6026.28993975 0 1982.30045693 0 2005
0.04450000 0.04448520 41802.45512032 0 655.12288594 0 15127.89595322 0 3257.25651515 0 14452.48413928 0 2151
0.04550000 0.04548030 40135.84878861 0 909.75535426 0 15454.86170511 0 4652.43587625 0 10054.78924014 0 2274
0.04650000 0.04648670 40763.20671284 0 659.67361144 0 17312.46563994 0 2470.57890911 0 10601.24168691 0 2311
0.04750000 0.04749250 39209.87026403 0 745.75429351 0 17205.28553569 0 -2534.13405357 0 13987.77866664 0 2568
0.04850000 0.04851840 40491.04896880 0 349.83231711 0 18934.78267237 0 -476.79534411 0 13349.56986410 0 2493
0.04950000 0.04949480 38940.25915470 0 910.09306017 0 17408.46269612 0 -2758.40399277 0 12496.77940657 0 2644
0.05050000 0.05050630 39160.93058833 0 1263.86158875 0 19169.95885152 0 534.98373273 0 6317.58066107 0 2829
0.05150000 0.05149060 37511.81852984 0 284.46020415 0 18591.65132624 0 1249.96582110 0 9391.61234512 0 2784
0.05250000 0.05249300 38115.03878596 0 504.94008656 0 19087.47003162 0 4056.19118476 0 6817.40754804 0 3055
0.05350000 0.05348950 36681.83706144 0 757.79433952 0 15442.01780833 0 1192.56688924 0 6811.45063729 0 3009
0.05450000 0.05448610 36752.36777053 0 966.73464501 0 18186.51496112 0 2953.40977748 0 7271.17356376 0 3336
0.05550000 0.05550870 36010.74345418 0 836.70458404 0 16522.78743387 0 314.49499245 0 10345.00594596 0 3349
0.05650000 0.05647670 35722.97373214 0 532.94753219 0 18181.42169171 0 1841.19474944 0 10476.34586296 0 3324
0.05750000 0.05747970 35058.30207328 0 1172.49276435 0 18294.80229785 0 -509.29151022 0 9112.01399880 0 3639
0.05850000 0.05849280 34040.20180621 0 1844.47215759 0 17566.24332478 0 517.96003332 0 8670.62684223 0 3846
0.05950000 0.05951020 33104.14746604 0 1424.10027352 0 16127.39471460 0 1714.91488489 0 7036.22990343 0 3787
0.06050000 0.06049470 32394.07927542 0 -371.44770962 0 13223.12391467 0 2585.50964073 0 5493.24607833 0 3930
0.06150000 0.06148310 32280.80939252 0 -1302.18290495 0 12365.68308071 0 2030.94117986 0 929.92248668 0 4083
0.06250000 0.06249100 33164.04874331 0 -71.88872973 0 8934.70178916 0 2817.23125453 0 -453.20575608 0 4303
0.06350000 0.06350600 32832.32189174 0 -151.72517422 0 6494.70464120 0 1947.53335700 0 -3448.51985407 0 4470
0.06450000 0.06451750 32108.74546484 0 308.52590214 0 6638.29054945 0 559.06161028 0 -3874.08465847 0 4479
0.06550000 0.06550280 31256.06573056 0 665.46000839 0 4819.63905333 0 -288.08306883 0 -2519.45215086 0 4636
0.06650000 0.06648880 31364.35306728 0 1079.10988406 0 5935.23114044 0 645.07807286 0 -787.85680863 0 4653
0.06750000 0.06749660 30735.11284784 0 635.49829743 0 6272.81525183 0 515.82307463 0 2359.58992513 0 5220
0.06850000 0.06852730 30915.59174238 0 559.65619412 0 8422.09743935 0 1524.99129727 0 1228.60730653 0 5029
0.06950000 0.06949320 30155.91953658 0 515.98362334 0 8958.82838494 0 286.95037000 0 6250.49344500 0 5040
0.07050000 0.07048030 29597.98508896 0 1478.89720905 0 8910.38696386 0 720.83491927 0 3991.89419454 0 5475
0.07150000 0.07148790 29135.16191154 0 -147.98383567 0 8817.46801398 0 973.56516219 0 6222.51368018 0 5509
0.07250000 0.07249820 29029.42120953 0 -267.51733271 0 10366.47518378 0 -167.19099753 0 4205.19145985 0 5916
0.07350000 0.07351270 29238.46670210 0 863.98789962 0 9720.67076641 0 -227.11220498 0 4186.92212390 0 5721
0.07450000 0.07449140 27936.02913369 0 1037.70935433 0 9201.78840843 0 -1850.76123809 0 3167.48210552 0 6028
0.07550000 0.07549160 27486.93563904 0 1603.51622489 0 10530.52274830 0 -1424.47673257 0 3055.65162485 0 6183
0.07650000 0.07648840 26296.54999779 0 821.85216752 0 11429.29657080 0 -449.00823774 0 1836.52222837 0 6330
0.07750000 0.07749960 25739.83350591 0 232.65390355 0 10714.45620818 0 1852.37779751 0 543.53378195 0 6583
0.07850000 0.07848650 25277.01032849 0 761.76598243 0 11300.74687965 0 702.12711926 0 1443.49898661 0 6549
0.07950000 0.07947320 24830.90636154 0 396.93730859 0 10298.88971309 0 628.24149575 0 -697.30069287 0 6828
0.08050000 0.08048110 24320.36146416 0 360.21926502 0 10031.11660968 0 833.42163973 0 1197.94803910 0 7147
0.08150000 0.08149960 24348.37444595 0 78.72887984 0 10074.01079602 0 -855.71687298 0 556.41643188 0 7386
0.08250000 0.08250610 24382.36648314 0 34.24293607 0 10726.17072784 0 -203.76731533 0 -346.63241524 0 7227
0.08350000 0.08350160 23642.51373876 0 610.32758142 0 10408.89326016 0 -144.02105061 0 -488.48550465 0 7798
0.08450000 0.08449610 23707.17611570 0 675.11729010 0 9477.26784992 0 274.65344606 0 -2236.07814178 0 7371
0.08550000 0.08548940 23144.59129166 0 480.01739063 0 9798.53135453 0 321.63664196 0 -769.74027076 0 8256
0.08650000 0.08650700 22628.84240161 0 478.57577394 0 8907.70746125 0 1652.07944154 0 -1577.99451618 0 8037
0.08750000 0.08749060 21760.55068933 0 462.53861867 0 8441.50722476 0 1539.48497046 0 -73.44749162 0 8155
0.08850000 0.08849210 21599.55908647 0 320.37439693 0 7012.15866927 0 1307.60834411 0 -668.63333668 0 8718
0.08950000 0.08949900 20867.34624621 0 222.21602295 0 6872.89096770 0 1896.72245841 0 -784.51850270 0 8571
0.09050000 0.09049190 20755.62648879 0 696.34958017 0 6998.69472229 0 489.76214370 0 403.99480843 0 8932
0.09150000 0.09150830 20314.39434477 0 383.13787016 0 6791.96334560 0 238.67392656 0 731.61382748 0 9285
0.09250000 0.09250820 19746.71625132 0 364.83088831 0 6651.11230159 0 246.58288818 0 1676.59356869 0 9204
0.09350000 0.09350330 19424.73304559 0 495.78327394 0 6445.10062601 0 -386.63340311 0 142.53514462 0 9349
0.09450000 0.09448040 19147.37130889 0 480.89764045 0 6976.24004756 0 -145.23679188 0 1038.85091102 0 9564
0.09550000 0.09549270 18483.47471276 0 451.60026898 0 6939.82317123 0 -191.37627663 0 568.93037339 0 10155
0.09650000 0.09649430 18205.00574357 0 496.53508479 0 7011.10679842 0 98.52951831 0 360.23808797 0 9913
0.09750000 0.09749140 18311.52150833 0 95.41620202 0 6374.82458039 0 680.20280889 0 404.27383101 0 10476
0.09850000 0.09850240 17820.68534911 0 -104.56459968 0 6363.66367697 0 453.44270383 0 534.45115390 0 10575
0.09950000 0.09950330 18082.10293808 0 94.37639999 0 5774.88173241 0 1354.47749507 0 636.89783929 0 10882
0.10050000 0.10051200 18115.65208228 0 -65.46877436 0 5216.07257114 0 1168.35171486 0 -258.34169713 0 10875
0.10150000 0.10150300 17481.87220966 0 693.07770819 0 5282.76118352 0 -62.46651348 0 -70.13276974 0 11118
0.10250000 0.10250800 16791.73420372 0 1040.29695664 0 4833.60125493 0 -11.51898240 0 -600.89728237 0 11575
0.10350000 0.10349800 16103.47849299 0 873.00298649 0 5300.17795046 0 -436.71352826 0 762.46686059 0 11364
0.10450000 0.10450100 15529.59989764 0 253.75775466 0 5095.38423062 0 -217.28883840 0 316.71056465 0 12093
0.10550000 0.10551000 15073.97373135 0 296.12157665 0 5269.41903212 0 729.22109809 0 -272.64492633 0 12067
0.10650000 0.10649700 15327.75141620 0 9.58843399 0 5450.44047058 0 -18.41117243 0 -708.53799533 0 12054
0.10750000 0.10749900 15129.33535545 0 56.23146593 0 5225.39546864 0 419.22036228 0 157.40416962 0 12807
0.10850000 0.10850100 15168.30993881 0 -260.36461088 0 4775.28332011 0 333.95238886 0 -107.57815432 0 12736
0.10950000 0.10950300 15478.88864997 0 -190.40301928 0 4367.60032029 0 744.41011328 0 -270.82020720 0 12933
0.11050000 0.11050200 15536.24329253 0 -84.77304051 0 4569.65917590 0 -77.55676353 0 -388.73603759 0 13428
0.11150000 0.11150900 15484.75698213 0 401.37841807 0 3913.44677320 0 -22.26245917 0 -457.35234173 0 13453
0.11250000 0.11250000 15102.20815964 0 375.29312803 0 4234.43346969 0 -270.17579790 0 472.74176599 0 13668
0.11350000 0.11349100 14911.21055652 0 311.84870682 0 4423.02837833 0 -95.98908410 0 34.67697121 0 13791
0.11450000 0.11448600 14643.92463540 0 147.59076814 0 4163.86954362 0 495.60833121 0 118.87469372 0 14205
0.11550000 0.11549300 14508.95299586 0 231.12592273 0 4544.71322809 0 779.64003639 0 386.61790186 0 14776
0.11650000 0.11649800 14468.53901027 0 -225.41038866 0 3732.14852662 0 720.83602651 0 1025.93172242 0 14553
0.11750000 0.11747300 14625.76602269 0 -192.53554904 0 4383.48910640 0 272.20314057 0 -141.01380719 0 14568
0.11850000 0.11849100 14832.04343407 0 167.46891288 0 4060.25472797 0 -144.71860708 0 -373.98991540 0 16015
0.11950000 0.11950300 14718.66282792 0 362.90762549 0 4539.16599335 0 -625.85762421 0 10.77173334 0 15270
0.12050000 0.12050700 14519.91459743 0 225.99832911 0 4389.39065553 0 -1046.77648112 0 -90.37209372 0 15999
0.12150000 0.12150000 14596.09219218 0 80.89650887 0 5137.95731955 0 -486.46259091 0 -148.85965656 0 15670
0.12250000 0.12250700 14437.97939377 0 119.49031498 0 5207.39186848 0 -82.49701342 0 -966.44676456 0 16887
0.12350000 0.12352200 14171.80070513 0 216.77729700 0 5105.55969713 0 159.19899347 0 -1252.84462555 0 16407
0.12450000 0.12449800 14070.82110278 0 240.71344879 0 4617.19266635 0 796.67480812 0 -1202.00050999 0 16306
0.12550000 0.12549900 13629.36751226 0 -1.29593811 0 4170.03682855 0 579.40589990 0 -1039.46653228 0 17523
0.12650000 0.12650100 13841.95614878 0 77.41669862 0 3908.35350379 0 898.79818162 0 -1829.56880838 0 17154
0.12750000 0.12750600 13387.76938472 0 219.49998167 0 3292.26720623 0 427.89774324 0 -1911.88047109 0 18007
0.12850000 0.12850300 13302.51248362 0 639.40793532 0 2730.21385378 0 257.12374140 0 -1672.14249411 0 17496
0.12950000 0.12949900 12569.19241088 0 434.76701356 0 2690.65243720 0 1.83718657 0 -1087.84041218 0 18405
0.13050000 0.13049000 12554.13404913 0 263.09504618 0 2491.01842072 0 109.29835071 0 -817.23611531 0 18100
0.13150000 0.13148800 12208.56679154 0 216.77065360 0 3028.84552647 0 320.66559907 0 -729.42593610 0 19059
0.13250000 0.13249300 12020.78016261 0 280.46088042 0 2829.53260741 0 -185.31085709 0 -490.87159065 0 18957
0.13350000 0.13349100 11952.02102549 0 127.85213468 0 3168.79971217 0 30.47347381 0 -150.47621598 0 19468
0.13450000 0.13450700 12030.96670144 0 -44.07693208 0 3275.48156180 0 -229.62340825 0 1.43319065 0 19953
0.13550000 0.13551000 12124.86001591 0 -98.66747948 0 3706.95898766 0 -270.91210750 0 -123.08771331 0 19956
0.13650000 0.13649900 12090.42508572 0 106.46826448 0 3770.07123912 0 -95.78424609 0 -108.06910120 0 19723
0.13750000 0.13749600 11941.50231691 0 288.86366773 0 3809.41120921 0 63.30911740 0 31.95085411 0 20946
0.13850000 0.13851100 11696.80393842 0 189.91915868 0 3714.41066226 0 489.98691190 0 415.96177709 0 20955
0.13950000 0.13949800 11697.13610816 0 8.66737158 0 3533.20099428 0 326.03346214 0 -221.87167365 0 20506
0.14050000 0.14048300 11476.79684427 0 193.74243244 0 3551.85786160 0 358.16645600 0 71.40608709 0 21447
0.14150000 0.14148400 11355.44416426 0 349.24880559 0 3522.36118828 0 -8.08511123 0 48.84367864 0 21771
0.14250000 0.14249400 11056.41388788 0 234.40333088 0 3254.45521697 0 123.65683081 0 839.51252561 0 22470
0.14350000 0.14350900 11071.47224964 0 20.08763313 0 3012.51384736 0 458.22041199 0 1126.35438683 0 22519
0.14450000 0.14449900 11071.98157658 0 -193.00501561 0 2934.39859576 0 742.52781806 0 964.49139200 0 22218
0.14550000 0.14550500 11092.25500332 0 46.61880569 0 2734.16667374 0 690.62518824 0 319.28045124 0 23559
0.14650000 0.14650700 11037.60200802 0 191.15704460 0 2528.87469928 0 157.71530195 0 333.49620907 0 23044
0.14750000 0.14750500 10839.15273029 0 120.53222074 0 2316.14212254 0 -123.75869620 0 397.16096955 0 23649
0.14850000 0.14849900 10645.73028803 0 225.34949087 0 2370.21935695 0 -552.75481406 0 94.67347047 0 23640
0.14950000 0.14949500 10663.60102029 0 234.21731582 0 2254.35855005 0 -187.20754634 0 434.31858441 0 24457
0.15050000 0.15050000 10296.66417580 0 193.91626794 0 2334.07928875 0 105.85109310 0 426.76947334 0 24591
0.15150000 0.15149900 10134.90858253 0 176.06546587 0 2208.87343970 0 475.84201694 0 90.52179155 0 25020
0.15250000 0.15250500 10056.37258259 0 114.43690593 0 2285.93682043 0 274.46078760 0 -249.03540812 0 25297
0.15350000 0.15350100 9816.19171262 0 210.69748344 0 2278.28584398 0 -6.32070306 0 -48.38805248 0 25452
0.15450000 0.15450400 9768.62500520 0 175.27268741 0 2184.81327786 0 -166.88207967 0 118.79386575 0 26061
0.15550000 0.15549900 9511.80243103 0 85.49252018 0 2342.71570210 0 -327.53044046 0 180.55197189 0 26128
0.15650000 0.15649500 9751.06429804 0 -25.09874590 0 2529.09614578 0 -151.57569784 0 -151.57459060 0 26331
0.15750000 0.15749700 9622.28208807 0 106.45586348 0 2529.21794135 0 36.86386608 0 -316.95194133 0 27345
0.15850000 0.15849900 9611.12118465 0 178.31425504 0 2424.79484598 0 -260.00808202 0 -317.16785166 0 26980
0.15950000 0.15949700 9416.21505087 0 204.82582959 0 2545.94822415 0 102.34072324 0 -79.38635448 0 27777
0.16050000 0.16050000 9340.73501258 0 165.86231855 0 2696.15538264 0 204.63538560 0 -61.13595221 0 28224
0.16150000 0.16150500 9126.62946756 0 185.34739577 0 2680.10051165 0 295.20700262 0 153.52664147 0 28075
0.16250000 0.16249700 9047.92738275 0 122.56177788 0 2677.80854042 0 330.50003798 0 303.14475228 0 28590
0.16350000 0.16349900 8923.52981342 0 128.19980568 0 2572.35571884 0 240.54182776 0 481.96944150 0 29163
0.16450000 0.16449100 8881.98645070 0 39.56883503 0 2499.03478389 0 204.07180427 0 664.47567871 0 28996
0.16550000 0.16550500 8981.89203754 0 -62.64887467 0 2616.71145207 0 29.22595498 0 650.76703336 0 30777
0.16650000 0.16650700 9049.92040122 0 -70.20540419 0 2460.84633559 0 67.19771788 0 735.51239305 0 29211
0.16750000 0.16749900 8958.47407054 0 99.08147370 0 2463.65870610 0 -63.67705076 0 563.91018132 0 30922
0.16850000 0.16850800 8902.31523906 0 267.99565714 0 2528.94113323 0 6.30385098 0 631.11033511 0 30867
0.16950000 0.16949900 8685.05408147 0 213.65600863 0 2290.89722195 0 163.55484606 0 357.19541311 0 30852
0.17050000 0.17049200 8512.43653755 0 146.80574031 0 2256.81660616 0 84.77381557 0 71.12529294 0 31257
0.17150000 0.17149500 8436.33644907 0 183.38316534 0 2317.36007827 0 -10.52519696 0 -133.63188824 0 32608
0.17250000 0.17250900 8293.21557847 0 211.83461120 0 2250.27286219 0 -68.42862823 0 -189.11973683 0 32361
0.17350000 0.17350400 7921.27404316 0 137.75965093 0 2003.37109106 0 -70.87096164 0 146.17904672 0 32508
0.17450000 0.17449800 8127.30786338 0 -20.45124828 0 2006.33847411 0 329.34408727 0 17.99418868 0 32791
0.17550000 0.17549800 8072.73237435 0 -164.76394393 0 1982.43332483 0 347.57467008 0 -101.32627684 0 33633
0.17650000 0.17650100 8053.36687824 0 106.75393046 0 1887.94210483 0 243.12832283 0 -64.92733767 0 33984
0.17750000 0.17750300 7973.65721187 0 289.34642109 0 1761.75081887 0 -60.65198089 0 -152.82354884 0 34069
0.17850000 0.17849800 7713.65688048 0 227.02805531 0 1634.23085393 0 52.32437467 0 418.49069608 0 34536
