### header ###
fiducial parameters:
Omega_m = 0.31
Omega_nu = 0
Omega_de = 0.69
Omega_k = 0
H_0 = 100
w_de = -1
zeff = 0
beta = 0
fgrowth = 0
b_1 = 2
gamma = 0.55
Lx = 3500 Ly = 3500 Lz = 3500
nx = 700 ny = 700 nz = 700
xoffset = -685.467585 yoffset = -31.7331281 zoffset = 572.489161
bins = 400 dk = 0.001
kx_ny = 0.628318531 ky_ny = 0.628318531 kz_ny = 0.628318531
############################
A(data) = 8.09916844 (not used)
A(ran) = 8.10321543 (used)
Ngal = 481763
weighted Ngal = 0
Nran = 23820508
weighted Nran = 0
SN(data) = 3483.89385
SN(ran) = 70.5819452
SN(data+ran) = 3554.4758
############################
13 columns: k_central k_mean P_0(k) sigma^{lin}_{P_0(k)} P^img_1(k) sigma^{lin}_{P_1(k)} P_2(k) sigma^{lin}_{P_2(k)} P^img_3(k) sigma^{lin}_{P_3(k)} P_4(k) sigma^{lin}_{P_4(k)} N_modes
### header ###
0.00050000 0 0 0 0 0 0 0 0 0 0 0 0
0.00150000 0.00179520 31508.07184343 0 -54430.88446898 0 -25749.35570525 0 -26217.49359858 0 20460.54903238 0 3
0.00250000 0.00253879 42613.94580628 0 -31025.98282083 0 -21391.51010313 0 14041.47944201 0 31365.12813002 0 6
0.00350000 0.00331552 65199.27397135 0 -31924.72342635 0 -35054.64820609 0 -39673.68995068 0 -18121.07752144 0 7
0.00450000 0.00420575 70692.91865337 0 -24469.94857246 0 -60244.07644526 0 -26161.24618850 0 713.56261633 0 24
0.00550000 0.00557378 78241.25465199 0 -2205.59603155 0 -54419.70142091 0 -59160.42801526 0 -10903.42757586 0 45
0.00650000 0.00659388 70788.02992356 0 -5621.54110600 0 -65158.41709277 0 -24903.43008911 0 20788.28984701 0 40
0.00750000 0.00754703 61858.97502006 0 7478.56927993 0 -41902.88110642 0 -49123.25484391 0 8297.36770027 0 57
0.00850000 0.00846663 64436.16934485 0 7715.79383917 0 -60755.72857513 0 -17206.28204493 0 25942.56777334 0 75
0.00950000 0.00948925 64012.65292054 0 -13355.99181249 0 -35953.27808837 0 -22101.57829375 0 -21363.94001433 0 112
0.01050000 0.01054430 71992.69886383 0 -9730.30368900 0 -34723.03207777 0 -17189.67355770 0 -25285.20384885 0 105
0.01150000 0.01145670 73239.33191516 0 6720.87902027 0 -2892.93273932 0 -31696.63353509 0 -26384.79642659 0 144
0.01250000 0.01249090 69390.25963846 0 11398.62623105 0 -16053.21013831 0 -25692.33323244 0 -597.40174943 0 169
0.01350000 0.01339930 62047.64743497 0 5360.38925283 0 3900.24856202 0 -2956.67611330 0 11330.42071017 0 180
0.01450000 0.01448870 69090.97469861 0 -4878.46631510 0 12233.03662939 0 4927.62743729 0 13219.24860098 0 267
0.01550000 0.01550050 66939.40053985 0 -9322.03385596 0 8704.61887943 0 21367.26171178 0 6624.48336040 0 238
0.01650000 0.01653350 84335.46223217 0 -6674.23131581 0 16699.05884499 0 12853.86188197 0 17141.95183773 0 315
0.01750000 0.01747870 78914.67344746 0 -4567.40042164 0 15615.41041499 0 11213.93985308 0 4525.25915338 0 297
0.01850000 0.01844180 89427.73513951 0 1369.00438523 0 19177.15586265 0 -6215.89242994 0 18529.42486076 0 388
0.01950000 0.01947590 89324.54107220 0 8781.95906829 0 33222.39989510 0 -24516.34161345 0 20063.71691088 0 399
0.02050000 0.02045430 77308.52200926 0 8525.45759154 0 33968.45314138 0 -8817.10262726 0 28577.67035693 0 462
0.02150000 0.02154770 77146.97679016 0 3491.73513783 0 45941.29013753 0 3847.97611655 0 22323.24623662 0 571
0.02250000 0.02255340 75821.28733962 0 3848.46329884 0 56393.12187334 0 -3660.74310387 0 25049.03116047 0 510
0.02350000 0.02348930 71048.11883355 0 5774.08452503 0 54037.59549142 0 15551.41237753 0 11646.20341400 0 555
0.02450000 0.02439640 72774.62644252 0 1087.65328989 0 55327.96422578 0 1918.26920251 0 26442.70468539 0 592
0.02550000 0.02547300 70268.95933606 0 -2702.04585944 0 49269.63097801 0 11129.12584497 0 20251.06064681 0 837
0.02650000 0.02652900 74666.44386104 0 2045.06946633 0 54005.92864244 0 9630.77456121 0 17811.27387302 0 723
0.02750000 0.02749970 68537.46918092 0 8962.73691560 0 49817.93250303 0 7951.77829803 0 18811.76914363 0 826
0.02850000 0.02848090 63634.64375123 0 8222.40806125 0 49269.18808502 0 10819.39970281 0 27476.19548397 0 831
0.02950000 0.02946900 53676.63770233 0 3358.05896030 0 36598.01956256 0 13356.32398224 0 21226.97535632 0 996
0.03050000 0.03053250 53843.94053034 0 154.79110096 0 32161.33900773 0 7161.18108901 0 11467.05319843 0 1041
0.03150000 0.03150510 54022.64785291 0 -1801.04649965 0 29512.72818786 0 2840.05131598 0 5972.86597250 0 1036
0.03250000 0.03246190 56764.37692451 0 -3214.04123138 0 29939.34486312 0 -5850.18461350 0 -5134.74634535 0 1059
0.03350000 0.03345080 55201.85044610 0 681.04209111 0 25096.86360369 0 -7383.73481786 0 -2318.67768492 0 1302
0.03450000 0.03451200 57612.62772886 0 1934.21335024 0 31893.83164011 0 -4562.88291311 0 -13630.58546799 0 1339
0.03550000 0.03553350 56726.39885038 0 -9.09933619 0 29801.82658888 0 3113.78133015 0 -12782.00249389 0 1365
0.03650000 0.03647120 57089.12821144 0 497.32121986 0 33155.63377644 0 3591.09818076 0 -17906.71731296 0 1308
0.03750000 0.03744890 55232.29933935 0 3361.23671752 0 30163.55944070 0 7015.76824716 0 -10891.27016321 0 1579
0.03850000 0.03847530 51919.68120011 0 3188.35343780 0 28658.94122110 0 5983.21859620 0 -4737.23881203 0 1662
0.03950000 0.03950240 47633.58426281 0 3283.12146593 0 20724.07036306 0 8161.78708287 0 -1242.00481956 0 1683
0.04050000 0.04050350 46336.12924056 0 1767.17625803 0 23960.95380054 0 7322.53807859 0 -1652.90986590 0 1822
0.04150000 0.04152450 46412.97117480 0 649.79045431 0 16221.73092205 0 4690.89006034 0 -3497.52596371 0 1887
0.04250000 0.04250150 43087.28769227 0 287.19174668 0 18435.64226954 0 -334.24137653 0 2006.85887338 0 1920
0.04350000 0.04349210 44411.86991033 0 227.16756661 0 17264.96536647 0 -1697.64205817 0 846.95755682 0 2005
0.04450000 0.04448520 43367.74967993 0 2181.19262765 0 19907.04351469 0 -757.32930188 0 853.92315636 0 2151
0.04550000 0.04548030 42767.40822826 0 1899.51268426 0 19743.83744687 0 -270.12265074 0 1215.14335955 0 2274
0.04650000 0.04648670 42890.42175700 0 -67.78875858 0 22000.48796815 0 561.99134743 0 370.32054695 0 2311
0.04750000 0.04749250 42506.65497878 0 -1075.46930366 0 18733.04491417 0 3851.08743982 0 92.87864662 0 2568
0.04850000 0.04851840 43419.12526709 0 -546.14352891 0 18881.52478999 0 3055.54090160 0 486.18356832 0 2493
0.04950000 0.04949480 43564.17272221 0 351.75336547 0 15945.91931082 0 1051.31502707 0 -1393.56280167 0 2644
0.05050000 0.05050630 42762.20423560 0 1393.56280167 0 17587.39146519 0 -722.58545383 0 -1905.62460756 0 2829
0.05150000 0.05149060 40215.90169705 0 3920.53306109 0 18425.56645396 0 1078.15877136 0 907.51320848 0 2784
0.05250000 0.05249300 37470.07586528 0 2356.06892583 0 18781.65242013 0 1148.38831322 0 3740.08738352 0 3055
0.05350000 0.05348950 35570.28637289 0 1175.72588319 0 15091.68945106 0 7511.83054369 0 5500.89705478 0 3009
0.05450000 0.05448610 34937.50300951 0 -1055.85357301 0 14751.65835588 0 6008.90638978 0 2894.63787734 0 3336
0.05550000 0.05550870 36279.13660778 0 -1124.21742814 0 12312.31447509 0 4894.75370490 0 3532.55879944 0 3349
0.05650000 0.05647670 36171.62433379 0 -75.99855526 0 8870.34943731 0 1800.76969153 0 3163.23033279 0 3324
0.05750000 0.05747970 35969.55440585 0 646.23180911 0 9059.64190241 0 -954.23731199 0 6759.85360363 0 3639
0.05850000 0.05849280 35559.76766432 0 320.54823243 0 8889.18346183 0 -851.85706055 0 3368.59981353 0 3846
0.05950000 0.05951020 35256.49668753 0 472.71519241 0 9164.18679335 0 -6.04653015 0 -724.31716543 0 3787
0.06050000 0.06049470 34288.55405189 0 954.85625494 0 6820.23099087 0 -2573.21936018 0 -3049.42897830 0 3930
0.06150000 0.06148310 33393.57803680 0 1847.86028898 0 9754.80674383 0 -2945.86952427 0 -3804.35115676 0 4083
0.06250000 0.06249100 32051.16937578 0 1323.74072137 0 9400.24875848 0 -2021.04252147 0 -1865.97461239 0 4303
0.06350000 0.06350600 30981.13990531 0 681.24471465 0 10664.84112067 0 -370.46227271 0 -5338.18924157 0 4470
0.06450000 0.06451750 31417.94311941 0 847.56321299 0 10049.27522238 0 -1382.62334475 0 -5480.50183246 0 4479
0.06550000 0.06550280 30677.86892853 0 -38.94978135 0 12077.24901919 0 176.35888248 0 -4764.54316504 0 4636
0.06650000 0.06648880 31164.05471131 0 -174.06248231 0 9961.46061424 0 1090.21653308 0 -2540.19061524 0 4653
0.06750000 0.06749660 30669.89685466 0 351.47212842 0 11931.09433158 0 1076.91867098 0 -3267.22160749 0 5220
0.06850000 0.06852730 30767.11186657 0 1253.49789272 0 11832.43991745 0 1397.99173160 0 -4636.36993294 0 5029
0.06950000 0.06949320 29034.07158595 0 1214.08041636 0 10566.33064676 0 1341.46751340 0 -2461.78748320 0 5040
0.07050000 0.07048030 27808.47595177 0 1271.11396151 0 10100.68402651 0 579.29185495 0 -1364.58652762 0 5475
0.07150000 0.07148790 27781.23803272 0 -255.70537659 0 9281.15483273 0 1919.18820547 0 -2329.34033372 0 5509
0.07250000 0.07249820 27720.67241596 0 -97.09675948 0 9062.77537034 0 1276.94907668 0 -2663.96813439 0 5916
0.07350000 0.07351270 27217.54597620 0 449.90841775 0 8644.25256452 0 1285.59656237 0 -1006.77881495 0 5721
0.07450000 0.07449140 27045.92494151 0 -101.27191172 0 7050.36926222 0 1647.17440165 0 -1072.32476341 0 6028
0.07550000 0.07549160 27213.55993927 0 -180.23530340 0 7015.03747373 0 1404.21437815 0 -1173.56677985 0 6183
0.07650000 0.07648840 27106.49055827 0 148.61163648 0 6839.48576373 0 1420.14745356 0 -629.94441930 0 6330
0.07750000 0.07749960 27081.79927393 0 258.89752784 0 6386.62767864 0 -232.95839249 0 107.83226418 0 6583
0.07850000 0.07848650 26729.81006794 0 1033.61370138 0 8174.73063058 0 -1619.32750473 0 2255.77580763 0 6549
0.07950000 0.07947320 25368.91062448 0 1272.03296447 0 7636.83709089 0 -435.23648013 0 1900.74171232 0 6828
0.08050000 0.08048110 24938.41863553 0 816.67474844 0 8656.63142366 0 374.03641916 0 4649.57921644 0 7147
0.08150000 0.08149960 25103.39627533 0 -250.58331913 0 8450.52009716 0 903.78737118 0 2519.59609108 0 7386
0.08250000 0.08250610 25210.02276333 0 -498.47052717 0 8713.13349721 0 1333.08576352 0 3496.49623751 0 7227
0.08350000 0.08350160 24804.44350523 0 736.20109166 0 8388.62580143 0 986.09239049 0 2622.44691632 0 7798
0.08450000 0.08449610 24471.83086768 0 1175.33835182 0 8602.53204460 0 -763.73907071 0 2461.59925368 0 7371
0.08550000 0.08548940 23268.49060639 0 1083.20110808 0 8713.32172673 0 -349.34070589 0 3079.85572691 0 8256
0.08650000 0.08650700 22401.41684984 0 1036.46925395 0 8475.08958594 0 -626.72458724 0 1909.92066959 0 8037
0.08750000 0.08749060 21797.75370072 0 365.85286389 0 8785.98939452 0 188.75435011 0 1763.72169269 0 8155
0.08850000 0.08849210 21633.21895392 0 85.47580097 0 8261.67052506 0 502.21961636 0 -62.69936447 0 8718
0.08950000 0.08949900 21679.50127166 0 318.61057559 0 7629.04217422 0 582.02671918 0 275.01661831 0 8571
0.09050000 0.09049190 21205.60576942 0 -69.80746484 0 6761.41480143 0 817.87498845 0 -608.33788465 0 8932
0.09150000 0.09150830 21228.19331205 0 127.56868317 0 6221.10749493 0 1035.81598678 0 -740.21148771 0 9285
0.09250000 0.09250820 20901.55972990 0 1.41494346 0 5811.38718734 0 426.54027622 0 -855.22858346 0 9204
0.09350000 0.09350330 20751.30828211 0 354.02540652 0 5998.42089818 0 540.60847374 0 -1664.21470954 0 9349
0.09450000 0.09448040 20253.16438852 0 628.42197464 0 5282.50652005 0 -361.62102134 0 -784.75102152 0 9564
0.09550000 0.09549270 19862.08987593 0 463.74660931 0 6285.01695378 0 -421.49904673 0 -45.04199592 0 10155
0.09650000 0.09649430 19561.69770360 0 99.22696405 0 6093.86433811 0 -199.69934320 0 489.04797875 0 9913
0.09750000 0.09749140 19649.50123941 0 301.57691109 0 7391.17542014 0 216.33551124 0 588.99564043 0 10476
0.09850000 0.09850240 19216.90550875 0 543.94788690 0 7029.74152108 0 362.03401906 0 997.16028638 0 10575
0.09950000 0.09950330 18729.16960048 0 908.46432119 0 7120.51243995 0 435.74802154 0 475.86969775 0 10882
0.10050000 0.10051200 17935.61608073 0 962.03555036 0 6924.01189139 0 840.33962827 0 1909.14560686 0 10875
0.10150000 0.10150300 17362.95544111 0 412.23483256 0 6742.84651271 0 518.65980425 0 1940.70173259 0 11118
0.10250000 0.10250800 17092.23709930 0 -72.45142528 0 6189.45171827 0 283.11270222 0 1683.58020565 0 11575
0.10350000 0.10349800 16896.25695001 0 45.82359132 0 6389.19645800 0 174.39243759 0 1240.79793615 0 11364
0.10450000 0.10450100 16830.37661734 0 420.09950487 0 6586.19526117 0 227.20742698 0 431.02788947 0 12093
0.10550000 0.10551000 16648.45832056 0 25.10162470 0 6069.06233052 0 -150.06875443 0 853.21342034 0 12067
0.10650000 0.10649700 16093.40267741 0 372.34899686 0 5669.35140457 0 628.27028379 0 294.34557575 0 12054
0.10750000 0.10749900 16203.35086286 0 288.49385208 0 5905.92269664 0 275.64774083 0 627.62587449 0 12807
0.10850000 0.10850100 16092.07399843 0 133.16020720 0 5384.53799326 0 700.71539785 0 299.05131379 0 12736
0.10950000 0.10950300 15663.24285820 0 451.85050352 0 5432.48115972 0 -408.69833201 0 -321.61781901 0 12933
0.11050000 0.11050200 15615.41041499 0 350.81000339 0 5644.57154162 0 -193.11795332 0 446.59668540 0 13428
0.11150000 0.11150900 15185.80421202 0 203.03654190 0 5490.37834620 0 -42.83317784 0 410.37800368 0 13453
0.11250000 0.11250000 15008.53629168 0 26.84595876 0 5516.92978111 0 94.14166671 0 188.36017535 0 13668
0.11350000 0.11349100 15231.20074378 0 34.09788862 0 5548.98416146 0 737.33932665 0 -111.46509395 0 13791
0.11450000 0.11448600 15168.42066206 0 255.33445371 0 5706.48798201 0 249.32882473 0 34.77097524 0 14205
0.11550000 0.11549300 14755.20149982 0 422.10138120 0 5207.13720501 0 204.21463726 0 -41.00391905 0 14776
0.11650000 0.11649800 14380.73547446 0 246.63935703 0 5559.21498960 0 464.43420068 0 73.90522153 0 14553
0.11750000 0.11747300 14309.42970263 0 239.51542324 0 5441.36116423 0 -51.31623950 0 538.79704140 0 14568
0.11850000 0.11849100 13978.03502080 0 98.86567409 0 5285.79500052 0 780.13607654 0 530.94122694 0 16015
0.11950000 0.11950300 14089.09043873 0 -24.85260812 0 5054.12874834 0 670.97402615 0 864.59355579 0 15270
0.12050000 0.12050700 14142.56976761 0 -60.79049568 0 4647.69692123 0 747.37196017 0 405.27919810 0 15999
0.12150000 0.12150000 13731.78651684 0 424.49632506 0 4349.15382714 0 47.63690596 0 573.93727867 0 15670
0.12250000 0.12250700 13533.81334908 0 682.54239112 0 4379.22626135 0 -225.20001449 0 646.11554970 0 16887
0.12350000 0.12352200 13177.83810616 0 244.90875266 0 4593.59754216 0 -321.27014801 0 607.35244774 0 16407
0.12450000 0.12449800 12823.96660496 0 150.70098418 0 4516.25735330 0 -259.21862526 0 498.92559972 0 16306
0.12550000 0.12549900 12914.98111497 0 208.31582637 0 4695.14183307 0 -42.54208642 0 454.43921307 0 17523
0.12650000 0.12650100 12783.10972638 0 4.20134936 0 4824.12334489 0 -51.20673421 0 333.27586981 0 17154
0.12750000 0.12750600 12780.23092192 0 110.99894907 0 5428.50619511 0 408.14582300 0 856.48197063 0 18007
0.12850000 0.12850300 12729.74112075 0 75.70148479 0 4750.90206086 0 561.75218521 0 736.95954591 0 17496
0.12950000 0.12949900 12634.62985056 0 43.03569066 0 4602.51076364 0 786.83926198 0 1234.45349403 0 18405
0.13050000 0.13049000 12762.18303247 0 -40.69367251 0 4795.93320590 0 614.56385290 0 1434.43075258 0 18100
0.13150000 0.13148800 12738.26681086 0 -114.77129014 0 4146.59671691 0 713.80620748 0 1352.69485077 0 19059
0.13250000 0.13249300 12601.08070636 0 84.04248852 0 3993.82077906 0 240.94707484 0 1592.52140634 0 18957
0.13350000 0.13349100 12427.57737645 0 260.13541375 0 3618.32502749 0 -181.04690481 0 800.16480490 0 19468
0.13450000 0.13450700 12370.99779663 0 284.61300223 0 3573.14994223 0 -98.75605808 0 772.46184821 0 19953
0.13550000 0.13551000 11966.85794074 0 331.72352987 0 3703.12796327 0 -469.11336515 0 249.75400200 0 19956
0.13650000 0.13649900 11919.13622078 0 180.59736842 0 3367.58115964 0 -75.10136478 0 -20.17277931 0 19723
0.13750000 0.13749600 11864.77110592 0 -44.24213117 0 3717.28946671 0 120.01514317 0 -2.83639745 0 20946
0.13850000 0.13851100 11941.17014717 0 14.91685744 0 3294.78062396 0 105.20048329 0 -553.28407119 0 20955
0.13950000 0.13949800 11813.28479551 0 105.84998586 0 3722.28308521 0 48.78355592 0 -115.66039782 0 20506
0.14050000 0.14048300 11779.07131182 0 299.81530421 0 3682.82131955 0 29.56797909 0 -57.97546781 0 21447
0.14150000 0.14148400 11517.54299960 0 368.91325447 0 3692.33244657 0 -133.73375362 0 236.46056883 0 21771
0.14250000 0.14249400 11332.85662163 0 196.81278812 0 3674.55029291 0 207.61162651 0 -9.79244158 0 22470
0.14350000 0.14350900 11213.82912983 0 8.05939022 0 3530.94224002 0 143.74977866 0 73.26900575 0 22519
0.14450000 0.14449900 11211.72538811 0 -29.61658659 0 3689.27648492 0 461.30183999 0 -395.30303344 0 22218
0.14550000 0.14550500 11137.31936533 0 10.67650028 0 3336.83331362 0 75.09616079 0 -260.79200262 0 23559
0.14650000 0.14650700 11090.92632434 0 218.33074417 0 3355.29087909 0 239.41134339 0 -96.36366085 0 23044
0.14750000 0.14750500 10841.99831777 0 208.62806593 0 3219.33380265 0 114.25864150 0 130.84719854 0 23649
0.14850000 0.14849900 10808.33845032 0 268.75411139 0 3585.90526042 0 175.50852793 0 582.82835550 0 23640
0.14950000 0.14949500 10522.62818070 0 316.69063446 0 3811.54816790 0 -37.81564312 0 852.97093643 0 24457
0.15050000 0.15050000 10393.67988586 0 164.04424282 0 3758.19063459 0 130.70990172 0 975.11860936 0 24591
0.15150000 0.15149900 10156.77642404 0 229.29898913 0 3756.29726705 0 0.46322067 0 1632.65858381 0 25020
0.15250000 0.15250500 10262.37318584 0 95.57431482 0 3957.40390273 0 13.35322373 0 1235.72681139 0 25297
0.15350000 0.15350100 10109.84083914 0 -89.34890019 0 3888.98800768 0 259.55190224 0 1128.56885179 0 25452
0.15450000 0.15450400 10243.22913623 0 28.84085952 0 3682.73274096 0 73.97198765 0 1046.41552333 0 26061
0.15550000 0.15549900 10005.80527514 0 154.64716074 0 3607.25270267 0 151.96876537 0 997.86116454 0 26128
0.15650000 0.15649500 9951.80554700 0 162.99901535 0 3334.59670401 0 420.51582429 0 785.92579518 0 26331
0.15750000 0.15749700 9834.26174672 0 139.28873899 0 3110.60357293 0 204.52355512 0 1095.65968796 0 27345
0.15850000 0.15849900 9636.69825499 0 158.54572631 0 3130.96557827 0 360.59018790 0 866.02299292 0 26980
0.15950000 0.15949700 9552.51536939 0 26.98369848 0 2890.30859833 0 92.81232339 0 745.13092162 0 27777
0.16050000 0.16050000 9328.75475713 0 246.02927194 0 2903.63967742 0 245.82000500 0 762.04389778 0 28224
0.16150000 0.16150500 9180.48525548 0 269.00545317 0 2904.48117410 0 25.49225632 0 915.82963165 0 28075
0.16250000 0.16249700 9033.25655237 0 213.26294110 0 2994.77598300 0 65.70151463 0 991.18455267 0 28590
0.16350000 0.16349900 8776.88794352 0 167.49216476 0 2928.43061269 0 103.29305389 0 785.87154079 0 29163
0.16450000 0.16449100 8841.99321345 0 106.39540858 0 2861.94130215 0 105.25075164 0 872.67303121 0 28996
0.16550000 0.16550500 8606.01982692 0 107.24111275 0 2875.17273031 0 -67.13128393 0 1056.95084040 0 30777
0.16650000 0.16650700 8570.42230262 0 158.77049450 0 2976.71702122 0 162.13315955 0 1192.45616599 0 29211
0.16750000 0.16749900 8494.14505695 0 104.21770374 0 2945.52628221 0 166.73481775 0 867.10697352 0 30922
0.16850000 0.16850800 8385.63627373 0 165.45928593 0 2869.11616863 0 112.00874510 0 959.08477579 0 30867
0.16950000 0.16949900 8232.30671964 0 248.57701388 0 2693.47588003 0 27.50797306 0 906.09041474 0 30852
0.17050000 0.17049200 8145.11216169 0 44.44087940 0 2609.59194721 0 53.85357345 0 1027.48516959 0 31257
0.17150000 0.17149500 8033.83529726 0 59.89009422 0 2487.32026424 0 2.08125382 0 750.25740801 0 32608
0.17250000 0.17250900 8049.36976898 0 25.00651343 0 2407.66595949 0 232.59189854 0 550.73743648 0 32361
0.17350000 0.17350400 8090.39273244 0 -116.25719613 0 2289.90071272 0 54.98760096 0 509.64028845 0 32508
0.17450000 0.17449800 8170.86638922 0 -36.90228705 0 1931.14631627 0 108.37591532 0 209.70208144 0 32791
0.17550000 0.17549800 8207.34969950 0 -36.70475677 0 2102.18051774 0 -24.22547164 0 206.40031418 0 33633
0.17650000 0.17650100 8258.43740621 0 85.56526535 0 2003.20500619 0 -40.07993355 0 160.72808153 0 33984
0.17750000 0.17750300 8126.83175342 0 186.12799467 0 2135.60786637 0 -66.31979324 0 67.46732899 0 34069
0.17850000 0.17849800 7964.06857858 0 150.78402661 0 1934.88876206 0 142.71119459 0 423.62936203 0 34536
