### header ###
fiducial parameters:
Omega_m = 0.31
Omega_nu = 0
Omega_de = 0.69
Omega_k = 0
H_0 = 100
w_de = -1
zeff = 0
beta = 0
fgrowth = 0
b_1 = 2
gamma = 0.55
Lx = 3500 Ly = 3500 Lz = 3500
nx = 700 ny = 700 nz = 700
xoffset = -685.467585 yoffset = -31.7331281 zoffset = 572.489161
bins = 400 dk = 0.001
kx_ny = 0.628318531 ky_ny = 0.628318531 kz_ny = 0.628318531
############################
A(data) = 8.0050054 (not used)
A(ran) = 8.00557874 (used)
Ngal = 475480
weighted Ngal = 0
Nran = 23820508
weighted Nran = 0
SN(data) = 3480.36728
SN(ran) = 69.7314942
SN(data+ran) = 3550.09878
############################
13 columns: k_central k_mean P_0(k) sigma^{lin}_{P_0(k)} P^img_1(k) sigma^{lin}_{P_1(k)} P_2(k) sigma^{lin}_{P_2(k)} P^img_3(k) sigma^{lin}_{P_3(k)} P_4(k) sigma^{lin}_{P_4(k)} N_modes
### header ###
0.00050000 0 0 0 0 0 0 0 0 0 0 0 0
0.00150000 0.00179520 13107.52884356 0 -26649.86788275 0 -988.77300033 0 -47628.38027014 0 -7957.43625602 0 3
0.00250000 0.00253879 22140.10998412 0 -21814.58363445 0 -782.06044659 0 -21839.60708854 0 35039.70056758 0 6
0.00350000 0.00331552 25238.36791487 0 -1171.27480862 0 5619.43736428 0 -8360.38030082 0 14740.36458457 0 7
0.00450000 0.00420575 26745.75421568 0 9645.36788532 0 7413.08755096 0 -13456.97141484 0 29880.10792534 0 24
0.00550000 0.00557378 37346.28727380 0 -22230.46015464 0 -718.44329711 0 -1643.58696840 0 1964.69546047 0 45
0.00650000 0.00659388 50130.72567916 0 -30114.61976500 0 -9003.79309603 0 452.57684803 0 -3571.89876952 0 40
0.00750000 0.00754703 68607.22482728 0 -13214.48750131 0 3959.38584887 0 -11653.17897863 0 -31390.37303061 0 57
0.00850000 0.00846663 69117.21610843 0 11607.22883064 0 -2648.26757780 0 -18751.97858961 0 -12782.11321714 0 75
0.00950000 0.00948925 64527.40530136 0 4481.04736038 0 -2469.27237478 0 -17954.54975617 0 -12338.22371516 0 112
0.01050000 0.01054430 61723.22831778 0 11313.48005320 0 -868.80768261 0 -11771.43140770 0 -29.32782036 0 105
0.01150000 0.01145670 60392.66704433 0 5725.67632092 0 9725.36543213 0 -13329.52895618 0 -3558.54554579 0 144
0.01250000 0.01249090 54756.30009540 0 2512.60945412 0 11652.40391590 0 1871.54399177 0 -2077.00205111 0 169
0.01350000 0.01339930 58035.25836719 0 881.92617306 0 24747.42103241 0 -10753.20934505 0 -8260.66294350 0 180
0.01450000 0.01448870 61871.48674711 0 -2588.84241050 0 24919.15279035 0 13481.10908294 0 -3160.08579254 0 267
0.01550000 0.01550050 62848.17651936 0 -2338.45285705 0 25325.83928094 0 17786.02897243 0 17071.08895889 0 238
0.01650000 0.01653350 59061.55215463 0 848.27737794 0 20219.17235133 0 18852.40457572 0 3259.45990779 0 315
0.01750000 0.01747870 60450.57530313 0 -622.10632056 0 24922.91738079 0 26040.89001773 0 2969.06604477 0 297
0.01850000 0.01844180 58147.64246410 0 -981.75314639 0 3971.78685267 0 10486.10058112 0 -12261.71395067 0 388
0.01950000 0.01947590 61381.86854363 0 -1736.24018249 0 17174.50447270 0 -9508.65789078 0 -617.41940547 0 399
0.02050000 0.02045430 64786.71914861 0 -800.79592742 0 13701.44834683 0 -11715.51616736 0 1858.73331196 0 462
0.02150000 0.02154770 63645.60535280 0 -915.52957165 0 17225.54789011 0 -8436.84577601 0 3778.95124363 0 571
0.02250000 0.02255340 72702.98850095 0 -5850.21783048 0 11336.17831907 0 2775.30036044 0 -138.68751175 0 510
0.02350000 0.02348930 72900.62949896 0 -5714.55970680 0 19221.66660842 0 4930.06334875 0 2003.91363498 0 555
0.02450000 0.02439640 75527.09566919 0 1055.30217123 0 12313.75387731 0 5154.21149238 0 -6675.07281249 0 592
0.02550000 0.02547300 74443.89013218 0 3488.53523596 0 10198.72946278 0 3169.02115867 0 1185.67990320 0 837
0.02650000 0.02652900 71619.22934770 0 2582.11043701 0 6825.64535770 0 2723.08327660 0 9459.46355161 0 723
0.02750000 0.02749970 67574.28764495 0 4624.74399188 0 2063.91456317 0 -2913.23938303 0 1805.39792330 0 826
0.02850000 0.02848090 65569.08962029 0 4778.94825963 0 7492.78614500 0 6555.30347493 0 3866.13472925 0 831
0.02950000 0.02946900 59555.82073453 0 2083.02539581 0 8379.52435043 0 -2011.46496050 0 -206.89856879 0 996
0.03050000 0.03053250 57647.28410554 0 3764.97796971 0 9323.99365746 0 166.41593479 0 6603.42379859 0 1041
0.03150000 0.03150510 58528.08754487 0 2802.23932673 0 13797.44540301 0 -4073.86261517 0 3152.14693565 0 1036
0.03250000 0.03246190 52042.91617534 0 4442.05063237 0 17838.17962233 0 -2593.21597880 0 -438.24483079 0 1059
0.03350000 0.03345080 55891.32411256 0 1724.35957796 0 24619.53568076 0 -2881.30679826 0 8336.94018917 0 1302
0.03450000 0.03451200 51357.31782257 0 -2848.02338985 0 23592.13466083 0 -2967.77058277 0 1169.20428387 0 1339
0.03550000 0.03553350 56773.45623086 0 -791.78084055 0 25129.63768515 0 2716.51738798 0 1045.11563240 0 1365
0.03650000 0.03647120 57945.01891992 0 -2591.94266145 0 23637.30974609 0 6106.23212494 0 -2723.49295262 0 1308
0.03750000 0.03744890 60062.82248798 0 -575.06444134 0 21876.92082318 0 1674.94379229 0 -7403.28854349 0 1579
0.03850000 0.03847530 54718.10057477 0 4761.36540781 0 19440.01285384 0 778.54166176 0 -7401.50589920 0 1662
0.03950000 0.03950240 53442.23658592 0 6758.34776745 0 18931.79314467 0 1064.21096378 0 -1292.32853586 0 1683
0.04050000 0.04050350 45883.60332522 0 3914.11111269 0 15176.50345917 0 3208.10646528 0 5966.53260270 0 1822
0.04150000 0.04152450 45267.09627932 0 -22.01001017 0 13207.95482967 0 8390.58560292 0 -2230.63055796 0 1887
0.04250000 0.04250150 43668.80619175 0 -948.42434146 0 12801.82195532 0 8792.92066986 0 1442.19245228 0 1920
0.04350000 0.04349210 43690.06505540 0 -46.27799954 0 7795.65851809 0 449.25404335 0 -4260.90739834 0 2005
0.04450000 0.04448520 43273.08130273 0 1255.49091119 0 6521.96470490 0 -786.79054375 0 1303.79946437 0 2151
0.04550000 0.04548030 42527.47094944 0 126.62199939 0 8539.69660125 0 -4647.74121052 0 -2323.58272482 0 2274
0.04650000 0.04648670 42384.30578954 0 1001.30465756 0 11000.43221360 0 -4806.68443330 0 -3289.72057152 0 2311
0.04750000 0.04749250 42577.51785762 0 1437.88531792 0 14950.07441663 0 -2162.50254336 0 -4914.53994935 0 2568
0.04850000 0.04851840 40207.04383720 0 891.01876620 0 15181.26455885 0 -2042.71106114 0 -4939.44160787 0 2493
0.04950000 0.04949480 40614.50539052 0 1882.27307452 0 17651.50022589 0 1819.53728210 0 -6901.91153105 0 2644
0.05050000 0.05050630 40310.01645801 0 679.26055404 0 21154.00873577 0 1862.98508469 0 -2520.38222614 0 2829
0.05150000 0.05149060 39195.58696502 0 1443.23325081 0 17743.40052188 0 2873.57831553 0 -13.80209578 0 2784
0.05250000 0.05249300 37742.12288607 0 393.44288287 0 15942.04399714 0 4350.93647144 0 -26.70323649 0 3055
0.05350000 0.05348950 38124.89315505 0 91.06599632 0 13876.50180222 0 3073.77702058 0 -871.43071636 0 3009
0.05450000 0.05448610 37588.10684784 0 501.97491798 0 13142.07449700 0 599.52763579 0 -658.15781017 0 3336
0.05550000 0.05550870 35988.04518830 0 1593.78365137 0 11829.67183624 0 -73.23014189 0 -545.32196241 0 3349
0.05650000 0.05647670 35798.59771065 0 470.69227867 0 11138.53732106 0 -1460.83824727 0 1441.80492091 0 3324
0.05750000 0.05747970 35449.15513938 0 927.11343788 0 13069.99366243 0 -1489.75915970 0 -36.99341228 0 3639
0.05850000 0.05849280 35041.80430930 0 731.72676520 0 13069.55076943 0 1069.90767490 0 -907.50545786 0 3846
0.05950000 0.05951020 34276.48521784 0 181.46322422 0 12727.85882553 0 2484.47467676 0 2707.31628606 0 3787
0.06050000 0.06049470 33719.99017245 0 98.23842689 0 10199.03948787 0 3144.28558502 0 720.62233064 0 3930
0.06150000 0.06148310 33637.94424554 0 295.84476853 0 11884.70129059 0 3325.08557699 0 2589.58425626 0 4083
0.06250000 0.06249100 32998.07459427 0 1149.58412430 0 8982.09133938 0 2649.24194238 0 1650.24143562 0 4303
0.06350000 0.06350600 31153.53600274 0 872.96091165 0 8673.26205554 0 1319.00176635 0 376.88422111 0 4470
0.06450000 0.06451750 31176.67716161 0 645.57854195 0 7874.57097707 0 -2486.05801921 0 115.25182904 0 4479
0.06550000 0.06550280 29939.89847936 0 104.19555909 0 9928.05541026 0 -1790.74923757 0 -411.41548052 0 4636
0.06650000 0.06648880 30552.64093483 0 1119.33453289 0 11041.11193498 0 -3121.67589775 0 -68.14672684 0 4653
0.06750000 0.06749660 30292.77347133 0 524.01991669 0 10469.06027323 0 -1120.35318677 0 224.93870762 0 5220
0.06850000 0.06852730 29975.88353502 0 -107.42347394 0 10772.67449208 0 1654.94717367 0 -383.48000500 0 5029
0.06950000 0.06949320 29870.91789574 0 108.65050898 0 9584.83548553 0 3838.25461536 0 -109.21851924 0 5040
0.07050000 0.07048030 30332.08022444 0 -154.16883631 0 9446.27641275 0 2432.25759291 0 -2635.22437916 0 5475
0.07150000 0.07148790 29044.03667829 0 1593.00858863 0 8724.92552314 0 1206.66195874 0 -1416.81468379 0 5509
0.07250000 0.07249820 27838.70339853 0 2013.82336569 0 6597.19007972 0 577.26783398 0 -697.66829406 0 5916
0.07350000 0.07351270 26026.16382572 0 942.16515624 0 6785.05421492 0 -468.13235717 0 1844.92612291 0 5721
0.07450000 0.07449140 25569.09825720 0 383.83321216 0 5353.35832657 0 1477.22528800 0 -819.69527865 0 6028
0.07550000 0.07549160 25694.65842065 0 -572.72153741 0 6094.56189458 0 1666.89421215 0 -527.43019274 0 6183
0.07650000 0.07648840 25550.38602826 0 -234.09994918 0 4382.59224809 0 922.42763001 0 -536.67558396 0 6330
0.07750000 0.07749960 25851.88543307 0 391.95808412 0 5366.67833332 0 263.60105142 0 550.47612961 0 6583
0.07850000 0.07848650 25119.11897657 0 925.34850930 0 5541.27782339 0 5.79267496 0 2321.88865912 0 6549
0.07950000 0.07947320 24294.89511707 0 1054.23479912 0 6140.26845143 0 577.22686638 0 2133.49305233 0 6828
0.08050000 0.08048110 23538.32316222 0 586.15558911 0 6783.63695734 0 -281.13407777 0 2356.41216790 0 7147
0.08150000 0.08149960 22812.64299360 0 619.02489257 0 6697.77107837 0 529.74320139 0 1695.88155852 0 7386
0.08250000 0.08250610 22522.21591361 0 300.48517986 0 6558.52552145 0 -154.23969919 0 1651.60333157 0 7227
0.08350000 0.08350160 22436.18394977 0 65.98662699 0 6248.51149886 0 160.93070508 0 1157.64477676 0 7798
0.08450000 0.08449610 21790.33524310 0 844.37216897 0 6045.66650818 0 -43.08319093 0 51.54133986 0 7371
0.08550000 0.08548940 21803.62203288 0 431.66233368 0 5286.73614813 0 670.38497847 0 1195.48998299 0 8256
0.08650000 0.08650700 20965.33632086 0 -149.98017583 0 5179.91035828 0 762.07268583 0 -686.29369477 0 8037
0.08750000 0.08749060 21081.15283846 0 287.40654978 0 4990.16392787 0 -681.40415613 0 -408.01184787 0 8155
0.08850000 0.08849210 20677.45587557 0 447.17687522 0 5955.28312068 0 -29.18443376 0 226.05590519 0 8718
0.08950000 0.08949900 20632.39151356 0 330.49671628 0 5623.14659310 0 -33.71356822 0 883.90036858 0 8571
0.09050000 0.09049190 20173.11148008 0 196.22595490 0 5746.87982295 0 411.19181956 0 886.24327251 0 8932
0.09150000 0.09150830 20195.47757622 0 408.79023230 0 5518.71242541 0 202.54935960 0 26.18416590 0 9285
0.09250000 0.09250820 19802.63149165 0 444.68228044 0 5763.22257438 0 -575.69556385 0 -405.73205619 0 9204
0.09350000 0.09350330 19200.73991451 0 945.93196114 0 5612.11855758 0 -664.98168396 0 -435.86981711 0 9349
0.09450000 0.09448040 18797.59656786 0 661.67438053 0 6199.88184825 0 -293.37231839 0 375.60536759 0 9564
0.09550000 0.09549270 18369.87266012 0 35.27122288 0 5768.00581870 0 663.74933421 0 -274.65898222 0 10155
0.09650000 0.09649430 18394.89611421 0 -120.53554244 0 5818.62848777 0 692.74000228 0 -50.81134149 0 9913
0.09750000 0.09749140 18847.86492254 0 -295.84476853 0 6099.95411676 0 -106.30184744 0 -684.96944472 0 10476
0.09850000 0.09850240 18537.83982762 0 527.33607798 0 6783.40443852 0 -298.52648560 0 130.06106348 0 10575
0.09950000 0.09950330 18461.77295611 0 356.03392624 0 6517.70185985 0 107.66750798 0 1277.74628407 0 10882
0.10050000 0.10051200 17884.35121682 0 478.96219808 0 6578.95396074 0 440.75271236 0 1523.07578508 0 10875
0.10150000 0.10150300 17850.69134937 0 185.46033348 0 7007.81831794 0 975.56039512 0 1809.74934696 0 11118
0.10250000 0.10250800 17473.78941255 0 306.23060921 0 6590.72384203 0 1388.18165181 0 701.91674509 0 11575
0.10350000 0.10349800 17204.17830321 0 413.35203013 0 6193.51526148 0 34.28800044 0 1376.77715725 0 11364
0.10450000 0.10450100 16941.32131202 0 542.42987117 0 6418.81492689 0 -224.75490703 0 1607.84550389 0 12093
0.10550000 0.10551000 16355.04171287 0 294.39761567 0 5559.27035122 0 222.55372885 0 2144.44358158 0 12067
0.10650000 0.10649700 16449.26719708 0 -329.82351893 0 5528.86574727 0 163.14074111 0 2010.03663060 0 12054
0.10750000 0.10749900 16621.33112476 0 -69.11035127 0 5479.90392692 0 855.47549630 0 1131.89054924 0 12807
0.10850000 0.10850100 16478.60885785 0 391.00364972 0 5007.35924831 0 736.63291232 0 628.35886239 0 12736
0.10950000 0.10950300 16079.67299463 0 310.80458659 0 4337.68289863 0 360.40970901 0 695.47929544 0 12933
0.11050000 0.11050200 15518.63829607 0 650.08497815 0 4270.86141835 0 -128.67148672 0 1276.06329070 0 13428
0.11150000 0.11150900 15308.04267802 0 416.87081496 0 4323.17815312 0 545.34964322 0 775.42480233 0 13453
0.11250000 0.11250000 14734.49625241 0 85.49606332 0 4007.27365371 0 55.10064940 0 1152.65115827 0 13668
0.11350000 0.11349100 14740.36458457 0 329.31972815 0 4752.89507933 0 322.11718086 0 1182.73466480 0 13791
0.11450000 0.11448600 14671.93761719 0 126.55777991 0 4513.85465882 0 167.43458868 0 928.06897951 0 14205
0.11550000 0.11549300 14383.72500216 0 197.61774613 0 4600.88313189 0 315.09954139 0 1335.20057756 0 14776
0.11650000 0.11649800 14498.10211754 0 43.51202207 0 4610.21710171 0 -78.15356184 0 780.82034621 0 14553
0.11750000 0.11747300 14412.62376994 0 -61.60508661 0 4405.65590069 0 -97.57574825 0 1039.40342003 0 14568
0.11850000 0.11849100 14376.63871427 0 220.92498987 0 4114.60877051 0 562.31355208 0 792.64337465 0 16015
0.11950000 0.11950300 14285.84565076 0 138.71187086 0 3355.61197651 0 40.87260128 0 -187.23190545 0 15270
0.12050000 0.12050700 13879.26988342 0 363.19218424 0 3790.35573819 0 -58.71565273 0 -179.34287402 0 15999
0.12150000 0.12150000 13628.81389602 0 489.21849255 0 3537.95102163 0 -433.05301768 0 -534.50319383 0 15670
0.12250000 0.12250700 13060.47146308 0 252.83543000 0 3853.77801475 0 191.39731405 0 -222.50390339 0 16887
0.12350000 0.12352200 13021.38615647 0 61.12332976 0 3524.68637649 0 162.01911461 0 40.21014409 0 16407
0.12450000 0.12449800 13225.78127262 0 -42.05545774 0 3879.44366368 0 219.69596182 0 -261.10092048 0 16306
0.12550000 0.12549900 13055.48891691 0 52.00338798 0 3896.46182693 0 235.59139133 0 393.08192508 0 17523
0.12650000 0.12650100 13008.98515268 0 164.88906120 0 3655.82699165 0 51.79954648 0 166.06715656 0 17154
0.12750000 0.12750600 13063.68243728 0 -63.03452375 0 3469.55727122 0 332.38565489 0 447.25881042 0 18007
0.12850000 0.12850300 12975.65745497 0 118.68646420 0 3655.84913630 0 -36.44776811 0 -240.44992746 0 17496
0.12950000 0.12949900 13059.58567710 0 255.78509733 0 3526.32508057 0 -96.18738944 0 -281.33227239 0 18405
0.13050000 0.13049000 12657.10666994 0 211.17912957 0 3730.99700484 0 56.21862203 0 243.57564476 0 18100
0.13150000 0.13148800 12700.06729024 0 97.30403340 0 3480.20884770 0 -41.95060283 0 -179.88541793 0 19059
0.13250000 0.13249300 12760.85435349 0 -161.38356316 0 3865.19358164 0 461.58972043 0 112.43170791 0 18957
0.13350000 0.13349100 12722.54410962 0 142.25169311 0 3393.09179602 0 150.66001657 0 -215.51615920 0 19468
0.13450000 0.13450700 12567.64228540 0 412.82277300 0 3862.77981483 0 -78.32617938 0 -217.05299788 0 19953
0.13550000 0.13551000 12138.70042193 0 299.74001240 0 3760.10614679 0 61.48816286 0 537.36538980 0 19956
0.13650000 0.13649900 11925.55816917 0 387.14494452 0 3758.03562205 0 68.17706501 0 459.67531547 0 19723
0.13750000 0.13749600 11668.23734039 0 233.55740526 0 3511.73175646 0 209.56146291 0 401.79141579 0 20946
0.13850000 0.13851100 11291.55685006 0 275.97991057 0 3410.69679249 0 376.89307897 0 70.52317991 0 20955
0.13950000 0.13949800 11193.12388242 0 152.99406265 0 3334.80707818 0 375.29755696 0 112.82477544 0 20506
0.14050000 0.14048300 11210.83960213 0 -22.96776626 0 3213.42118119 0 277.13586128 0 86.74468939 0 21447
0.14150000 0.14148400 10981.12207912 0 169.72323822 0 3145.97965072 0 24.49486130 0 399.78953946 0 21771
0.14250000 0.14249400 11064.88421637 0 175.63364520 0 3109.42990650 0 272.29282641 0 216.54145648 0 22470
0.14350000 0.14350900 10727.99766144 0 68.00599759 0 3174.01477716 0 -296.73498344 0 28.88260218 0 22519
0.14450000 0.14449900 10860.78805299 0 237.79589120 0 3402.31504260 0 -216.30561596 0 347.81493953 0 22218
0.14550000 0.14550500 10607.45326114 0 280.44980810 0 3629.05411023 0 -394.78152694 0 211.33746381 0 23559
0.14650000 0.14650700 10437.06125450 0 348.35637621 0 3689.99618604 0 -16.70869177 0 416.73241090 0 23044
0.14750000 0.14750500 10253.74784480 0 40.38851924 0 3517.07968934 0 69.60528419 0 375.47028523 0 23649
0.14850000 0.14849900 10216.32338692 0 -18.46133006 0 3527.97485697 0 551.37077346 0 397.77769804 0 23640
0.14950000 0.14949500 10295.23584590 0 -130.76304888 0 3284.22869841 0 511.51151134 0 -285.19319205 0 24457
0.15050000 0.15050000 10145.01761508 0 27.03961372 0 3053.83576358 0 713.70544932 0 -114.33171884 0 24591
0.15150000 0.15149900 10135.93830873 0 179.97731823 0 2728.15440137 0 37.44759905 0 -11.94670631 0 25020
0.15250000 0.15250500 10034.72618757 0 77.79171826 0 2653.00653282 0 -33.62177865 0 61.51728308 0 25297
0.15350000 0.15350100 9923.39396151 0 146.90649846 0 2565.80090255 0 50.47828596 0 -121.32278474 0 25452
0.15450000 0.15450400 9739.75945440 0 229.16944293 0 2537.46682334 0 34.55218611 0 -37.90211798 0 26061
0.15550000 0.15549900 9688.06276982 0 194.25286662 0 2534.24477682 0 177.73960138 0 62.36442665 0 26128
0.15650000 0.15649500 9585.07907668 0 75.25715239 0 2439.86428006 0 100.30219751 0 38.07440335 0 26331
0.15750000 0.15749700 9671.58715049 0 -17.70819053 0 2337.23490132 0 6.77496733 0 -68.30483964 0 27345
0.15850000 0.15849900 9572.72236218 0 175.89052314 0 2549.01525812 0 -150.48285938 0 -96.80334287 0 26980
0.15950000 0.15949700 9464.97756937 0 308.76174266 0 2710.19509051 0 -247.71115808 0 430.18417832 0 27777
0.16050000 0.16050000 9190.79358989 0 152.89773342 0 2846.56184298 0 -126.81244338 0 278.80556786 0 28224
0.16150000 0.16150500 9192.89733160 0 23.46701739 0 3021.03953747 0 415.93741797 0 436.90397225 0 28075
0.16250000 0.16249700 9022.29495080 0 79.90575724 0 2775.84290436 0 502.09892802 0 442.48220950 0 28590
0.16350000 0.16349900 9029.39231101 0 179.00184641 0 2392.44151286 0 722.12816681 0 403.67813994 0 29163
0.16450000 0.16449100 8827.36667237 0 35.99933896 0 2151.26413366 0 323.18787467 0 492.10836933 0 28996
0.16550000 0.16550500 8763.40185189 0 211.56666094 0 2407.56630857 0 -182.93030726 0 333.66893734 0 30777
0.16650000 0.16650700 8513.11194936 0 244.48800432 0 2287.02190827 0 -154.62058716 0 745.74875735 0 29211
0.16750000 0.16749900 8385.44804420 0 194.65700647 0 2212.74875338 0 -171.88344879 0 624.78914487 0 30922
0.16850000 0.16850800 8441.61794801 0 -62.95280999 0 2304.98121912 0 -76.05369544 0 604.96193281 0 30867
0.16950000 0.16949900 8332.75485039 0 46.86948313 0 2538.91729789 0 132.16037627 0 371.26612349 0 30852
0.17050000 0.17049200 8294.68819767 0 222.11083586 0 2308.97832838 0 -72.09434281 0 427.57996752 0 31257
0.17150000 0.17149500 8191.49413036 0 76.65160098 0 2392.50794681 0 74.52350015 0 568.63252785 0 32608
0.17250000 0.17250900 8099.43882181 0 37.39456261 0 2125.52097846 0 143.20723474 0 360.97550481 0 32361
0.17350000 0.17350400 8059.44558457 0 78.15057231 0 2307.27319036 0 118.70971608 0 311.50767922 0 32508
0.17450000 0.17449800 8107.44411266 0 34.13542380 0 2033.42138062 0 68.26298625 0 -70.43371553 0 32791
0.17550000 0.17549800 7872.29007816 0 257.28207565 0 2210.40142052 0 -53.32077318 0 373.64778056 0 33633
0.17650000 0.17650100 7876.25397044 0 166.05497700 0 2037.69529800 0 -53.88989068 0 103.40565944 0 33984
0.17750000 0.17750300 7629.41863326 0 24.65961750 0 2136.89225605 0 160.77347806 0 440.54676712 0 34069
0.17850000 0.17849800 7764.97710602 0 5.19845650 0 2140.51290627 0 -2.53153206 0 219.61845555 0 34536
