### header ###
fiducial parameters:
Omega_m = 0.31
Omega_nu = 0
Omega_de = 0.69
Omega_k = 0
H_0 = 100
w_de = -1
zeff = 0
beta = 0
fgrowth = 0
b_1 = 2
gamma = 0.55
Lx = 3500 Ly = 3500 Lz = 3500
nx = 700 ny = 700 nz = 700
xoffset = -685.467585 yoffset = -31.7331281 zoffset = 572.489161
bins = 400 dk = 0.001
kx_ny = 0.628318531 ky_ny = 0.628318531 kz_ny = 0.628318531
############################
A(data) = 7.9930304 (not used)
A(ran) = 7.98948596 (used)
Ngal = 475138
weighted Ngal = 0
Nran = 23820508
weighted Nran = 0
SN(data) = 3489.0363
SN(ran) = 69.5913203
SN(data+ran) = 3558.62762
############################
13 columns: k_central k_mean P_0(k) sigma^{lin}_{P_0(k)} P^img_1(k) sigma^{lin}_{P_1(k)} P_2(k) sigma^{lin}_{P_2(k)} P^img_3(k) sigma^{lin}_{P_3(k)} P_4(k) sigma^{lin}_{P_4(k)} N_modes
### header ###
0.00050000 0 0 0 0 0 0 0 0 0 0 0 0
0.00150000 0.00179520 19803.29583114 0 -30722.37967430 0 -7211.37193741 0 -56474.50346075 0 -731.74558815 0 3
0.00250000 0.00253879 44970.69014392 0 -39443.05342471 0 -21816.13375992 0 -32055.59830571 0 -61087.78759644 0 6
0.00350000 0.00331552 76078.49744516 0 -46819.98983514 0 -32416.11320181 0 5507.41865409 0 73914.85445235 0 7
0.00450000 0.00420575 94083.75844900 0 -18435.97443929 0 -16212.20872271 0 -49681.74290776 0 17224.99427387 0 24
0.00550000 0.00557378 104868.97788510 0 6111.21467110 0 2142.68308193 0 -42337.24840906 0 22999.76528304 0 45
0.00650000 0.00659388 78873.37367588 0 3245.98488848 0 28024.71845548 0 -21591.58701260 0 18968.44253982 0 40
0.00750000 0.00754703 82487.49121994 0 12204.47003135 0 26095.25513259 0 9066.93856447 0 -1079.20621328 0 57
0.00850000 0.00846663 77947.72732104 0 2392.92869516 0 44157.20643950 0 -4344.31522119 0 -10018.85954610 0 75
0.00950000 0.00948925 65468.22074120 0 9000.33853068 0 25312.66321440 0 -4348.02445001 0 -7264.00976960 0 112
0.01050000 0.01054430 68589.39838432 0 8667.34943409 0 43108.65727917 0 -3715.73934124 0 20592.08825122 0 105
0.01150000 0.01145670 72289.21572247 0 902.85397420 0 41605.92135479 0 -6132.75034288 0 20565.73611815 0 144
0.01250000 0.01249090 68722.48772864 0 2986.88141540 0 37162.37595857 0 16875.44097935 0 12989.38713775 0 169
0.01350000 0.01339930 72484.19936253 0 -4018.81101618 0 24745.87090694 0 -3601.66117863 0 -8327.60621935 0 180
0.01450000 0.01448870 78362.27516225 0 -3500.27190027 0 34550.41453385 0 19611.85533503 0 -7589.06000930 0 267
0.01550000 0.01550050 81849.61458713 0 3515.31918970 0 34252.23682648 0 -2878.42799380 0 -8208.08047293 0 238
0.01650000 0.01653350 75830.03447623 0 5211.71007516 0 34775.51489741 0 3533.03490941 0 -7058.87280768 0 315
0.01750000 0.01747870 68960.09981925 0 2278.77302628 0 32364.73761465 0 504.43186686 0 9307.65090602 0 297
0.01850000 0.01844180 70023.26444834 0 4352.66375411 0 32586.18411102 0 11987.45246491 0 3806.99744240 0 388
0.01950000 0.01947590 65833.05384397 0 2024.20920637 0 23819.22804286 0 26074.43916193 0 11815.27781398 0 399
0.02050000 0.02045430 63977.99654385 0 -2329.62821417 0 22468.73658473 0 9159.39247670 0 7151.22706900 0 462
0.02150000 0.02154770 66559.61979857 0 -2374.71472083 0 13455.53201261 0 12483.27117029 0 1525.22381609 0 571
0.02250000 0.02255340 65458.25564886 0 317.31954251 0 13546.32507612 0 -3238.01281461 0 9387.99169491 0 510
0.02350000 0.02348930 71077.68194082 0 196.82386044 0 15978.80411553 0 -14420.70656705 0 -1026.76214678 0 555
0.02450000 0.02439640 65790.09322367 0 4011.17111205 0 23811.92030848 0 -15711.29674791 0 5574.69409969 0 592
0.02550000 0.02547300 63599.65520480 0 5105.75899897 0 30040.43518872 0 -6428.21533066 0 11897.54518738 0 837
0.02650000 0.02652900 61522.81923857 0 1076.75147887 0 34576.54522042 0 1906.75398469 0 4105.70662135 0 723
0.02750000 0.02749970 61914.77953715 0 1025.44011120 0 36504.90131084 0 -621.73539768 0 -6728.58535834 0 826
0.02850000 0.02848090 59197.52030340 0 5048.24934386 0 42453.50781965 0 3779.13947315 0 555.85174331 0 831
0.02950000 0.02946900 58422.56828935 0 4915.38144604 0 41474.60358244 0 8686.15024163 0 11838.75114259 0 996
0.03050000 0.03053250 54507.72640322 0 -1419.31702920 0 32884.36181839 0 10203.03659713 0 16995.35425713 0 1041
0.03150000 0.03150510 59748.58990963 0 -1399.59721870 0 35063.94895894 0 6052.28775842 0 9385.55578345 0 1036
0.03250000 0.03246190 56372.74879567 0 1578.82494054 0 33677.36172190 0 3731.11880041 0 10962.15518670 0 1059
0.03350000 0.03345080 54927.58896034 0 2755.21516322 0 32975.26560515 0 6961.84602530 0 14864.81751553 0 1302
0.03450000 0.03451200 53222.56166152 0 2139.78213283 0 31292.49367921 0 7846.90123735 0 13412.79283881 0 1339
0.03550000 0.03553350 50951.62784121 0 1168.61745066 0 31487.36659602 0 7414.90341223 0 8908.82576606 0 1365
0.03650000 0.03647120 50804.69809087 0 1949.96926846 0 24711.76814650 0 7844.06672220 0 11832.99353369 0 1308
0.03750000 0.03744890 49670.78130619 0 632.57077475 0 23819.22804286 0 1931.58920926 0 15340.15241999 0 1579
0.03850000 0.03847530 49789.91952124 0 -1067.01447643 0 21981.44356947 0 3290.37383868 0 9881.98346669 0 1662
0.03950000 0.03950240 50629.09101925 0 787.50027977 0 23402.90862968 0 -168.21186588 0 6159.11354827 0 1683
0.04050000 0.04050350 49468.48993176 0 1318.23777593 0 22056.73537823 0 -3209.86696493 0 4064.79438115 0 1822
0.04150000 0.04152450 50047.46179652 0 -1104.43339815 0 21863.52331015 0 -1236.16970438 0 3989.64651260 0 1887
0.04250000 0.04250150 50744.57536710 0 1196.92938522 0 20540.38049432 0 -363.14235877 0 1988.67811603 0 1920
0.04350000 0.04349210 48890.73602272 0 1255.36911561 0 23970.47599989 0 66.72415455 0 413.46275338 0 2005
0.04450000 0.04448520 49607.11543848 0 1487.68863496 0 24534.38950290 0 2723.17185520 0 1386.38793519 0 2151
0.04550000 0.04548030 46857.85718601 0 2343.91151318 0 21346.22429462 0 2573.41866202 0 2048.14757263 0 2274
0.04650000 0.04648670 44020.35250474 0 2144.19999043 0 21234.17236746 0 4190.34347227 0 6136.26026984 0 2311
0.04750000 0.04749250 42990.84774310 0 3504.60117927 0 21349.98888506 0 2968.50135620 0 4149.92948668 0 2568
0.04850000 0.04851840 39933.66813743 0 2384.65766852 0 20883.84401019 0 3293.57374055 0 4842.50340408 0 2493
0.04950000 0.04949480 37967.33397288 0 233.60280179 0 17373.80631943 0 2863.97860992 0 8293.32630171 0 2644
0.05050000 0.05050630 37144.77096211 0 -285.35152630 0 14556.45326933 0 5300.85336228 0 3551.96858485 0 2829
0.05150000 0.05149060 37861.15037787 0 -7.09173547 0 13644.09370427 0 5071.05833299 0 4094.81145373 0 2784
0.05250000 0.05249300 37566.07292146 0 -1540.40397342 0 9564.41811857 0 4041.14389534 0 1837.26407413 0 3055
0.05350000 0.05348950 37298.67627708 0 -922.57932086 0 6748.54875999 0 143.65234220 0 3784.98566066 0 3009
0.05450000 0.05448610 38531.69036889 0 861.87087112 0 8902.56990253 0 -426.13613637 0 -161.57732885 0 3336
0.05550000 0.05550870 36348.11719140 0 2184.41467417 0 8401.13752847 0 -2054.92383542 0 2190.71482699 0 3349
0.05650000 0.05647670 34894.32094272 0 2425.58098105 0 10519.90438879 0 137.00784007 0 1389.05636547 0 3324
0.05750000 0.05747970 34042.85916416 0 1507.13163734 0 10903.13969542 0 -661.27909854 0 5539.17408167 0 3639
0.05850000 0.05849280 34135.31307640 0 301.34217780 0 12578.49316373 0 -2.37606554 0 6414.65173276 0 3846
0.05950000 0.05951020 33316.07176307 0 135.14436781 0 13241.06108087 0 88.25539739 0 5473.82522059 0 3787
0.06050000 0.06049470 34960.31199863 0 122.38129899 0 14720.65584639 0 95.84713690 0 5999.01880372 0 3930
0.06150000 0.06148310 33875.44561290 0 838.60238051 0 14244.87804893 0 -1270.90358733 0 6542.82496486 0 4083
0.06250000 0.06249100 33237.56898010 0 1329.32117308 0 16180.09898074 0 -803.96150508 0 5856.28546448 0 4303
0.06350000 0.06350600 31978.09203198 0 1547.46811665 0 15554.18045874 0 915.63697320 0 3547.92718629 0 4470
0.06450000 0.06451750 30319.34705090 0 543.19053988 0 14796.50127140 0 3341.58334097 0 4330.97306979 0 4479
0.06550000 0.06550280 29946.65259750 0 474.85436557 0 14054.76623180 0 4115.72707531 0 3877.60565776 0 4636
0.06650000 0.06648880 29684.23849930 0 149.00802571 0 11914.15367461 0 4546.92769305 0 3676.29972024 0 4653
0.06750000 0.06749660 29506.08479297 0 -359.50842177 0 8761.63027992 0 3539.02503713 0 4046.37003265 0 5220
0.06850000 0.06852730 28841.63458060 0 -193.12791842 0 6051.09194734 0 1841.00651992 0 4638.91656764 0 5029
0.06950000 0.06949320 29966.36133568 0 -1359.89186190 0 5961.46147793 0 87.86022611 0 3637.60194499 0 5040
0.07050000 0.07048030 30534.81449187 0 -178.06512773 0 6526.01717579 0 -1273.37271577 0 1716.27678084 0 5475
0.07150000 0.07148790 29967.80073791 0 915.14979091 0 7424.14880345 0 -3939.76568930 0 927.32491928 0 5509
0.07250000 0.07249820 29553.47434319 0 1199.79711735 0 9057.37207582 0 -3271.59517579 0 -207.56955168 0 5916
0.07350000 0.07351270 28061.70002038 0 1001.31019372 0 10107.69280812 0 -2145.28507826 0 350.74578391 0 5721
0.07450000 0.07449140 28024.49700899 0 823.77653758 0 11318.90549236 0 219.16449023 0 422.77900748 0 6028
0.07550000 0.07549160 27673.39358899 0 206.18883277 0 10597.21136068 0 1637.01000746 0 362.32743567 0 6183
0.07650000 0.07648840 27454.82589707 0 496.27931409 0 10272.64830327 0 2566.66454389 0 34.57001255 0 6330
0.07750000 0.07749960 26607.12870895 0 696.25546541 0 9976.92865201 0 753.55585358 0 99.57319565 0 6583
0.07850000 0.07848650 25685.68983754 0 907.21314848 0 9130.01759896 0 279.52859067 0 181.70570813 0 6549
0.07950000 0.07947320 24965.76727784 0 1035.49599660 0 8805.83100059 0 -257.15474391 0 -1246.37838786 0 6828
0.08050000 0.08048110 24111.31597158 0 895.68021495 0 9079.32849594 0 404.44102312 0 93.10020384 0 7147
0.08150000 0.08149960 23905.92434619 0 290.64299033 0 7955.23286338 0 1090.36379500 0 -916.04886369 0 7386
0.08250000 0.08250610 23429.37148600 0 -4.78386437 0 7089.31062861 0 959.63839203 0 -47.20231721 0 7227
0.08350000 0.08350160 23574.75111087 0 231.70611255 0 6923.24790098 0 1114.23019115 0 -2071.34409312 0 7798
0.08450000 0.08449610 23135.40126207 0 496.56830177 0 6498.31421909 0 1077.36710013 0 -385.67675425 0 7371
0.08550000 0.08548940 22590.86432748 0 769.53432552 0 5896.26762940 0 1344.27988391 0 -458.37210284 0 8256
0.08650000 0.08650700 21399.59290025 0 508.98702129 0 5721.80100723 0 195.72216412 0 -925.94641484 0 8037
0.08750000 0.08749060 21164.97033734 0 755.56105160 0 5787.67026758 0 -403.81543676 0 -1366.05914683 0 8155
0.08850000 0.08849210 20448.14802858 0 562.48406588 0 6490.13177105 0 -881.78001837 0 -1049.38069192 0 8718
0.08950000 0.08949900 19976.46699131 0 205.34069269 0 6723.64710147 0 -785.18505665 0 -1432.69239758 0 8571
0.09050000 0.09049190 20653.31820747 0 164.56685655 0 7411.16096644 0 -844.11086211 0 -2062.72982441 0 8932
0.09150000 0.09150830 20104.68451271 0 240.75109469 0 8387.71787079 0 -1076.39716448 0 -2083.16933603 0 9285
0.09250000 0.09250820 19923.09838568 0 855.52975069 0 8740.55964579 0 -540.38259831 0 -1324.22790366 0 9204
0.09350000 0.09350330 19777.27586782 0 363.80669826 0 9368.34939068 0 295.79051414 0 -916.99665469 0 9349
0.09450000 0.09448040 19158.00074071 0 235.90473812 0 9082.42874689 0 996.02537308 0 256.22023970 0 9564
0.09550000 0.09549270 19016.38570628 0 541.50422481 0 9037.47510813 0 1451.05031213 0 -271.03168861 0 10155
0.09650000 0.09649430 18911.08789726 0 261.51059650 0 8223.89175278 0 1623.96680883 0 -39.72085805 0 9913
0.09750000 0.09749140 18324.47612836 0 88.38793312 0 6810.89702104 0 1175.89196807 0 -462.59619476 0 10476
0.09850000 0.09850240 18008.91487103 0 376.62845040 0 6124.81148598 0 276.01644924 0 -415.09813575 0 10575
0.09950000 0.09950330 17669.76956184 0 496.69120457 0 5310.94025019 0 442.11682278 0 -546.65064139 0 10882
0.10050000 0.10051200 17171.40422175 0 522.15090826 0 4925.94444392 0 303.08274726 0 -420.76052267 0 10875
0.10150000 0.10150300 16895.81405701 0 225.81342128 0 4932.92000855 0 158.55679864 0 -1151.98681878 0 11118
0.10250000 0.10250800 16406.63874653 0 421.87661301 0 4969.14865536 0 98.40451176 0 -1057.01838158 0 11575
0.10350000 0.10349800 16179.76681099 0 318.06803167 0 5482.21804281 0 -655.17160417 0 -1175.69266622 0 11364
0.10450000 0.10450100 15831.43147220 0 139.50022039 0 5741.55403471 0 -21.13020324 0 82.88974878 0 12093
0.10550000 0.10551000 16181.98127596 0 -217.26447929 0 6185.55425994 0 656.79812868 0 -1.64483814 0 12067
0.10650000 0.10649700 16290.60078243 0 -196.57030420 0 5659.43060153 0 836.67025983 0 219.33389680 0 12054
0.10750000 0.10749900 16387.81579433 0 10.86977878 0 5139.05347970 0 853.60316617 0 558.78701662 0 12807
0.10850000 0.10850100 16416.16094587 0 243.81591420 0 5042.45851798 0 657.35617386 0 1014.27699331 0 12736
0.10950000 0.10950300 16201.91146063 0 157.04321183 0 4724.07381782 0 66.99254770 0 809.71357783 0 12933
0.11050000 0.11050200 15758.13268190 0 210.41403192 0 4233.96843205 0 378.91377825 0 859.93432151 0 13428
0.11150000 0.11150900 15629.80443725 0 221.12207726 0 4447.23248038 0 -162.98905026 0 -144.39861689 0 13453
0.11250000 0.11250000 15643.97701302 0 438.72315522 0 4962.64920069 0 -563.53704397 0 37.26468424 0 13668
0.11350000 0.11349100 15278.03667776 0 410.83861240 0 5244.93812194 0 -864.57584007 0 -536.58036197 0 13791
0.11450000 0.11448600 14949.85297014 0 383.52983046 0 5237.87397871 0 -244.35624366 0 -502.33033960 0 14205
0.11550000 0.11549300 14848.09830505 0 183.27465656 0 5924.25846654 0 -108.37945847 0 66.41324366 0 14776
0.11650000 0.11649800 14970.44749430 0 79.26511253 0 5825.41582289 0 742.17682536 0 -178.41944213 0 14553
0.11750000 0.11747300 14600.18895236 0 162.40775321 0 5570.04372327 0 720.91131831 0 -109.63184913 0 14568
0.11850000 0.11849100 14419.37788807 0 193.38479635 0 4991.94657216 0 516.03344880 0 53.56314637 0 16015
0.11950000 0.11950300 14383.17138592 0 232.80891610 0 5173.48840989 0 559.62297715 0 880.84440693 0 15270
0.12050000 0.12050700 14086.54380403 0 134.53760441 0 4985.94537211 0 270.68069591 0 590.62216494 0 15999
0.12150000 0.12150000 14007.48740482 0 198.86116821 0 4701.18732242 0 528.01038256 0 976.24909373 0 15670
0.12250000 0.12250700 13751.38453177 0 204.25006870 0 4628.40893139 0 410.36582413 0 1225.06416258 0 16887
0.12350000 0.12352200 13681.51816216 0 267.39110821 0 4143.48539363 0 600.64040444 0 1241.97160258 0 16407
0.12450000 0.12449800 13368.61426279 0 200.24077988 0 4086.47399314 0 372.69666786 0 1502.80235834 0 16306
0.12550000 0.12549900 13129.11987696 0 281.75523520 0 3948.23601778 0 679.80199073 0 1235.93718556 0 17523
0.12650000 0.12650100 12926.38560953 0 159.69281916 0 3809.66587268 0 423.32487309 0 972.05157539 0 17154
0.12750000 0.12750600 12739.59548984 0 4.35998256 0 3458.07527039 0 418.40543918 0 1309.93353232 0 18007
0.12850000 0.12850300 12640.27673621 0 216.04098740 0 3336.63401177 0 189.80400651 0 1009.24240722 0 17496
0.12950000 0.12949900 12436.65668280 0 112.36859565 0 2954.58344391 0 299.92159853 0 1227.02396408 0 18405
0.13050000 0.13049000 12373.43370809 0 64.14441359 0 2897.22880135 0 163.53934480 0 935.03015012 0 18100
0.13150000 0.13148800 12172.58173588 0 98.23953412 0 2820.35365013 0 13.72791120 0 721.38189212 0 19059
0.13250000 0.13249300 12330.69453429 0 235.30240365 0 2984.19084047 0 -82.24135344 0 860.69941915 0 18957
0.13350000 0.13349100 12172.47101263 0 31.73959416 0 3128.86183655 0 -430.20853743 0 1037.68056628 0 19468
0.13450000 0.13450700 12220.41417909 0 151.85914935 0 3383.79104318 0 -533.39263965 0 1087.13621232 0 19953
0.13550000 0.13551000 12269.02168505 0 109.58966357 0 3705.05454779 0 -253.03805355 0 1515.34730236 0 19956
0.13650000 0.13649900 12162.61664354 0 86.42514210 0 3870.41971896 0 392.65564058 0 1332.84217237 0 19723
0.13750000 0.13749600 12091.08942521 0 82.13893443 0 3686.23159560 0 145.48813365 0 1443.45469731 0 20946
0.13850000 0.13851100 11980.25545378 0 243.96206889 0 3671.15108920 0 470.46972494 0 839.80262052 0 20955
0.13950000 0.13949800 11822.47482511 0 84.22717490 0 3182.60690122 0 319.19851603 0 1161.75260927 0 20506
0.14050000 0.14048300 11372.05265149 0 427.57664582 0 3382.76131697 0 252.99597871 0 717.97604501 0 21447
0.14150000 0.14148400 11343.37533021 0 499.55782947 0 3253.48085239 0 -455.99155301 0 837.08215031 0 21771
0.14250000 0.14249400 10808.15022080 0 280.82515991 0 3334.00987079 0 -11.78084288 0 815.35824902 0 22470
0.14350000 0.14350900 10602.57036589 0 163.69325012 0 3004.23174839 0 145.67857764 0 905.02968603 0 22519
0.14450000 0.14449900 10645.53098619 0 23.20847861 0 3458.38529548 0 32.35654409 0 156.22828873 0 22218
0.14550000 0.14550500 10475.12790723 0 127.13132634 0 3511.83140738 0 -81.52652415 0 350.48115534 0 23559
0.14650000 0.14650700 10365.40116828 0 244.90210927 0 3578.98505740 0 -172.31526946 0 337.68376232 0 23044
0.14750000 0.14750500 10200.39031150 0 34.70044454 0 3210.12162840 0 110.24182350 0 506.68840665 0 23649
0.14850000 0.14849900 10276.87793135 0 -53.86287421 0 3577.77817400 0 312.47207871 0 768.50349208 0 23640
0.14950000 0.14949500 10423.35371638 0 128.64491314 0 3248.11077485 0 518.07518550 0 259.54747331 0 24457
0.15050000 0.15050000 10286.98696391 0 126.26325607 0 2995.55104574 0 481.38371551 0 917.85697433 0 24591
0.15150000 0.15149900 10051.73327849 0 114.35386349 0 2831.29310705 0 161.51643106 0 934.25287292 0 25020
0.15250000 0.15250500 10077.43214439 0 129.00144200 0 2837.51575360 0 217.96314298 0 808.60191641 0 25297
0.15350000 0.15350100 9918.51106627 0 137.76961602 0 2926.13864145 0 120.78688421 0 1054.73858990 0 25452
0.15450000 0.15450400 9695.87983114 0 170.50383711 0 2831.61420447 0 88.33024630 0 1093.16398595 0 26061
0.15550000 0.15549900 9683.36810410 0 11.28867805 0 2645.82059401 0 40.71526355 0 961.93257773 0 26128
0.15650000 0.15649500 9564.62849274 0 82.05533838 0 2654.19127158 0 214.04907616 0 638.63065812 0 26331
0.15750000 0.15749700 9490.37748251 0 250.33529906 0 2736.46971730 0 -283.58438326 0 585.01403242 0 27345
0.15850000 0.15849900 9261.64539640 0 357.54972751 0 2612.78077676 0 -160.42802153 0 417.72670567 0 26980
0.15950000 0.15949700 9009.81644073 0 146.09268259 0 2745.29436018 0 -259.29391707 0 610.19692799 0 27777
0.16050000 0.16050000 9044.92678273 0 -31.65411581 0 2916.56108048 0 196.32449859 0 248.94572229 0 28224
0.16150000 0.16150500 9193.99349176 0 -107.45857321 0 3061.60853560 0 100.89135592 0 335.29989079 0 28075
0.16250000 0.16249700 9095.44980088 0 114.73142977 0 2805.77139834 0 180.92068030 0 165.28545043 0 28590
0.16350000 0.16349900 9138.66508464 0 88.87456179 0 2840.66029385 0 7.02581085 0 263.00093142 0 29163
0.16450000 0.16449100 9053.43032819 0 92.42733866 0 2605.56162097 0 58.03902296 0 540.99379064 0 28996
0.16550000 0.16550500 8989.78660513 0 98.92967213 0 2654.11376530 0 2.75565806 0 327.48061500 0 30777
0.16650000 0.16650700 8884.75453190 0 25.40854955 0 2549.46922344 0 422.80225936 0 280.58821216 0 29211
0.16750000 0.16749900 8855.01426744 0 133.55548919 0 2445.37829782 0 140.75582202 0 111.96445580 0 30922
0.16850000 0.16850800 8834.53046652 0 119.68297343 0 2255.93082018 0 203.04761422 0 -13.41899334 0 30867
0.16950000 0.16949900 8546.96004633 0 211.09276544 0 1911.80296481 0 22.95691539 0 83.33552058 0 30852
0.17050000 0.17049200 8458.58074963 0 111.53484960 0 2086.39138255 0 50.09618003 0 187.75230472 0 31257
0.17150000 0.17149500 8480.19392768 0 76.95232532 0 2076.07197582 0 130.09649492 0 47.35146143 0 32608
0.17250000 0.17250900 8449.02533331 0 35.26402587 0 2302.35707814 0 34.72292135 0 234.27046298 0 32361
0.17350000 0.17350400 8193.71966765 0 245.12909193 0 2315.82102512 0 -169.12090374 0 100.59140664 0 32508
0.17450000 0.17449800 8182.45911330 0 302.23349995 0 2493.74221263 0 -79.01055978 0 231.08052620 0 32791
0.17550000 0.17549800 8005.49014573 0 68.51720683 0 2504.92526070 0 -10.93988874 0 549.50951566 0 33633
0.17650000 0.17650100 7943.57370534 0 70.39042274 0 2466.59287217 0 161.93939387 0 303.53117642 0 33984
0.17750000 0.17750300 7882.28838747 0 30.41102590 0 2296.00156369 0 128.81653417 0 303.68176003 0 34069
0.17850000 0.17849800 7958.57670547 0 125.87461747 0 2268.50898117 0 134.83655718 0 110.37568791 0 34536
