### header ###
fiducial parameters:
Omega_m = 0.31
Omega_nu = 0
Omega_de = 0.69
Omega_k = 0
H_0 = 100
w_de = -1
zeff = 0
beta = 0
fgrowth = 0
b_1 = 2
gamma = 0.55
Lx = 3500 Ly = 3500 Lz = 3500
nx = 700 ny = 700 nz = 700
xoffset = -685.467585 yoffset = -31.7331281 zoffset = 572.489161
bins = 400 dk = 0.001
kx_ny = 0.628318531 ky_ny = 0.628318531 kz_ny = 0.628318531
############################
A(data) = 8.04512607 (not used)
A(ran) = 8.04152647 (used)
Ngal = 477527
weighted Ngal = 0
Nran = 23820508
weighted Nran = 0
SN(data) = 3488.28695
SN(ran) = 70.0446119
SN(data+ran) = 3558.33156
############################
13 columns: k_central k_mean P_0(k) sigma^{lin}_{P_0(k)} P^img_1(k) sigma^{lin}_{P_1(k)} P_2(k) sigma^{lin}_{P_2(k)} P^img_3(k) sigma^{lin}_{P_3(k)} P_4(k) sigma^{lin}_{P_4(k)} N_modes
### header ###
0.00050000 0 0 0 0 0 0 0 0 0 0 0 0
0.00150000 0.00179520 652.81319898 0 -3322.64966553 0 -136.83621904 0 9469.36221000 0 -5916.80679194 0 3
0.00250000 0.00253879 13330.08257242 0 -17930.07991832 0 3530.59899795 0 -47628.93388639 0 -45760.14690349 0 6
0.00350000 0.00331552 21956.97373162 0 -17905.94225022 0 -30215.82081384 0 49538.35630136 0 28283.47868649 0 7
0.00450000 0.00420575 37715.32786001 0 -12296.48105060 0 -13539.79240448 0 -7170.89151787 0 1407.92360696 0 24
0.00550000 0.00557378 42725.11194746 0 -5249.76565556 0 -16353.82375714 0 -10407.38742399 0 -3672.52405747 0 45
0.00650000 0.00659388 56771.46321239 0 -5233.47826576 0 -7099.59681837 0 -25357.17396017 0 -12727.63737903 0 40
0.00750000 0.00754703 48968.90663594 0 -3975.50715381 0 -8144.80213660 0 -15316.56836813 0 -1782.15711351 0 57
0.00850000 0.00846663 55901.39992814 0 -1664.89012136 0 1664.39186674 0 -20718.31275415 0 -17429.05722028 0 75
0.00950000 0.00948925 55973.92365570 0 -538.83690176 0 3557.87013398 0 -5412.39596250 0 -7163.96024254 0 112
0.01050000 0.01054430 57292.63754160 0 -1431.95055182 0 20726.94916751 0 -11416.56339726 0 2151.38592924 0 105
0.01150000 0.01145670 62698.58941106 0 119.80919793 0 12384.94892590 0 9942.79267460 0 8252.21475966 0 144
0.01250000 0.01249090 69802.92518445 0 -11436.71502843 0 25902.37523424 0 2241.48143629 0 13496.05672145 0 169
0.01350000 0.01339930 78946.34029644 0 -5699.35740483 0 15844.05392249 0 23575.41545036 0 -13918.35519003 0 180
0.01450000 0.01448870 88842.00915661 0 -3356.60848575 0 36684.49441939 0 847.27090361 0 -3073.72165896 0 267
0.01550000 0.01550050 93477.32721868 0 -4047.04544446 0 36025.35892294 0 871.28899061 0 17541.33059394 0 238
0.01650000 0.01653350 86437.65382224 0 4531.19391948 0 32186.91607806 0 19004.53831872 0 17377.57090987 0 315
0.01750000 0.01747870 97840.93042971 0 -1295.05232776 0 35943.42371928 0 5321.44788644 0 8110.21219386 0 297
0.01850000 0.01844180 88948.96781435 0 3869.40106507 0 21336.81281852 0 38367.93068482 0 2482.94669593 0 388
0.01950000 0.01947590 91634.22802937 0 2321.20217498 0 14868.02848973 0 450.33691672 0 6015.59407397 0 399
0.02050000 0.02045430 82566.99051213 0 4925.87800997 0 7418.20296502 0 1085.41003688 0 11370.72397251 0 462
0.02150000 0.02154770 84784.66645006 0 2132.41903682 0 8729.18836820 0 -4767.32231857 0 1465.93151669 0 571
0.02250000 0.02255340 70120.36873700 0 5719.37616810 0 11148.94530639 0 -1682.27367132 0 -7277.93875422 0 510
0.02350000 0.02348930 73171.12639428 0 11812.17756303 0 8433.34692137 0 -727.34655350 0 -4356.67193569 0 555
0.02450000 0.02439640 60858.25830295 0 2620.39853623 0 8797.44925071 0 1693.20205592 0 -1873.12733422 0 592
0.02550000 0.02547300 59523.26809957 0 -1007.68453112 0 4578.64990366 0 6514.24729450 0 -18135.02865072 0 837
0.02650000 0.02652900 59806.83033817 0 1068.87905593 0 7974.34369601 0 -4163.07233624 0 -14368.55591716 0 723
0.02750000 0.02749970 59376.55979572 0 5085.86203127 0 6439.42052338 0 -8670.40539574 0 -19156.11844549 0 826
0.02850000 0.02848090 55397.60914889 0 3828.55525882 0 11591.39540614 0 -14420.59584380 0 -9752.42619399 0 831
0.02950000 0.02946900 52699.06214409 0 1920.42830585 0 18674.69376238 0 -8589.67707548 0 -8743.88134323 0 996
0.03050000 0.03053250 54666.61426437 0 992.37814929 0 22390.78741801 0 -1540.94651734 0 -13219.47004748 0 1041
0.03150000 0.03150510 53448.65853431 0 1977.03003032 0 24800.90036129 0 4119.87919712 0 -2162.10393966 0 1036
0.03250000 0.03246190 53607.43567221 0 932.83561534 0 24264.11405408 0 4872.35439180 0 -8424.86552056 0 1059
0.03350000 0.03345080 54735.48412474 0 -1154.02412655 0 24165.79180969 0 6682.41376385 0 -1158.79629855 0 1302
0.03450000 0.03451200 50905.12407697 0 1264.11625222 0 20079.21816562 0 5842.82151750 0 -3752.22265152 0 1339
0.03550000 0.03553350 49699.56935072 0 2832.99824507 0 16528.21287303 0 466.13823147 0 816.08127183 0 1365
0.03650000 0.03647120 50317.73724535 0 1185.39202276 0 18401.76095560 0 -1186.32209804 0 885.08510733 0 1308
0.03750000 0.03744890 48911.33054688 0 143.07658131 0 20403.19438982 0 -1005.47338785 0 -1116.28964357 0 1579
0.03850000 0.03847530 45295.99504710 0 3029.96383127 0 18338.20581114 0 -1585.43511846 0 -3823.21839825 0 1662
0.03950000 0.03950240 47274.39804569 0 639.89733208 0 17335.27462907 0 -1689.95786475 0 -1265.19026773 0 1683
0.04050000 0.04050350 45127.25281686 0 -983.86242427 0 18798.48235385 0 5406.10688200 0 -5117.90533930 0 1822
0.04150000 0.04152450 45424.32329174 0 1693.87746773 0 16624.76354545 0 3178.87552776 0 -5617.27826094 0 1887
0.04250000 0.04250150 44715.36233361 0 1065.73008675 0 15079.62061701 0 5300.90872390 0 -2556.67730690 0 1920
0.04350000 0.04349210 43152.72513195 0 1435.64870831 0 14736.37854763 0 6240.98231798 0 -2891.85872381 0 2005
0.04450000 0.04448520 41500.06992952 0 92.02773845 0 10402.19450365 0 3472.65752217 0 1599.60769423 0 2151
0.04550000 0.04548030 41829.91448587 0 411.39222864 0 11230.21617056 0 3683.90640739 0 -402.85435897 0 2274
0.04650000 0.04648670 41360.89080655 0 1151.66572136 0 11859.12422026 0 -804.29146036 0 1508.06171262 0 2311
0.04750000 0.04749250 40618.15925771 0 1069.74380449 0 11805.53416814 0 -2257.15984823 0 2051.07066638 0 2568
0.04850000 0.04851840 38799.75135275 0 1501.79477678 0 13063.79316053 0 -2274.13372218 0 860.07161833 0 2493
0.04950000 0.04949480 38930.62623211 0 661.21377182 0 12299.24913180 0 439.69751980 0 2587.09298318 0 2644
0.05050000 0.05050630 38511.98163071 0 -453.28104789 0 13132.99519064 0 -190.23914887 0 -2848.93132049 0 2829
0.05150000 0.05149060 38083.37193698 0 471.81279794 0 12380.85216571 0 835.92952130 0 -2243.80662450 0 2784
0.05250000 0.05249300 37054.08862184 0 1861.15815109 0 11828.89677350 0 573.89963277 0 -3819.67525431 0 3055
0.05350000 0.05348950 35559.87838756 0 699.66906315 0 10859.29328914 0 929.67003768 0 -2404.44391297 0 3009
0.05450000 0.05448610 35242.65628151 0 891.23910546 0 10435.23432091 0 -219.76682470 0 -4551.07981486 0 3336
0.05550000 0.05550870 34941.82121619 0 363.79341147 0 11395.08308711 0 -1800.57038968 0 -5294.28747366 0 3349
0.05650000 0.05647670 34172.51608779 0 408.25433178 0 11828.01098752 0 -2490.70839563 0 -7335.76950675 0 3324
0.05750000 0.05747970 34004.77036679 0 1439.90048104 0 12304.78529421 0 -3275.51477878 0 -6936.88900516 0 3639
0.05850000 0.05849280 33301.01340131 0 1115.53672548 0 12341.32396611 0 -455.30285440 0 -5498.47221564 0 3846
0.05950000 0.05951020 33334.78399201 0 -1010.18244760 0 14090.64056421 0 2326.10721488 0 -7478.90144968 0 3787
0.06050000 0.06049470 32914.58926514 0 369.72042695 0 12240.34436377 0 3677.16336157 0 -4959.96969809 0 3930
0.06150000 0.06148310 33338.88075219 0 -66.59051158 0 12288.61969997 0 4531.90254827 0 -8005.15797598 0 4083
0.06250000 0.06249100 32016.62372235 0 655.61892609 0 10319.28493541 0 1779.67691275 0 -5340.33727258 0 4303
0.06350000 0.06350600 31324.04980494 0 768.28315282 0 9548.33003061 0 934.15765093 0 -3472.09283361 0 4470
0.06450000 0.06451750 31036.28008291 0 749.02505826 0 10810.39790274 0 826.23016476 0 -3400.17808391 0 4479
0.06550000 0.06550280 29464.78502140 0 1818.23074777 0 9196.52905414 0 203.64773423 0 36.73354482 0 4636
0.06650000 0.06648880 28661.48785580 0 811.91032707 0 8165.64025190 0 120.61415595 0 -361.24013337 0 4653
0.06750000 0.06749660 28728.69686745 0 -280.98681585 0 8892.57159322 0 1447.33001099 0 76.37966468 0 5220
0.06850000 0.06852730 28186.15295134 0 559.51225390 0 8023.39409496 0 1265.78817327 0 -1169.81326174 0 5029
0.06950000 0.06949320 28680.75370099 0 102.70610996 0 8530.51764398 0 403.10459351 0 -730.40583685 0 5040
0.07050000 0.07048030 27733.40558950 0 467.96959400 0 8201.83568174 0 -149.20732756 0 885.05299759 0 5475
0.07150000 0.07148790 28212.94797740 0 19.94014977 0 8847.66224376 0 -220.58506950 0 -312.66473716 0 5509
0.07250000 0.07249820 27897.82961306 0 -254.56824884 0 7726.50077727 0 405.79627567 0 942.15851284 0 5916
0.07350000 0.07351270 28733.12579738 0 430.58167478 0 8949.07366677 0 1247.56312662 0 1024.38491864 0 5721
0.07450000 0.07449140 28488.64886538 0 -303.93753074 0 7585.08504469 0 -67.30478726 0 1210.96909309 0 6028
0.07550000 0.07549160 28029.25810866 0 373.56695259 0 8586.38859501 0 1642.73439939 0 1651.94657364 0 6183
0.07650000 0.07648840 27846.01113291 0 844.28359037 0 8721.76991057 0 695.02643735 0 1306.04714631 0 6330
0.07750000 0.07749960 27334.02683330 0 879.09719407 0 8554.96533718 0 230.93215705 0 2084.66409988 0 6583
0.07850000 0.07848650 26231.00183486 0 963.12285265 0 8273.61756354 0 -330.50668137 0 930.81048713 0 6549
0.07950000 0.07947320 25869.15825979 0 621.69996624 0 7455.91530335 0 150.21823081 0 1781.09417033 0 6828
0.08050000 0.08048110 25131.74142687 0 417.02693474 0 8168.45262241 0 -385.19289365 0 460.36733577 0 7147
0.08150000 0.08149960 24424.21987096 0 199.13022570 0 6948.21599345 0 870.00570816 0 -1157.82193396 0 7386
0.08250000 0.08250610 24295.55945656 0 522.37235476 0 6372.08971616 0 1142.66392128 0 -1361.33126413 0 7227
0.08350000 0.08350160 23766.19160698 0 612.53318852 0 5627.40943815 0 851.16504025 0 -967.35248073 0 7798
0.08450000 0.08449610 23210.02873134 0 239.52871003 0 5645.16944716 0 117.67777541 0 -552.64076912 0 7371
0.08550000 0.08548940 23012.94134957 0 488.76784893 0 6280.02333529 0 -165.85235346 0 -349.71937940 0 8256
0.08650000 0.08650700 22549.12166292 0 992.94173062 0 7379.70449163 0 -1278.54349146 0 -748.85343723 0 8037
0.08750000 0.08749060 21905.93031420 0 695.23459706 0 7532.48042948 0 81.20476239 0 1144.09225119 0 8155
0.08850000 0.08849210 21617.93914567 0 -153.76248199 0 7731.58297436 0 196.55258848 0 574.97475551 0 8718
0.08950000 0.08949900 21713.71475535 0 -348.90002736 0 7590.74300267 0 1581.81446824 0 -540.68598001 0 8571
0.09050000 0.09049190 21911.90936960 0 178.64531755 0 8125.70237628 0 818.85821089 0 -450.60708145 0 8932
0.09150000 0.09150830 21270.15742312 0 1062.45821476 0 6630.35169255 0 184.58672705 0 -4.88982652 0 9285
0.09250000 0.09250820 20465.08868555 0 632.46448043 0 6402.43895848 0 330.96839732 0 380.96880173 0 9204
0.09350000 0.09350330 20013.22710970 0 557.51923543 0 5741.85298748 0 537.13176374 0 796.97708259 0 9349
0.09450000 0.09448040 19326.52152445 0 548.70898657 0 6016.77881273 0 219.50108890 0 -621.87601621 0 9564
0.09550000 0.09549270 18886.06444317 0 623.94100479 0 6502.14524348 0 -468.65607813 0 -867.13686880 0 10155
0.09650000 0.09649430 18163.15235576 0 879.82353858 0 6200.15865637 0 -470.84396952 0 -567.43007338 0 9913
0.09750000 0.09749140 17755.35863268 0 374.99528249 0 6543.06855601 0 -608.56818901 0 -1152.72866454 0 10476
0.09850000 0.09850240 17735.98206425 0 -307.93021107 0 6512.50893951 0 -11.09502308 0 -363.74580048 0 10575
0.09950000 0.09950330 18081.77076834 0 57.03476310 0 6961.08203488 0 429.28289108 0 -1137.76995371 0 10882
0.10050000 0.10051200 17790.67934886 0 423.15657376 0 6196.73730800 0 547.59068177 0 -334.13065328 0 10875
0.10150000 0.10150300 17287.66363235 0 475.95274019 0 6573.34029206 0 942.16072731 0 -489.96919618 0 11118
0.10250000 0.10250800 16832.48035905 0 688.80600527 0 6192.26408878 0 525.63093995 0 578.76259783 0 11575
0.10350000 0.10349800 16221.73092205 0 443.44771622 0 6485.68069647 0 495.45553312 0 329.20346874 0 11364
0.10450000 0.10450100 16066.82909784 0 297.69827570 0 5941.04411097 0 269.88570299 0 391.43657762 0 12093
0.10550000 0.10551000 15614.41390575 0 248.82835565 0 6058.78721309 0 31.45392818 0 351.98366982 0 12067
0.10650000 0.10649700 15632.12962546 0 248.52054502 0 5711.74733630 0 243.77383937 0 592.26086901 0 12054
0.10750000 0.10749900 15563.14904184 0 74.05126549 0 5471.20107961 0 347.17274469 0 -311.18215287 0 12807
0.10850000 0.10850100 15637.33361813 0 -115.16214321 0 5762.20392050 0 336.48020061 0 37.80778177 0 12736
0.10950000 0.10950300 15554.73407498 0 5.91457018 0 5575.53559638 0 -321.71857716 0 -621.75311340 0 12933
0.11050000 0.11050200 15614.08173601 0 239.43016634 0 6111.59113015 0 -233.32710090 0 -233.13554968 0 13428
0.11150000 0.11150900 15609.87425258 0 320.93244210 0 6272.38343116 0 -590.42507756 0 -209.07095892 0 13453
0.11250000 0.11250000 14921.39709535 0 390.83645761 0 6276.92308434 0 -135.86406892 0 1.78843512 0 13668
0.11350000 0.11349100 15123.90991629 0 236.04978558 0 6200.57940472 0 556.55815764 0 -109.90910014 0 13791
0.11450000 0.11448600 14675.14859139 0 42.94235096 0 5726.24100948 0 433.17370602 0 -641.04885386 0 14205
0.11550000 0.11549300 14688.32465792 0 15.28335139 0 5283.28158279 0 915.93371151 0 -1114.85024134 0 14776
0.11650000 0.11649800 14503.30611020 0 306.26161172 0 5153.74645474 0 492.84689340 0 -1223.03792714 0 14553
0.11750000 0.11747300 14303.45064722 0 319.37678046 0 4858.54720275 0 736.95179528 0 -615.01449652 0 14568
0.11850000 0.11849100 14209.55733276 0 -60.13966442 0 4820.28124817 0 -222.07651166 0 -1110.26629886 0 16015
0.11950000 0.11950300 14295.92146635 0 294.38654335 0 5446.49872294 0 -63.77105479 0 59.58460878 0 15270
0.12050000 0.12050700 14024.64950829 0 241.77639197 0 5450.85014660 0 244.69837849 0 665.74678160 0 15999
0.12150000 0.12150000 13914.25842985 0 22.93410640 0 5319.42165100 0 613.00376233 0 1563.82194041 0 15670
0.12250000 0.12250700 13810.17857655 0 -8.43766513 0 5009.54049630 0 944.56785072 0 1172.12737763 0 16887
0.12350000 0.12352200 13865.65092389 0 285.82652903 0 5233.45612111 0 665.75342500 0 953.56190017 0 16407
0.12450000 0.12449800 13160.23310970 0 683.37613718 0 4400.47405267 0 215.38218407 0 650.24774132 0 16306
0.12550000 0.12549900 12898.59407423 0 446.65204702 0 4123.78772778 0 -534.77557302 0 748.40500807 0 17523
0.12650000 0.12650100 12535.64326668 0 -2.03904612 0 4215.15655218 0 -216.97992054 0 999.86193363 0 17154
0.12750000 0.12750600 12720.21892141 0 -217.13714755 0 3863.94240894 0 115.78772956 0 -138.87241957 0 18007
0.12850000 0.12850300 12879.32822905 0 -64.89434215 0 3955.83163261 0 357.13672979 0 -345.38013530 0 17496
0.12950000 0.12949900 12980.41855464 0 56.00282242 0 3818.00333326 0 109.33976120 0 -549.03119122 0 18405
0.13050000 0.13049000 12441.08561273 0 274.51172030 0 3523.28019124 0 294.99773568 0 -488.94057720 0 18100
0.13150000 0.13148800 12614.58894264 0 122.43887508 0 3518.38622367 0 173.11690577 0 127.29962567 0 19059
0.13250000 0.13249300 12362.47210651 0 -29.48106134 0 3752.13407292 0 589.24587497 0 86.60706039 0 18957
0.13350000 0.13349100 12519.80984219 0 -13.48177342 0 3425.12403172 0 357.02600654 0 -290.36064604 0 19468
0.13450000 0.13450700 12569.52458062 0 215.66674282 0 3316.36058503 0 65.57440434 0 154.15444229 0 19953
0.13550000 0.13551000 12244.33040070 0 281.25476611 0 3338.78204279 0 -43.77166809 0 483.45091856 0 19956
0.13650000 0.13649900 11938.06989622 0 194.86627341 0 3069.68026040 0 36.37934115 0 517.78841228 0 19723
0.13750000 0.13749600 12027.42355750 0 150.19497893 0 3495.12326923 0 674.54374367 0 519.28206890 0 20946
0.13850000 0.13851100 11593.27770136 0 257.07280871 0 2839.08802372 0 305.93829983 0 -118.16495770 0 20955
0.13950000 0.13949800 11614.42584177 0 125.29110595 0 2813.98706336 0 130.37219581 0 79.63991072 0 20506
0.14050000 0.14048300 11346.14341141 0 144.04983866 0 2937.80887181 0 -267.82292888 0 494.47895408 0 21447
0.14150000 0.14148400 11386.00378076 0 178.71839490 0 3168.19073431 0 -386.91906909 0 380.16495095 0 21771
0.14250000 0.14249400 11309.16184652 0 177.67981083 0 3336.39042063 0 -370.63610821 0 -107.74888957 0 22470
0.14350000 0.14350900 11035.40968770 0 353.49614939 0 3866.23438017 0 -14.24587456 0 762.62408760 0 22519
0.14450000 0.14449900 10870.48740953 0 268.00783670 0 3369.04270652 0 297.65177194 0 566.87756437 0 22218
0.14550000 0.14550500 10712.16423695 0 19.92343056 0 3705.49744078 0 345.94593110 0 1228.13119656 0 23559
0.14650000 0.14650700 10811.19511012 0 85.31237345 0 3599.71244947 0 501.32386528 0 1148.88656783 0 23044
0.14750000 0.14750500 10669.98975171 0 30.57766439 0 3286.84176706 0 283.33636318 0 1097.58737972 0 23649
0.14850000 0.14849900 10682.93329942 0 142.51521444 0 3248.17720880 0 -204.46708626 0 1034.90030552 0 23640
0.14950000 0.14949500 10442.57527226 0 223.57238274 0 3257.83227604 0 -28.66857414 0 1058.13336469 0 24457
0.15050000 0.15050000 10404.57505348 0 228.29362204 0 3459.95756560 0 39.28040097 0 1056.14366792 0 24591
0.15150000 0.15149900 10205.49465324 0 100.22325184 0 3275.02759648 0 -119.70068915 0 952.92856319 0 25020
0.15250000 0.15250500 10166.17682781 0 80.44819043 0 3127.61066385 0 597.58001386 0 768.58653452 0 25297
0.15350000 0.15350100 10080.95314368 0 -45.05738645 0 2936.63520538 0 461.50778523 0 978.30079551 0 25452
0.15450000 0.15450400 10108.89969153 0 20.66328330 0 2713.94860862 0 590.20473830 0 648.81719696 0 26061
0.15550000 0.15549900 10012.94692465 0 17.15324561 0 2606.94566158 0 89.04463270 0 619.10018437 0 26128
0.15650000 0.15649500 9928.00004864 0 185.25106654 0 2168.70304525 0 86.61923995 0 573.55085454 0 26331
0.15750000 0.15749700 9768.79109007 0 244.83788978 0 2307.31747966 0 -194.53188920 0 593.95382748 0 27345
0.15850000 0.15849900 9546.71347118 0 143.74645696 0 2448.58927202 0 -241.62913005 0 177.33767599 0 26980
0.15950000 0.15949700 9260.28350045 0 231.74486569 0 2297.56276149 0 141.66928882 0 430.10002865 0 27777
0.16050000 0.16050000 9366.12385339 0 101.65866803 0 2365.83471632 0 186.16896227 0 -7.85488438 0 28224
0.16150000 0.16150500 9181.07208870 0 -26.56870774 0 2247.46049169 0 64.43417633 0 287.43644506 0 28075
0.16250000 0.16249700 9156.10399623 0 161.15436604 0 2256.89411243 0 44.08844730 0 -214.54954524 0 28590
0.16350000 0.16349900 9051.75840714 0 182.60367368 0 2077.59995665 0 8.51024422 0 33.15718390 0 29163
0.16450000 0.16449100 8961.33073035 0 189.19170694 0 2005.91772577 0 208.77200615 0 67.60362931 0 28996
0.16550000 0.16550500 8773.56624607 0 64.58221331 0 2008.43114350 0 159.12259443 0 72.10574730 0 30777
0.16650000 0.16650700 8752.59526287 0 -0.85994318 0 1936.98143145 0 168.78873400 0 -250.51356349 0 29211
0.16750000 0.16749900 8718.61429800 0 92.72319118 0 1898.32794551 0 91.52859805 0 -16.91286544 0 30922
0.16850000 0.16850800 8747.01481116 0 172.30419713 0 2082.53821352 0 -275.01329661 0 138.45720739 0 30867
0.16950000 0.16949900 8532.01240783 0 207.37578599 0 2431.01749253 0 -384.21188567 0 121.23420614 0 30852
0.17050000 0.17049200 8434.85275755 0 330.06711008 0 2678.10749319 0 -397.95485524 0 505.47045092 0 31257
0.17150000 0.17149500 8211.44645968 0 135.53632811 0 2733.23659846 0 -130.13746252 0 557.97098628 0 32608
0.17250000 0.17250900 8189.08036355 0 50.49312287 0 2913.63798673 0 151.75839120 0 64.40129152 0 32361
0.17350000 0.17350400 8270.88269931 0 36.39916061 0 2876.10280559 0 -15.39341030 0 -197.99752687 0 32508
0.17450000 0.17449800 8112.31593558 0 47.22822645 0 2725.88457478 0 164.55246252 0 -645.31944955 0 32791
0.17550000 0.17549800 8015.95349268 0 148.44998054 0 2397.23582951 0 -77.92093229 0 -132.93101008 0 33633
0.17650000 0.17650100 8004.65972137 0 -8.37539437 0 2466.10568988 0 268.98220128 0 -523.23710333 0 33984
0.17750000 0.17750300 8116.11374299 0 -225.55432888 0 2067.13660969 0 597.84353519 0 -407.66196241 0 34069
0.17850000 0.17849800 8052.96827455 0 -13.09180614 0 1880.90010624 0 487.27862125 0 -469.91610870 0 34536
