### header ###
fiducial parameters:
Omega_m = 0.31
Omega_nu = 0
Omega_de = 0.69
Omega_k = 0
H_0 = 100
w_de = -1
zeff = 0
beta = 0
fgrowth = 0
b_1 = 2
gamma = 0.55
Lx = 3500 Ly = 3500 Lz = 3500
nx = 700 ny = 700 nz = 700
xoffset = -685.467585 yoffset = -31.7331281 zoffset = 572.489161
bins = 400 dk = 0.001
kx_ny = 0.628318531 ky_ny = 0.628318531 kz_ny = 0.628318531
############################
A(data) = 8.09726336 (not used)
A(ran) = 8.1024954 (used)
Ngal = 482062
weighted Ngal = 0
Nran = 23820508
weighted Nran = 0
SN(data) = 3480.27708
SN(ran) = 70.5756734
SN(data+ran) = 3550.85275
############################
13 columns: k_central k_mean P_0(k) sigma^{lin}_{P_0(k)} P^img_1(k) sigma^{lin}_{P_1(k)} P_2(k) sigma^{lin}_{P_2(k)} P^img_3(k) sigma^{lin}_{P_3(k)} P_4(k) sigma^{lin}_{P_4(k)} N_modes
### header ###
0.00050000 0 0 0 0 0 0 0 0 0 0 0 0
0.00150000 0.00179520 3762.50884127 0 -3574.93258652 0 1130.27398981 0 -7615.00246635 0 -9817.12178791 0 3
0.00250000 0.00253879 9576.40944635 0 -7810.28505918 0 -4761.37648014 0 2279.55916134 0 1956.82303752 0 6
0.00350000 0.00331552 12534.97892719 0 -6162.12522062 0 -6327.30216227 0 2985.39772388 0 9369.70021431 0 7
0.00450000 0.00420575 18414.49412914 0 -5056.05533286 0 -4489.25195307 0 3280.77413306 0 3438.92014845 0 24
0.00550000 0.00557378 48086.88524088 0 -32495.28032426 0 -4891.11091004 0 1028.93675137 0 -22365.65324067 0 45
0.00650000 0.00659388 57533.79277615 0 -29326.93457740 0 -228.97346278 0 -12267.36083632 0 -9586.02022429 0 40
0.00750000 0.00754703 81494.19296046 0 10912.38508664 0 9631.07351398 0 -28473.59050363 0 -29304.67920452 0 57
0.00850000 0.00846663 84527.89923752 0 10621.58154760 0 2229.04721552 0 -24412.59392990 0 14064.95277063 0 75
0.00950000 0.00948925 59733.86371762 0 4856.42131638 0 25724.88586740 0 -19945.68592831 0 9968.32545563 0 112
0.01050000 0.01054430 73973.98066688 0 4417.52543290 0 34190.45325399 0 14099.71987056 0 -186.92409482 0 105
0.01150000 0.01145670 75186.28951127 0 -4614.50209142 0 31719.66397071 0 20815.08487307 0 281.61018774 0 144
0.01250000 0.01249090 71744.01444840 0 -1658.35744971 0 13933.85644478 0 24944.17624444 0 610.85683855 0 169
0.01350000 0.01339930 78757.22498853 0 -5179.00242765 0 13768.98952823 0 -4467.64984735 0 9551.47457086 0 180
0.01450000 0.01448870 84510.51568755 0 -39.54281507 0 14007.81957457 0 -3342.23660813 0 -8055.96887458 0 267
0.01550000 0.01550050 82281.87814805 0 420.60772458 0 17909.92828715 0 -6812.52465279 0 -8063.33197058 0 238
0.01650000 0.01653350 79466.18594667 0 1200.07392547 0 9573.75208839 0 -8010.36196865 0 -9012.45165403 0 315
0.01750000 0.01747870 80642.28828891 0 -4058.00704603 0 17315.56589089 0 -5851.93404083 0 -17255.99678336 0 297
0.01850000 0.01844180 83129.68605942 0 -2697.28475977 0 14939.00209181 0 2329.65035882 0 -31904.01817894 0 388
0.01950000 0.01947590 85482.66580663 0 -720.35438038 0 12061.19414820 0 -4862.73254153 0 -43870.43322670 0 399
0.02050000 0.02045430 79003.69493900 0 4880.57005681 0 6657.33494813 0 -2023.44521596 0 -40594.24303611 0 462
0.02150000 0.02154770 77514.35652764 0 9501.84841102 0 13603.12610244 0 -12536.52905266 0 -37337.09724421 0 571
0.02250000 0.02255340 66413.90800396 0 3368.81018770 0 478.14173881 0 2153.30144143 0 -13799.77059122 0 510
0.02350000 0.02348930 69472.41628861 0 1884.68684133 0 18002.38219939 0 8284.02554887 0 -14518.47519520 0 555
0.02450000 0.02439640 63866.27678643 0 1389.82035589 0 3672.00365821 0 8698.50695613 0 -13892.11378021 0 592
0.02550000 0.02547300 64439.38031905 0 4049.93532124 0 17979.13031727 0 5837.03069162 0 -10079.98985142 0 837
0.02650000 0.02652900 59719.91258835 0 6214.63018491 0 14086.32235753 0 -2141.53156015 0 7243.10522034 0 723
0.02750000 0.02749970 55858.43930784 0 2387.75791947 0 21835.84249810 0 283.26992923 0 5746.53658088 0 826
0.02850000 0.02848090 58229.24549801 0 -2014.21089706 0 24450.46128078 0 -989.12510026 0 15105.08696409 0 831
0.02950000 0.02946900 60606.14146683 0 -710.58083926 0 26709.21554378 0 1078.99916081 0 3878.62431165 0 996
0.03050000 0.03053250 63256.63458192 0 -272.28064685 0 29638.28835130 0 -1766.25725507 0 13780.72619254 0 1041
0.03150000 0.03150510 62252.37472087 0 238.04391128 0 29585.80553166 0 4325.37047343 0 8259.81037449 0 1036
0.03250000 0.03246190 66077.64149921 0 -650.36732243 0 32756.69791323 0 2105.00396057 0 3782.06256690 0 1059
0.03350000 0.03345080 61818.00741823 0 3121.86412727 0 34867.08302366 0 1575.31501357 0 3067.34399986 0 1302
0.03450000 0.03451200 59414.09497686 0 3579.56081830 0 32987.88805544 0 1631.60671295 0 8009.08865129 0 1339
0.03550000 0.03553350 57463.37279031 0 1748.02113609 0 34087.03774019 0 6467.10133543 0 7730.67504373 0 1365
0.03650000 0.03647120 58388.24408241 0 982.15728625 0 32340.82139304 0 11852.37010212 0 7764.44563443 0 1308
0.03750000 0.03744890 55917.01190613 0 -388.56330933 0 27257.84923854 0 5130.11811357 0 380.24024276 0 1579
0.03850000 0.03847530 54746.88861930 0 2566.22165089 0 25394.70914131 0 3241.48952461 0 7182.29601244 0 1662
0.03950000 0.03950240 51643.53741913 0 3009.77898313 0 24229.90057039 0 1707.80645235 0 6716.27293314 0 1683
0.04050000 0.04050350 51381.89838367 0 597.74277703 0 22822.82953243 0 3104.28127545 0 7538.57020813 0 1822
0.04150000 0.04152450 49705.43768287 0 203.49604338 0 20247.29605637 0 2047.19535269 0 3737.59611043 0 1887
0.04250000 0.04250150 48144.90422293 0 2884.86101452 0 21638.53366983 0 3075.32714605 0 3904.25674360 0 1920
0.04350000 0.04349210 46007.72408644 0 2502.52256621 0 18777.99855294 0 2760.17556474 0 2629.03494959 0 2005
0.04450000 0.04448520 43685.74684872 0 2422.77968287 0 19032.99419351 0 687.54597471 0 5221.29870846 0 2151
0.04550000 0.04548030 44450.73377044 0 2300.51907222 0 19324.63922923 0 -459.80707614 0 2630.04253115 0 2274
0.04650000 0.04648670 40742.39074218 0 124.78399347 0 19585.28175546 0 -458.78842226 0 7199.64634543 0 2311
0.04750000 0.04749250 41946.06317322 0 1527.88117405 0 18342.41329457 0 4373.26935060 0 2573.30793878 0 2568
0.04850000 0.04851840 39570.82805312 0 2653.23905164 0 19667.54912887 0 2255.45471021 0 9510.03085906 0 2493
0.04950000 0.04949480 37257.48722876 0 2466.17212383 0 15504.35499705 0 4799.90817051 0 6821.10570453 0 2644
0.05050000 0.05050630 36892.98629573 0 1283.71426715 0 16789.40901551 0 1991.87801790 0 8772.18220547 0 2829
0.05150000 0.05149060 35445.27982569 0 186.41255341 0 16437.41980952 0 3181.57717501 0 9554.61911110 0 2784
0.05250000 0.05249300 36240.38347092 0 -307.41313350 0 17133.97976386 0 1288.18748638 0 8917.49539639 0 3055
0.05350000 0.05348950 34798.32388654 0 313.66235363 0 13622.72411737 0 811.47961363 0 9506.39913652 0 3009
0.05450000 0.05448610 35652.00013006 0 33.01147211 0 13922.23050372 0 3625.47774932 0 6174.85839416 0 3336
0.05550000 0.05550870 34833.64460271 0 -1100.98658343 0 9786.23000166 0 -128.85528731 0 3627.61470801 0 3349
0.05650000 0.05647670 36805.29348317 0 727.13617933 0 11864.10676643 0 306.08224005 0 2122.81933121 0 3324
0.05750000 0.05747970 34524.28384728 0 1074.42518343 0 9900.28601962 0 -1595.37806614 0 -606.81322552 0 3639
0.05850000 0.05849280 34133.20933468 0 1054.81056001 0 9479.71483371 0 -813.58999874 0 -1488.48584235 0 3846
0.05950000 0.05951020 34277.48172707 0 237.50579629 0 10536.33571883 0 -1641.11783997 0 -1641.79325178 0 3787
0.06050000 0.06049470 33406.97554983 0 -354.56795044 0 10132.11835667 0 2312.93114834 0 -1770.03291783 0 3930
0.06150000 0.06148310 33486.47484202 0 775.12695679 0 10496.56392808 0 2063.28344066 0 198.56000097 0 4083
0.06250000 0.06249100 33542.50080561 0 -260.57719951 0 9906.99584846 0 1776.29985368 0 375.68287386 0 4303
0.06350000 0.06350600 33583.02551444 0 393.97214000 0 10857.46635554 0 2015.15204467 0 2082.34998399 0 4470
0.06450000 0.06451750 32606.00357245 0 1622.09558593 0 11042.88350695 0 541.87514769 0 3827.27086914 0 4479
0.06550000 0.06550280 31722.32132867 0 938.58879532 0 11714.74110462 0 -428.26091550 0 6107.17327255 0 4636
0.06650000 0.06648880 30051.17534379 0 1525.46740724 0 11823.02844135 0 -433.91223009 0 5241.20674848 0 4653
0.06750000 0.06749660 30674.43650783 0 88.56431525 0 12098.84005258 0 23.62579453 0 3318.95150904 0 5220
0.06850000 0.06852730 29954.07105513 0 -644.62742924 0 9911.85659905 0 1173.91002192 0 2286.46829202 0 5029
0.06950000 0.06949320 29940.00920261 0 503.79852988 0 10117.46967094 0 469.68912604 0 990.23786890 0 5040
0.07050000 0.07048030 29365.46626777 0 973.16434403 0 9889.09189923 0 1477.43566218 0 -954.76989081 0 5475
0.07150000 0.07148790 28769.22157629 0 1387.47302302 0 10650.13707331 0 284.59196481 0 133.08712986 0 5509
0.07250000 0.07249820 26889.80516157 0 1704.35188701 0 9396.84955476 0 225.88871309 0 1032.93828956 0 5916
0.07350000 0.07351270 26109.09553861 0 1036.56115424 0 10832.01108078 0 -636.20360452 0 1780.37446921 0 5721
0.07450000 0.07449140 25199.83622450 0 326.74651986 0 9829.31241753 0 659.98474377 0 2471.44255045 0 6028
0.07550000 0.07549160 25879.01262888 0 -229.63005165 0 10978.18791304 0 1711.61533209 0 3235.22258876 0 6183
0.07650000 0.07648840 25697.75867160 0 -687.65226902 0 9744.56484337 0 1547.03629599 0 2393.72590254 0 6330
0.07750000 0.07749960 26434.62188828 0 -399.16063141 0 9616.69056404 0 583.48051543 0 850.67785796 0 6583
0.07850000 0.07848650 26509.02791106 0 144.57577409 0 8834.49724955 0 1406.18525197 0 1655.61151316 0 6549
0.07950000 0.07947320 26430.85729784 0 248.06547247 0 7842.52766905 0 531.54356141 0 1107.52036231 0 6828
0.08050000 0.08048110 26428.75355612 0 -188.37456937 0 7542.31265391 0 444.18845475 0 1146.86033239 0 7147
0.08150000 0.08149960 25722.22850945 0 683.11925924 0 8178.61701659 0 316.98294384 0 72.75967880 0 7386
0.08250000 0.08250610 25326.83579017 0 942.43310650 0 7810.17433593 0 130.60360740 0 591.89991123 0 7227
0.08350000 0.08350160 23979.77675274 0 1279.45142209 0 8403.10840229 0 249.93337367 0 927.48436076 0 7798
0.08450000 0.08449610 23417.52409844 0 644.92084585 0 8246.00318544 0 -273.33694664 0 307.29133792 0 7371
0.08550000 0.08548940 22619.09875577 0 820.49248604 0 9083.12630335 0 -601.70888378 0 636.11834762 0 8256
0.08650000 0.08650700 22129.14838255 0 1259.04512745 0 8915.52452257 0 -259.68698460 0 778.06998073 0 8037
0.08750000 0.08749060 21051.14683820 0 728.12493793 0 9431.67201632 0 -24.25558836 0 1477.69032565 0 8155
0.08850000 0.08849210 20621.87280498 0 285.48993036 0 9516.53031373 0 68.42109905 0 511.12951614 0 8718
0.08950000 0.08949900 20867.78913921 0 160.85762773 0 9604.17883699 0 650.02297313 0 1128.09274182 0 8571
0.09050000 0.09049190 20245.96737739 0 91.17705174 0 9188.53483563 0 489.31482178 0 422.18885257 0 8932
0.09150000 0.09150830 20230.02322965 0 592.49006614 0 9531.67725408 0 823.63702628 0 1830.21100322 0 9285
0.09250000 0.09250820 20183.40874217 0 65.79629373 0 8809.97205008 0 1519.83159391 0 1388.77955735 0 9204
0.09350000 0.09350330 19911.14027488 0 61.40246307 0 7896.78206066 0 1444.06367517 0 2081.45312568 0 9349
0.09450000 0.09448040 19612.74112101 0 322.38734558 0 7565.56453603 0 517.29237213 0 2386.05278144 0 9564
0.09550000 0.09549270 19251.11899244 0 802.74354935 0 7558.02428283 0 285.08800497 0 1493.65661804 0 10155
0.09650000 0.09649430 18703.59253015 0 270.40278056 0 7133.31204744 0 -192.49125974 0 2089.54699513 0 9913
0.09750000 0.09749140 18103.02963199 0 66.94726189 0 7374.48942664 0 449.73568948 0 1494.98529701 0 10476
0.09850000 0.09850240 18412.05821768 0 263.42943039 0 7060.23470364 0 390.29612816 0 1972.40179854 0 10575
0.09950000 0.09950330 18040.91388976 0 58.14487438 0 6503.29676526 0 868.99259044 0 1271.75615634 0 10882
0.10050000 0.10051200 18068.04108556 0 -68.32244463 0 5805.05381754 0 801.98066617 0 2245.88822156 0 10875
0.10150000 0.10150300 18147.98327075 0 271.12137444 0 6047.60416502 0 -116.09775465 0 1502.75806904 0 11118
0.10250000 0.10250800 17661.24387173 0 565.08274051 0 5885.70463152 0 411.27264753 0 1393.27492123 0 11575
0.10350000 0.10349800 17205.17481245 0 688.53473331 0 5535.11053847 0 -221.99125475 0 2209.12810317 0 11364
0.10450000 0.10450100 16785.31225532 0 528.57507112 0 6179.23196247 0 -189.87708385 0 698.04143140 0 12093
0.10550000 0.10551000 16239.55736501 0 520.86319689 0 6219.25841668 0 -117.66559585 0 1354.88717108 0 12067
0.10650000 0.10649700 15705.76058551 0 750.72466012 0 6494.31710983 0 -83.86776723 0 473.05622002 0 12054
0.10750000 0.10749900 15251.68454469 0 471.01226886 0 6281.23021869 0 77.35513650 0 1941.17784256 0 12807
0.10850000 0.10850100 14999.89987832 0 -60.94550822 0 6310.12898647 0 700.72093401 0 1466.39655433 0 12736
0.10950000 0.10950300 15284.01573316 0 -271.81671644 0 5991.56712911 0 304.42471303 0 724.31384373 0 12933
0.11050000 0.11050200 15548.31212658 0 -244.29091694 0 5911.31491883 0 855.46663844 0 1060.46630353 0 13428
0.11150000 0.11150900 15314.35390317 0 -29.87888997 0 5555.47254381 0 440.64752527 0 71.91430680 0 13453
0.11250000 0.11250000 15328.08358594 0 434.31083378 0 5319.34414472 0 424.66794609 0 546.51334456 0 13668
0.11350000 0.11349100 14810.67384717 0 307.45188663 0 5484.79789449 0 -10.32355885 0 232.21433226 0 13791
0.11450000 0.11448600 14670.94110795 0 396.19214113 0 5146.48300966 0 82.91377573 0 638.18665790 0 14205
0.11550000 0.11549300 14492.34450863 0 269.59671531 0 5445.94510670 0 -112.51253588 0 417.15980263 0 14776
0.11650000 0.11649800 14277.98430014 0 427.16586257 0 5470.47030617 0 392.14409917 0 1040.78524616 0 14553
0.11750000 0.11747300 14012.91284398 0 221.26491025 0 5534.05866761 0 320.47847678 0 1303.03547396 0 14568
0.11850000 0.11849100 14049.78368563 0 13.20031493 0 5810.26888253 0 474.09037515 0 1120.06530633 0 16015
0.11950000 0.11950300 13881.37362514 0 150.98332846 0 5404.86678162 0 614.25825673 0 1542.02053284 0 15270
0.12050000 0.12050700 13578.76698784 0 323.88653836 0 5664.70102814 0 -47.12060345 0 1055.59448061 0 15999
0.12150000 0.12150000 13555.51510572 0 392.04776995 0 5036.99986185 0 389.32176358 0 1226.25997367 0 15670
0.12250000 0.12250700 13193.89297715 0 13.23375335 0 4915.95720693 0 -90.68643702 0 921.48094624 0 16887
0.12350000 0.12352200 13200.75781853 0 -216.28014961 0 4761.28790154 0 113.89104032 0 597.57337046 0 16407
0.12450000 0.12449800 13207.06904368 0 215.52723152 0 4549.37467684 0 518.64541023 0 747.61444408 0 16306
0.12550000 0.12549900 13100.33183243 0 138.45056400 0 3918.28537915 0 702.81471063 0 793.41843739 0 17523
0.12650000 0.12650100 12956.50233304 0 -30.47657406 0 3694.61334549 0 927.65708903 0 1376.41177053 0 17154
0.12750000 0.12750600 12840.68581543 0 49.94792160 0 3288.64655601 0 791.87384808 0 727.27790509 0 18007
0.12850000 0.12850300 13112.84355947 0 54.52389200 0 3493.47349283 0 56.03504289 0 950.20255682 0 17496
0.12950000 0.12949900 12879.88184529 0 308.48714900 0 3439.25231819 0 -567.37249729 0 1706.94281102 0 18405
0.13050000 0.13049000 12584.25077263 0 376.01504361 0 3780.04740379 0 -461.87538641 0 1710.35308706 0 18100
0.13150000 0.13148800 12488.36443970 0 135.55404382 0 3987.36561369 0 -258.43913359 0 2406.90196908 0 19059
0.13250000 0.13249300 12447.17539138 0 -52.83569463 0 3929.73416301 0 431.35784475 0 1244.45180334 0 18957
0.13350000 0.13349100 12403.77187809 0 82.26061928 0 4044.98599205 0 555.08996737 0 1190.68459402 0 19468
0.13450000 0.13450700 12269.35385479 0 176.43749599 0 3557.22793914 0 408.26872581 0 1188.59192463 0 19953
0.13550000 0.13551000 12026.86994126 0 136.79857313 0 3298.47878045 0 682.88341873 0 1015.61120846 0 19956
0.13650000 0.13649900 11842.18356329 0 166.13580497 0 2970.45008537 0 -3.58466516 0 772.98003301 0 19723
0.13750000 0.13749600 11624.05876436 0 278.83878484 0 2994.36630698 0 0.64775204 0 773.46278637 0 20946
0.13850000 0.13851100 11524.51856424 0 0.93189779 0 2572.87611811 0 -47.98025875 0 133.88101554 0 20955
0.13950000 0.13949800 11372.82771422 0 95.62701908 0 2806.82326920 0 168.04024484 0 55.42141465 0 20506
0.14050000 0.14048300 11366.95938207 0 149.76426550 0 2444.78039228 0 -304.39481775 0 -161.51421659 0 21447
0.14150000 0.14148400 11315.69451816 0 134.61511068 0 2542.74832228 0 203.89021814 0 -357.73352810 0 21771
0.14250000 0.14249400 11151.71338760 0 197.10509749 0 2710.44975398 0 -76.32264221 0 -100.68895382 0 22470
0.14350000 0.14350900 11024.52559240 0 276.79704814 0 2733.32517706 0 153.36498553 0 212.39154914 0 22519
0.14450000 0.14449900 10786.20487301 0 230.47376280 0 2634.60432897 0 162.38893026 0 115.46995384 0 22218
0.14550000 0.14550500 10780.27010690 0 59.27668743 0 2726.94751796 0 104.19423041 0 524.69975744 0 23559
0.14650000 0.14650700 10618.92418965 0 47.44956222 0 2764.03980610 0 369.79793322 0 442.63279311 0 23044
0.14750000 0.14750500 10672.07134878 0 27.95385558 0 2681.70599875 0 10.69545610 0 278.81221126 0 23649
0.14850000 0.14849900 10670.00082404 0 -26.04963715 0 2507.17294263 0 84.22983225 0 223.08520045 0 23640
0.14950000 0.14949500 10622.31232104 0 83.71441553 0 2859.12893165 0 -236.65101281 0 -277.36505840 0 24457
0.15050000 0.15050000 10585.87330006 0 150.38542292 0 2542.09505511 0 -75.82283747 0 144.12070154 0 24591
0.15150000 0.15149900 10401.39729626 0 271.01175842 0 2832.43355651 0 -78.67252170 0 -174.77886173 0 25020
0.15250000 0.15250500 10177.82491352 0 284.71265315 0 2622.74586909 0 216.09524179 0 58.44393788 0 25297
0.15350000 0.15350100 9989.46252371 0 240.14765299 0 2602.94855232 0 219.32614617 0 129.36350702 0 25452
0.15450000 0.15450400 9707.10716851 0 310.51670614 0 2692.78939589 0 -64.42565064 0 -29.90302764 0 26061
0.15550000 0.15549900 9573.84066699 0 148.45551670 0 2707.40486466 0 258.39262983 0 423.64375605 0 26128
0.15650000 0.15649500 9385.67757902 0 146.10375491 0 2733.24767078 0 274.65676775 0 454.46246495 0 26331
0.15750000 0.15749700 9389.49753108 0 101.32384092 0 2678.10749319 0 124.21930491 0 455.65163263 0 27345
0.15850000 0.15849900 9225.19530310 0 194.47652758 0 2970.97048464 0 72.35066713 0 341.89124575 0 26980
0.15950000 0.15949700 9057.90354742 0 303.13810888 0 2672.46060753 0 -213.47885143 0 547.83648738 0 27777
0.16050000 0.16050000 8849.81027477 0 191.86124446 0 2704.82501297 0 -124.33445709 0 713.53272106 0 28224
0.16150000 0.16150500 8795.12406249 0 32.18082630 0 2736.95689960 0 221.31252124 0 732.43982292 0 28075
0.16250000 0.16249700 8836.54562964 0 61.56312250 0 2387.38146042 0 283.50798421 0 556.36771365 0 28590
0.16350000 0.16349900 8767.15537000 0 -93.84481768 0 2605.90486304 0 199.10254489 0 251.51782335 0 29163
0.16450000 0.16449100 8705.48252076 0 140.20884918 0 2323.88167759 0 59.97989078 0 183.17168394 0 28996
0.16550000 0.16550500 8614.97733770 0 200.74457066 0 2511.46900466 0 0.64913940 0 176.03778506 0 30777
0.16650000 0.16650700 8442.59231259 0 102.50669739 0 2323.97025619 0 -121.51101426 0 727.16496737 0 29211
0.16750000 0.16749900 8546.90468471 0 6.35776213 0 2491.35059047 0 31.00417034 0 388.76371840 0 30922
0.16850000 0.16850800 8485.14325687 0 115.52863716 0 2392.86226121 0 285.29948637 0 505.26561291 0 30867
0.16950000 0.16949900 8330.13070941 0 109.62343416 0 2202.78366105 0 63.02090479 0 581.24279859 0 30852
0.17050000 0.17049200 8280.59312817 0 81.30031655 0 2247.28333449 0 267.80853485 0 203.53036758 0 31257
0.17150000 0.17149500 8203.57403673 0 17.61418649 0 2017.04541221 0 149.08774645 0 247.16639969 0 32608
0.17250000 0.17250900 8090.35951546 0 226.87747170 0 2083.93332644 0 77.94429490 0 -76.14382416 0 32361
0.17350000 0.17350400 7905.94994561 0 220.19643090 0 1684.66529348 0 12.44352152 0 287.66785665 0 32508
0.17450000 0.17449800 7718.71693293 0 74.68847779 0 1774.59471566 0 168.43663407 0 342.81357041 0 32791
0.17550000 0.17549800 7800.12066499 0 43.26942744 0 1694.55287954 0 45.38368786 0 217.74833988 0 33633
0.17650000 0.17650100 7721.10855509 0 34.29984782 0 1781.64778657 0 159.37393621 0 114.72810807 0 33984
0.17750000 0.17750300 7656.92228811 0 112.51364311 0 1696.54589801 0 -36.96052748 0 141.75454572 0 34069
0.17850000 0.17849800 7674.85945432 0 57.01904040 0 1905.49173966 0 -64.53781329 0 244.92425392 0 34536
