### header ###
fiducial parameters:
Omega_m = 0.31
Omega_nu = 0
Omega_de = 0.69
Omega_k = 0
H_0 = 100
w_de = -1
zeff = 0
beta = 0
fgrowth = 0
b_1 = 2
gamma = 0.55
Lx = 3500 Ly = 3500 Lz = 3500
nx = 700 ny = 700 nz = 700
xoffset = -685.467585 yoffset = -31.7331281 zoffset = 572.489161
bins = 400 dk = 0.001
kx_ny = 0.628318531 ky_ny = 0.628318531 kz_ny = 0.628318531
############################
A(data) = 8.05472284 (not used)
A(ran) = 8.04968086 (used)
Ngal = 478853
weighted Ngal = 0
Nran = 23820508
weighted Nran = 0
SN(data) = 3492.1047
SN(ran) = 70.1156396
SN(data+ran) = 3562.22034
############################
13 columns: k_central k_mean P_0(k) sigma^{lin}_{P_0(k)} P^img_1(k) sigma^{lin}_{P_1(k)} P_2(k) sigma^{lin}_{P_2(k)} P^img_3(k) sigma^{lin}_{P_3(k)} P_4(k) sigma^{lin}_{P_4(k)} N_modes
### header ###
0.00050000 0 0 0 0 0 0 0 0 0 0 0 0
0.00150000 0.00179520 16121.52638245 0 -22741.11577527 0 4199.09060887 0 -31992.59677749 0 -1838.98028448 0 3
0.00250000 0.00253879 28807.75326666 0 -19089.57377333 0 -11959.88237611 0 11012.16887791 0 13791.68779411 0 6
0.00350000 0.00331552 35548.47389300 0 -12924.72476081 0 -3474.80555319 0 -30856.90842084 0 -14983.62356083 0 7
0.00450000 0.00420575 38972.25817342 0 -2398.18804945 0 -16032.72633740 0 -15884.35718483 0 -1302.26041122 0 24
0.00550000 0.00557378 37612.57668569 0 5891.62832530 0 -10232.69935532 0 -25845.68493117 0 -8772.71367706 0 45
0.00650000 0.00659388 30411.13662365 0 9195.10072424 0 14565.97546867 0 -45629.82564038 0 -7246.36048384 0 40
0.00750000 0.00754703 33594.09783926 0 3757.23841466 0 22414.92508612 0 -29580.49081575 0 -5308.07251806 0 57
0.00850000 0.00846663 32251.46773175 0 -7990.19926515 0 34585.84597327 0 -3763.07352984 0 4584.68432068 0 75
0.00950000 0.00948925 42384.63795928 0 -5860.37115234 0 39723.29396587 0 2594.19034338 0 2673.74499721 0 112
0.01050000 0.01054430 55828.54403083 0 -12442.63573820 0 42039.29214819 0 30074.87011890 0 -10554.48325920 0 105
0.01150000 0.01145670 59773.83481021 0 -5566.02446936 0 25542.41395439 0 23923.52934266 0 -11004.09715311 0 144
0.01250000 0.01249090 69175.12436723 0 -2370.20828463 0 24912.06650247 0 16445.72405314 0 -13260.43764931 0 169
0.01350000 0.01339930 73694.51518846 0 -4569.20521059 0 20245.96737739 0 2792.30745136 0 -31154.08961898 0 180
0.01450000 0.01448870 63716.13606189 0 8874.52370377 0 28131.67711323 0 -10871.12960437 0 -13485.20584313 0 267
0.01550000 0.01550050 64004.79156992 0 9818.33974364 0 25752.56667945 0 -19590.81791787 0 -4738.24639359 0 238
0.01650000 0.01653350 63004.51774580 0 -5656.36356755 0 31270.79192257 0 -1371.39600739 0 -7957.05979697 0 315
0.01750000 0.01747870 63201.16223458 0 -2367.44020342 0 20395.77593219 0 1784.59302497 0 -24261.12452638 0 297
0.01850000 0.01844180 67726.75355770 0 316.07390597 0 19859.65396447 0 70.11859717 0 -36057.80083466 0 388
0.01950000 0.01947590 69528.55297544 0 -1717.32865170 0 26947.15980413 0 -4831.63038111 0 -27648.03796515 0 399
0.02050000 0.02045430 64511.23970712 0 5029.10529425 0 25953.30792841 0 563.27241541 0 -24292.68065211 0 462
0.02150000 0.02154770 69121.97720810 0 -2869.18260258 0 25764.08189726 0 -219.46344300 0 -22377.61135148 0 571
0.02250000 0.02255340 67011.70282091 0 -2627.89450013 0 32070.98883721 0 5825.23866569 0 -22698.37660147 0 510
0.02350000 0.02348930 71600.29567226 0 -1249.03574582 0 35507.28484468 0 -8809.20805966 0 -24071.45560223 0 555
0.02450000 0.02439640 76594.68922821 0 3491.73513783 0 34886.23814560 0 -5735.28709886 0 -22378.60786071 0 592
0.02550000 0.02547300 75593.41889485 0 4208.45779567 0 46690.22218826 0 -21201.95190223 0 -19309.91303722 0 837
0.02650000 0.02652900 75072.46601214 0 3830.68114518 0 55156.56463759 0 -16783.42996010 0 -13250.80472671 0 723
0.02750000 0.02749970 75852.51129561 0 -737.50541152 0 59113.25991153 0 7516.79094521 0 -7205.24894179 0 826
0.02850000 0.02848090 74575.87224402 0 -540.14675779 0 61551.60728310 0 8150.34937133 0 -10505.80931930 0 831
0.02950000 0.02946900 76336.15044369 0 -657.48572006 0 53664.23669853 0 23383.19989151 0 -17878.59360792 0 996
0.03050000 0.03053250 74264.51847012 0 4927.38384614 0 49866.54000899 0 13453.87116389 0 -13059.14278410 0 1041
0.03150000 0.03150510 67537.85969630 0 4978.06187684 0 40659.90192228 0 -393.62114730 0 547.65822295 0 1036
0.03250000 0.03246190 64548.22127201 0 7183.41431724 0 38268.50120795 0 11331.52794265 0 2541.34213703 0 1059
0.03350000 0.03345080 59043.17209543 0 3694.44726061 0 38677.95577974 0 2218.70566413 0 1967.67391585 0 1302
0.03450000 0.03451200 55367.49242539 0 3643.56992807 0 30335.62336838 0 7085.92249721 0 -5046.90959256 0 1339
0.03550000 0.03553350 51473.35578667 0 1023.83130240 0 28645.76515456 0 4905.50493230 0 -5189.15574951 0 1365
0.03650000 0.03647120 48836.03873811 0 146.91314186 0 23299.38239263 0 9215.92776723 0 -10317.13690439 0 1308
0.03750000 0.03744890 50906.00986296 0 -283.28764495 0 19198.41472630 0 6259.84955947 0 -3881.23738030 0 1579
0.03850000 0.03847530 51057.58998973 0 -2768.41337441 0 14249.74987185 0 4763.65737905 0 -7179.42828031 0 1662
0.03950000 0.03950240 51964.08122263 0 -1142.15459434 0 13107.30739707 0 4240.44574207 0 -3114.79998403 0 1683
0.04050000 0.04050350 52545.37827561 0 1182.98932827 0 12815.77308459 0 -2969.45357614 0 -5221.40943170 0 1822
0.04150000 0.04152450 50129.39700018 0 3916.89026622 0 15170.52440377 0 -2547.26583080 0 -3466.34629702 0 1887
0.04250000 0.04250150 47635.02366504 0 5065.40037501 0 15399.61080427 0 -4296.05095731 0 1594.72479898 0 1920
0.04350000 0.04349210 44784.12147073 0 2450.52692886 0 20287.04570247 0 -1776.68738505 0 922.96685223 0 2005
0.04450000 0.04448520 43288.36111098 0 -684.32171372 0 16379.73299722 0 2733.66841913 0 992.87418944 0 2151
0.04550000 0.04548030 44212.12517060 0 -270.93093045 0 19195.75736834 0 4554.51223555 0 -3724.98473246 0 2274
0.04650000 0.04648670 45260.45288443 0 210.49928882 0 17594.03486008 0 1404.52440325 0 -6457.04766449 0 2311
0.04750000 0.04749250 43279.17108138 0 623.15044079 0 15260.21023480 0 628.36661302 0 -2507.04007474 0 2568
0.04850000 0.04851840 42359.50378194 0 3240.88054674 0 18016.55477516 0 -3729.32508379 0 622.76844559 0 2493
0.04950000 0.04949480 41767.46657389 0 2025.56003000 0 19914.79414207 0 2344.57585267 0 1447.99435048 0 2644
0.05050000 0.05050630 39894.80427731 0 396.03823581 0 19150.80372958 0 3088.19318749 0 2475.58359993 0 2829
0.05150000 0.05149060 40233.50669352 0 466.43496978 0 19421.63279464 0 3095.82201929 0 2076.52594114 0 2784
0.05250000 0.05249300 39585.11135214 0 807.86117788 0 19362.06368712 0 3709.06272937 0 -2453.67146911 0 3055
0.05350000 0.05348950 38121.01784137 0 265.47891771 0 15745.62095485 0 1542.54093211 0 1208.55532628 0 3009
0.05450000 0.05448610 37171.56598817 0 1269.29810024 0 13127.12685849 0 2952.00359222 0 31.38184734 0 3336
0.05550000 0.05550870 36831.97778598 0 114.05601796 0 10472.04980093 0 1248.48212958 0 -1767.81845287 0 3349
0.05650000 0.05647670 35240.66326304 0 1123.98490932 0 10720.98887983 0 2025.64860860 0 -3926.21316372 0 3324
0.05750000 0.05747970 34680.18218072 0 1042.73951149 0 9457.51482245 0 1464.42568051 0 -1437.27634006 0 3639
0.05850000 0.05849280 34158.56495852 0 962.23928113 0 7739.68791613 0 917.74625108 0 -329.49134919 0 3846
0.05950000 0.05951020 33454.03293031 0 407.05077008 0 9179.18979348 0 969.64334474 0 2101.38331036 0 3787
0.06050000 0.06049470 33206.45574736 0 1194.17237634 0 7602.25822048 0 -995.84821589 0 3239.18648105 0 3930
0.06150000 0.06148310 32640.77067238 0 310.76140452 0 10216.24588064 0 1576.89835602 0 2697.14081955 0 4083
0.06250000 0.06249100 31914.75833402 0 733.65445695 0 10287.23055506 0 80.63741647 0 1927.30421956 0 4303
0.06350000 0.06350600 31708.14875290 0 -284.92192009 0 11232.43063552 0 42.99992705 0 1189.66594014 0 4470
0.06450000 0.06451750 31607.94421329 0 -614.93034685 0 11367.40227506 0 -1221.63174189 0 -2124.26980576 0 4479
0.06550000 0.06550280 32795.11888035 0 169.79188663 0 12427.24520670 0 -1037.80014739 0 -1603.28370606 0 4636
0.06650000 0.06648880 33104.14746604 0 366.92023600 0 13565.92309105 0 -2283.56734292 0 -1583.14314722 0 4653
0.06750000 0.06749660 31873.45856244 0 1544.24607013 0 12540.07219661 0 53.53635135 0 -94.29966878 0 5220
0.06850000 0.06852730 31164.05471131 0 1036.92211203 0 13367.06413731 0 395.58427049 0 -1662.73101802 0 5029
0.06950000 0.06949320 30211.39188392 0 965.10922772 0 14192.28450604 0 2499.79877431 0 536.01013724 0 5040
0.07050000 0.07048030 30342.26676327 0 1.78809188 0 12414.62275641 0 1684.27776211 0 -3741.11710972 0 5475
0.07150000 0.07148790 29441.09024628 0 145.35194406 0 12217.42465139 0 416.98596714 0 -471.62899735 0 5509
0.07250000 0.07249820 29527.78654961 0 602.05655478 0 11734.22839630 0 -21.03475980 0 -1307.58619946 0 5916
0.07350000 0.07351270 28496.62093925 0 662.10066504 0 11110.08144628 0 703.83668621 0 847.55878406 0 5721
0.07450000 0.07449140 28461.41094633 0 318.85084504 0 11381.68557408 0 1780.35232456 0 570.37420455 0 6028
0.07550000 0.07549160 27305.57095851 0 312.19748505 0 10086.02426845 0 2744.25356165 0 -128.28174088 0 6183
0.07650000 0.07648840 27738.16668918 0 967.35026627 0 10488.61399886 0 1366.32488262 0 1767.27590895 0 6330
0.07750000 0.07749960 26147.95939872 0 1105.33579262 0 9478.51902263 0 717.45896744 0 4245.04075687 0 6583
0.07850000 0.07848650 25877.68394990 0 938.52457584 0 9863.86914329 0 702.90328923 0 5068.85494035 0 6549
0.07950000 0.07947320 25074.27606106 0 411.89159049 0 9929.42837854 0 995.47064961 0 4666.57523504 0 6828
0.08050000 0.08048110 25121.00127179 0 228.60253990 0 9430.64229011 0 716.05278218 0 4435.83905815 0 7147
0.08150000 0.08149960 24740.22402128 0 146.98068304 0 9380.99398562 0 -756.30621906 0 2071.00085105 0 7386
0.08250000 0.08250610 24092.60374264 0 646.08897612 0 9272.72879355 0 -973.72238920 0 224.14814363 0 7227
0.08350000 0.08350160 23435.57198790 0 1031.69929642 0 9369.11338109 0 -507.66941463 0 -1433.81070239 0 7798
0.08450000 0.08449610 22310.18089333 0 1158.61914135 0 8609.03149927 0 -763.98044739 0 -2048.54617632 0 7371
0.08550000 0.08548940 21753.90729444 0 562.14746721 0 8257.40768000 0 502.52742699 0 -2177.68270068 0 8256
0.08650000 0.08650700 21499.24382361 0 -128.76006532 0 7382.46150051 0 1981.12679050 0 -2094.59597524 0 8037
0.08750000 0.08749060 21827.75970098 0 -402.90086273 0 6879.19112053 0 2459.37371639 0 -2318.16835798 0 8155
0.08850000 0.08849210 21506.21938825 0 103.28076361 0 6075.94931656 0 1050.22772477 0 -2228.05070628 0 8718
0.08950000 0.08949900 21747.04245306 0 653.02135869 0 7301.13527471 0 -599.79890775 0 -1376.71072330 0 8571
0.09050000 0.09049190 20843.20857811 0 976.54029587 0 7179.35077403 0 -808.93408616 0 -236.66097791 0 8932
0.09150000 0.09150830 20111.77080059 0 831.71207277 0 8099.70455761 0 -539.34955040 0 1089.01961477 0 9285
0.09250000 0.09250820 19846.58862118 0 165.33970482 0 7953.16233864 0 591.41051447 0 355.31754683 0 9204
0.09350000 0.09350330 19964.17671076 0 -747.20698253 0 8210.77104787 0 1287.72244873 0 724.34927517 0 9349
0.09450000 0.09448040 20204.88905231 0 -90.98849005 0 7318.13129331 0 1303.04654628 0 128.78663890 0 9564
0.09550000 0.09549270 20187.94839534 0 311.38699087 0 6687.20808050 0 659.78212022 0 247.78977158 0 10155
0.09650000 0.09649430 19778.49382355 0 594.20074032 0 7031.73453955 0 309.58552363 0 438.39984333 0 9913
0.09750000 0.09749140 19304.70904456 0 549.31132104 0 6431.12735209 0 -269.42066535 0 671.78562756 0 10476
0.09850000 0.09850240 18505.06574616 0 774.02083154 0 7395.93651981 0 -326.43095861 0 906.25207069 0 10575
0.09950000 0.09950330 18271.99330872 0 681.31004137 0 7504.82176208 0 -519.11709126 0 899.01962811 0 10882
0.10050000 0.10051200 17628.80196001 0 108.22477809 0 7406.15627562 0 106.07763286 0 1067.89583348 0 10875
0.10150000 0.10150300 17690.47480925 0 41.49331581 0 7452.11749594 0 193.09359421 0 614.55388780 0 11118
0.10250000 0.10250800 17721.14514900 0 370.92952482 0 8115.75942860 0 65.96237860 0 -73.29679728 0 11575
0.10350000 0.10349800 17180.59425135 0 793.44279650 0 7356.55226043 0 564.35861047 0 401.14147032 0 11364
0.10450000 0.10450100 16400.88113762 0 640.09884839 0 6895.36778709 0 402.09369025 0 820.83904980 0 12093
0.10550000 0.10551000 16009.80662503 0 391.39893171 0 6566.60831857 0 660.00245949 0 -132.47150860 0 12067
0.10650000 0.10649700 15986.44401966 0 -102.67433238 0 6419.81143612 0 1175.80338947 0 -46.80282773 0 12054
0.10750000 0.10749900 15947.69088279 0 -57.80085725 0 5566.07983098 0 838.72860501 0 500.09594446 0 12807
0.10850000 0.10850100 15763.89029080 0 193.75129030 0 5072.03269758 0 488.88632281 0 352.74987470 0 12736
0.10950000 0.10950300 16152.75033843 0 -372.19619878 0 4613.50558219 0 631.85439533 0 456.30711426 0 12933
0.11050000 0.11050200 16015.34278743 0 -173.68602327 0 4654.35138844 0 111.11853018 0 -72.93683600 0 13428
0.11150000 0.11150900 16243.32195545 0 240.67912458 0 4944.24699684 0 0.05670359 0 -156.67007449 0 13453
0.11250000 0.11250000 15954.99861717 0 502.63593577 0 5121.37097697 0 -294.79068320 0 -371.58943538 0 13668
0.11350000 0.11349100 15506.12656903 0 400.77276190 0 5011.11276642 0 -667.66672273 0 -138.21693794 0 13791
0.11450000 0.11448600 15349.12100310 0 488.27402325 0 5493.73326062 0 -439.65876667 0 298.22974729 0 14205
0.11550000 0.11549300 15168.97427830 0 251.79352424 0 5659.79598825 0 85.59017808 0 93.02502275 0 14776
0.11650000 0.11649800 14900.69184794 0 -50.85718091 0 5500.57595736 0 746.80062821 0 49.96663383 0 14553
0.11750000 0.11747300 14843.44792863 0 191.90774822 0 5170.90855821 0 308.75620650 0 -389.46902550 0 14568
0.11850000 0.11849100 14589.55952054 0 335.56009042 0 5303.47750326 0 -80.40268318 0 -412.04217410 0 16015
0.11950000 0.11950300 14281.19527434 0 404.59603566 0 5439.89961735 0 39.36986536 0 -12.27644014 0 15270
0.12050000 0.12050700 13946.47889507 0 395.98730312 0 5528.64430077 0 -60.92280996 0 -72.42241579 0 15999
0.12150000 0.12150000 13701.00545384 0 171.82587270 0 5549.31633121 0 119.52574642 0 217.93767664 0 15670
0.12250000 0.12250700 13697.57303315 0 -26.46130619 0 5583.76233372 0 728.31759639 0 197.29554148 0 16887
0.12350000 0.12352200 13725.03239870 0 -203.38421290 0 5164.45339284 0 549.97233883 0 116.69344573 0 16407
0.12450000 0.12449800 13706.43089300 0 183.69540490 0 5131.50215418 0 536.90256662 0 252.07697575 0 16306
0.12550000 0.12549900 13517.53703160 0 497.91137477 0 4957.47842500 0 126.25661267 0 308.02321859 0 17523
0.12650000 0.12650100 13211.94086660 0 213.76230295 0 4693.13774228 0 271.89311548 0 885.36855885 0 17154
0.12750000 0.12750600 13021.38615647 0 -96.76259672 0 4756.52680187 0 463.88058444 0 1323.22032210 0 18007
0.12850000 0.12850300 13319.78531034 0 -56.36400166 0 4477.63708434 0 742.54774824 0 472.86356156 0 17496
0.12950000 0.12949900 12997.69138136 0 349.95964885 0 4327.89496349 0 205.25100686 0 935.48079374 0 18405
0.13050000 0.13049000 13041.31634115 0 205.05945564 0 3911.79699680 0 292.85081190 0 1193.06514386 0 18100
0.13150000 0.13148800 12765.72617641 0 -183.54371405 0 3907.91061079 0 198.91542260 0 1517.06351270 0 19059
0.13250000 0.13249300 12899.92275321 0 24.00014983 0 3938.31521474 0 479.40841277 0 1419.39453548 0 18957
0.13350000 0.13349100 12971.56069479 0 271.17673606 0 3956.87243114 0 56.75828715 0 721.71738356 0 19468
0.13450000 0.13450700 12370.22273389 0 290.47026206 0 4163.98026687 0 -36.94480478 0 1524.08336664 0 19953
0.13550000 0.13551000 12325.60126487 0 231.13145889 0 3863.66560082 0 -40.07273654 0 1156.27180849 0 19956
0.13650000 0.13649900 12311.42868910 0 15.70531769 0 3895.08885865 0 392.51280759 0 1401.52380322 0 19723
0.13750000 0.13749600 12204.24858486 0 204.72507143 0 3730.41017162 0 225.67169552 0 1376.16817938 0 20946
0.13850000 0.13851100 12068.05898959 0 200.88740365 0 4067.96106605 0 315.58672368 0 1134.86900461 0 20955
0.13950000 0.13949800 11909.83546793 0 298.57298936 0 4142.23422093 0 -14.83525441 0 1603.37228466 0 20506
0.14050000 0.14048300 11504.03476333 0 497.19831705 0 4189.30267373 0 130.34894393 0 1506.09083881 0 21447
0.14150000 0.14148400 11454.65219463 0 172.26876569 0 4230.62458996 0 -142.37016698 0 1902.20325919 0 21771
0.14250000 0.14249400 11198.99221457 0 -6.51176709 0 4114.34303471 0 -33.98295789 0 1876.22758517 0 22470
0.14350000 0.14350900 11287.12792013 0 116.07118107 0 4083.16336802 0 198.81909337 0 1460.38428196 0 22519
0.14450000 0.14449900 11198.77076808 0 109.80845271 0 3882.43319138 0 145.09838782 0 1405.66485270 0 22218
0.14550000 0.14550500 11138.75876756 0 61.37057477 0 3589.07194531 0 221.39556368 0 1066.48854100 0 23559
0.14650000 0.14650700 10908.26618181 0 302.50255744 0 3386.50376276 0 291.22207292 0 821.36609246 0 23044
0.14750000 0.14750500 10757.58291335 0 304.63951613 0 3418.60243241 0 -134.38259186 0 413.17930186 0 23649
0.14850000 0.14849900 10439.79611873 0 277.51896372 0 3366.07532347 0 18.85030083 0 512.47701807 0 23640
0.14950000 0.14949500 10227.42892871 0 164.37862703 0 3121.70911472 0 63.97002447 0 208.42987132 0 24457
0.15050000 0.15050000 10229.03441581 0 -153.07267615 0 3316.36058503 0 -30.07398433 0 24.57413915 0 24591
0.15150000 0.15149900 10238.70055538 0 -40.55670785 0 3186.73687838 0 191.80809730 0 -554.91391740 0 25020
0.15250000 0.15250500 10373.92685839 0 145.29658243 0 3196.03763123 0 118.38529696 0 -206.79781064 0 25297
0.15350000 0.15350100 10077.33249347 0 90.51824841 0 3119.55001138 0 32.48786187 0 111.96445580 0 25452
0.15450000 0.15450400 10092.22477035 0 157.79723715 0 3038.97670367 0 278.69595185 0 139.53897353 0 26061
0.15550000 0.15549900 9902.45619528 0 206.20876296 0 3071.29681982 0 177.43732692 0 199.25977190 0 26128
0.15650000 0.15649500 9754.99497335 0 193.01608794 0 2741.25296163 0 332.65692685 0 456.69464563 0 26331
0.15750000 0.15749700 9671.36570399 0 68.09202955 0 2918.74232847 0 280.39666094 0 521.63383069 0 27345
0.15850000 0.15849900 9569.81034076 0 173.52436733 0 3090.05333806 0 -16.55334705 0 463.40779617 0 26980
0.15950000 0.15949700 9439.34513742 0 277.62304357 0 3046.49481223 0 -168.73890854 0 231.79690561 0 27777
0.16050000 0.16050000 9139.41800273 0 235.68661332 0 3243.15037333 0 -381.21792904 0 409.32724006 0 28224
0.16150000 0.16150500 9328.76582945 0 41.52099662 0 3463.19068445 0 -304.78677805 0 653.04128887 0 28075
0.16250000 0.16249700 9081.63153950 0 -53.91059593 0 3606.40013366 0 178.26110788 0 663.33633649 0 28590
0.16350000 0.16349900 9283.23642980 0 73.01589240 0 3350.04259713 0 195.52950567 0 764.44327057 0 29163
0.16450000 0.16449100 9261.26893736 0 34.08161230 0 3531.78373670 0 213.35262693 0 545.31199732 0 28996
0.16550000 0.16550500 9007.11479347 0 295.76504779 0 3398.43972891 0 171.26893476 0 576.49055678 0 30777
0.16650000 0.16650700 8844.52877584 0 251.86992328 0 3101.21424148 0 466.36410690 0 1172.49276435 0 29211
0.16750000 0.16749900 8670.00679204 0 -17.50191312 0 2738.20807230 0 513.96181683 0 895.41005022 0 30922
0.16850000 0.16850800 8673.53886366 0 -110.81957741 0 2473.34699031 0 655.77504587 0 1074.72856513 0 30867
0.16950000 0.16949900 8595.80007111 0 45.74984964 0 2300.24226410 0 481.59962585 0 624.14805726 0 30852
0.17050000 0.17049200 8661.79112703 0 168.53185606 0 2016.11533693 0 -42.07882035 0 524.40966253 0 31257
0.17150000 0.17149500 8292.96091499 0 221.94807269 0 2216.73479032 0 -382.17347067 0 672.16208660 0 32608
0.17250000 0.17250900 8297.65558072 0 185.00193923 0 2192.27602479 0 -329.95195790 0 384.01036936 0 32361
0.17350000 0.17350400 8223.67030628 0 92.19703430 0 2349.33695235 0 -151.75617673 0 418.91476612 0 32508
0.17450000 0.17449800 8184.85073547 0 -5.64193633 0 2341.43131242 0 -136.01686700 0 115.76779937 0 32791
0.17550000 0.17549800 8200.77273855 0 87.56171624 0 2327.17015806 0 198.48028023 0 -140.93962262 0 33633
0.17650000 0.17650100 8148.05740009 0 99.50620808 0 2177.74913463 0 289.64980279 0 -55.07551522 0 33984
0.17750000 0.17750300 7877.04010551 0 232.28408791 0 2043.72971503 0 249.36093447 0 265.58078310 0 34069
