### header ###
fiducial parameters:
Omega_m = 0.31
Omega_nu = 0
Omega_de = 0.69
Omega_k = 0
H_0 = 100
w_de = -1
zeff = 0
beta = 0
fgrowth = 0
b_1 = 2
gamma = 0.55
Lx = 3500 Ly = 3500 Lz = 3500
nx = 700 ny = 700 nz = 700
xoffset = -685.467585 yoffset = -31.7331281 zoffset = 572.489161
bins = 400 dk = 0.001
kx_ny = 0.628318531 ky_ny = 0.628318531 kz_ny = 0.628318531
############################
A(data) = 8.00934113 (not used)
A(ran) = 8.00561474 (used)
Ngal = 475949
weighted Ngal = 0
Nran = 23820508
weighted Nran = 0
SN(data) = 3489.9236
SN(ran) = 69.7318078
SN(data+ran) = 3559.65541
############################
13 columns: k_central k_mean P_0(k) sigma^{lin}_{P_0(k)} P^img_1(k) sigma^{lin}_{P_1(k)} P_2(k) sigma^{lin}_{P_2(k)} P^img_3(k) sigma^{lin}_{P_3(k)} P_4(k) sigma^{lin}_{P_4(k)} N_modes
### header ###
0.00050000 0 0 0 0 0 0 0 0 0 0 0 0
0.00150000 0.00179520 39707.23909488 0 -23613.83641748 0 15987.10835915 0 44016.03429806 0 -95804.28700257 0 3
0.00250000 0.00253879 70443.01628221 0 -16302.66961648 0 18987.26549201 0 -11842.40500978 0 96236.99345648 0 6
0.00350000 0.00331552 59316.65851845 0 2613.00222325 0 -6323.42684858 0 -18933.56471664 0 70635.01039457 0 7
0.00450000 0.00420575 47098.23735783 0 9936.27107528 0 -13148.16427565 0 -13056.37470290 0 24236.10107229 0 24
0.00550000 0.00557378 38070.19587045 0 -6228.58131418 0 -3492.84237032 0 77.96189990 0 -17202.51745449 0 45
0.00650000 0.00659388 47265.54018584 0 -13820.25439214 0 1866.94897697 0 -30511.89477950 0 -8281.65607135 0 40
0.00750000 0.00754703 58017.87481722 0 -13409.80331111 0 2202.99403522 0 -30229.43977337 0 16555.89368508 0 57
0.00850000 0.00846663 62059.05192953 0 -3708.53125778 0 18801.58260480 0 -28901.86802762 0 27600.64841493 0 75
0.00950000 0.00948925 78158.98727858 0 3216.56572144 0 17225.99078311 0 -19049.15978774 0 -2258.95356485 0 112
0.01050000 0.01054430 90030.51250264 0 -1274.07027223 0 37741.34782333 0 -8458.21536291 0 -1241.35155239 0 105
0.01150000 0.01145670 81794.14223979 0 -1151.59928741 0 13301.84814413 0 4277.83698298 0 -8938.95356189 0 144
0.01250000 0.01249090 92953.16336177 0 327.15841035 0 25338.90462422 0 23132.96535061 0 -11444.57637905 0 169
0.01350000 0.01339930 80956.18869752 0 2091.18569920 0 20326.68462532 0 28936.41368105 0 9079.81567823 0 180
0.01450000 0.01448870 87258.00236805 0 7676.78603884 0 11507.79935376 0 22661.83792957 0 -10780.14831133 0 267
0.01550000 0.01550050 70147.05303981 0 7662.43630587 0 24646.88432306 0 19716.15663482 0 31671.38863450 0 238
0.01650000 0.01653350 70743.40845454 0 2734.89744718 0 17330.62425264 0 12394.80329499 0 22655.30525793 0 315
0.01750000 0.01747870 68083.94675635 0 -2167.86154857 0 21483.96401536 0 8682.46315746 0 44220.87230721 0 297
0.01850000 0.01844180 81436.50614815 0 -9042.87840264 0 36793.66754211 0 7357.37161247 0 21001.65354626 0 388
0.01950000 0.01947590 80680.48780953 0 -1690.73292748 0 55423.18621922 0 -4578.08521509 0 32683.95273917 0 399
0.02050000 0.02045430 84581.37856639 0 8935.28862237 0 49432.94776909 0 -12449.27913309 0 26052.51595879 0 462
0.02150000 0.02154770 78849.67890077 0 6762.53310624 0 65219.86849551 0 -628.76078778 0 35880.86508406 0 571
0.02250000 0.02255340 74357.63672185 0 8310.38875426 0 60799.02136517 0 6151.99404341 0 38029.89260811 0 510
0.02350000 0.02348930 68769.21293938 0 4144.88050656 0 65990.50230289 0 22153.61822040 0 12214.43512369 0 555
0.02450000 0.02439640 67229.93834309 0 2421.27384669 0 53512.87801826 0 21617.38552943 0 21214.02073629 0 592
0.02550000 0.02547300 62780.85678446 0 105.00616399 0 40818.12544394 0 19734.64741727 0 11284.47056217 0 837
0.02650000 0.02652900 61113.14322028 0 124.22262661 0 27613.82448146 0 19034.21214924 0 22396.10213392 0 723
0.02750000 0.02749970 61266.05202602 0 -580.19092773 0 16605.16553052 0 15775.40550861 0 12598.97696464 0 826
0.02850000 0.02848090 63772.93708821 0 -3366.61786738 0 10846.79263442 0 10172.52126993 0 14668.50519649 0 831
0.02950000 0.02946900 64832.78001985 0 -787.15260877 0 8183.46669486 0 -15.52162782 0 7105.28799332 0 996
0.03050000 0.03053250 65872.24987383 0 600.66697802 0 4942.84081159 0 -4314.55281208 0 -876.75207567 0 1041
0.03150000 0.03150510 59147.69484172 0 4628.18748489 0 7817.64815518 0 -9676.25967156 0 2948.25007411 0 1036
0.03250000 0.03246190 58770.57145840 0 3169.33118376 0 10166.90760125 0 -2081.59706591 0 -2627.71734294 0 1059
0.03350000 0.03345080 58048.76660347 0 367.24797682 0 9376.80864684 0 1063.93083396 0 -7225.94311687 0 1302
0.03450000 0.03451200 56682.66316734 0 151.88572293 0 8418.49893379 0 4689.99320203 0 -8737.57011809 0 1339
0.03550000 0.03553350 55521.72991011 0 902.61370475 0 7330.69838198 0 -40.90537536 0 -7062.19450513 0 1365
0.03650000 0.03647120 56966.11468270 0 602.15177677 0 8356.46069783 0 2486.61163545 0 -1033.78421518 0 1308
0.03750000 0.03744890 54815.97992617 0 3252.38469223 0 13976.26344883 0 -5937.61169027 0 -1551.46522591 0 1579
0.03850000 0.03847530 53697.23222649 0 2958.63591479 0 19037.20167694 0 -10103.21958889 0 -555.77866597 0 1662
0.03950000 0.03950240 50081.67528021 0 3581.91922348 0 24679.32623478 0 -5875.93884103 0 6518.73158605 0 1683
0.04050000 0.04050350 51229.98608715 0 2634.12821901 0 33252.73806510 0 3479.37842334 0 12935.79708562 0 1822
0.04150000 0.04152450 49546.54982173 0 -2757.06424147 0 24584.76858083 0 8858.41347116 0 3997.15354883 0 1887
0.04250000 0.04250150 51155.24789463 0 127.86652870 0 30167.43475439 0 7884.60250336 0 1357.11270837 0 1920
0.04350000 0.04349210 48530.55329637 0 4072.63358712 0 24502.39048418 0 742.15468071 0 2881.98221007 0 2005
0.04450000 0.04448520 44989.73454261 0 3597.45369520 0 20945.51685943 0 3392.94785580 0 6324.53408106 0 2151
0.04550000 0.04548030 41578.90488223 0 889.56054102 0 15441.90708508 0 3379.27353465 0 4285.39938083 0 2274
0.04650000 0.04648670 42564.67396083 0 -1147.14821284 0 17735.31772476 0 7607.22969433 0 2257.44772868 0 2311
0.04750000 0.04749250 41571.15425486 0 235.71318690 0 14039.70787004 0 1071.58513211 0 -2808.45090095 0 2568
0.04850000 0.04851840 40668.31688914 0 4442.90320138 0 13806.63543261 0 -834.43254298 0 -1157.27939004 0 2493
0.04950000 0.04949480 37908.76137459 0 2382.07781683 0 15534.02882757 0 -4244.14389856 0 2675.10689316 0 2644
0.05050000 0.05050630 36589.38314920 0 1559.35979351 0 16388.81230357 0 -444.25488870 0 2527.40208008 0 2829
0.05150000 0.05149060 36261.42088807 0 -765.68779988 0 17815.92424944 0 820.62092500 0 3428.68932032 0 2784
0.05250000 0.05249300 37165.14403977 0 -1051.57965563 0 14517.81085571 0 3935.41426564 0 2114.26042412 0 3055
0.05350000 0.05348950 38034.65370778 0 218.03400586 0 15305.82821306 0 2353.20119371 0 155.64477721 0 3009
0.05450000 0.05448610 37188.83881488 0 1257.69430383 0 14370.21676588 0 -2132.39689217 0 -3043.37241663 0 3336
0.05550000 0.05550870 36359.85385571 0 2436.37649774 0 15253.01322367 0 -1917.54950139 0 -1822.74825630 0 3349
0.05650000 0.05647670 33641.81955923 0 1898.37223481 0 15666.89672539 0 -1799.80639927 0 913.24977997 0 3324
0.05750000 0.05747970 32579.20854638 0 926.75580179 0 15841.28584129 0 1948.47450461 0 -136.22613394 0 3639
0.05850000 0.05849280 32545.43795569 0 684.72142464 0 15298.63120192 0 2194.60121300 0 -703.52998281 0 3846
0.05950000 0.05951020 31618.46292187 0 1279.26319257 0 15003.22157576 0 2953.03331843 0 -2161.60568505 0 3787
0.06050000 0.06049470 31102.71403182 0 -114.89972911 0 12373.21226159 0 4063.70929332 0 519.01965480 0 3930
0.06150000 0.06148310 30890.90045804 0 -1677.80045209 0 9529.56244004 0 2647.14927299 0 -2290.53183523 0 4083
0.06250000 0.06249100 32110.40631356 0 -917.84922370 0 9929.10728112 0 739.15740238 0 -3203.13499144 0 4303
0.06350000 0.06350600 32372.82041177 0 191.98746896 0 9033.12368447 0 289.00871518 0 -3009.49110268 0 4470
0.06450000 0.06451750 31463.11820467 0 1177.56388911 0 8998.02441480 0 -1515.03727726 0 -3516.92467680 0 4479
0.06550000 0.06550280 30838.52836165 0 1010.28320575 0 8899.24820509 0 -361.63320090 0 -2807.72012751 0 4636
0.06650000 0.06648880 30381.24134664 0 212.87098080 0 9118.25879000 0 1530.29494086 0 106.87771905 0 4653
0.06750000 0.06749660 30234.75448928 0 -58.88970967 0 8205.51169358 0 3122.82741953 0 -860.53776321 0 5220
0.06850000 0.06852730 30693.59162977 0 -472.37970097 0 7216.73094262 0 3360.99312638 0 2269.85980480 0 5029
0.06950000 0.06949320 31099.61378087 0 -707.27464307 0 6977.54658189 0 1470.32722964 0 1762.01655466 0 5040
0.07050000 0.07048030 30238.62980297 0 910.35990319 0 6365.70098474 0 1263.48512971 0 3007.48701189 0 5475
0.07150000 0.07148790 30079.52049533 0 1881.84125385 0 7164.54707575 0 -1637.10965839 0 3569.56250898 0 5509
0.07250000 0.07249820 27681.47638610 0 2108.91249123 0 7025.86620740 0 -987.45096474 0 4783.79793790 0 5916
0.07350000 0.07351270 26209.41080147 0 1475.06618466 0 7491.32459812 0 -1515.00406029 0 3178.79802148 0 5721
0.07450000 0.07449140 26122.05015865 0 255.30898737 0 9136.64992153 0 -980.03472158 0 1759.10453324 0 6028
0.07550000 0.07549160 25402.90266168 0 -241.01350879 0 8066.58723408 0 23.98464858 0 -917.83482968 0 6183
0.07650000 0.07648840 25674.17461973 0 -158.52247443 0 7785.90379992 0 1392.84310056 0 804.96465771 0 6330
0.07750000 0.07749960 25399.35951773 0 404.11438953 0 7522.19423972 0 943.86254363 0 -982.43298714 0 6583
0.07850000 0.07848650 25433.90517117 0 463.53180621 0 7250.03649568 0 384.54959158 0 -987.56943862 0 6549
0.07950000 0.07947320 24593.73716393 0 760.66317888 0 7531.48392024 0 -391.99794448 0 -691.81657039 0 6828
0.08050000 0.08048110 24328.11209153 0 320.48954911 0 7813.71747987 0 -543.44852505 0 1576.14543793 0 7147
0.08150000 0.08149960 24540.14711181 0 -268.02887412 0 8564.45431955 0 -352.13203897 0 -581.34577121 0 7386
0.08250000 0.08250610 24242.85519043 0 412.65115197 0 8402.93124509 0 55.16652973 0 14.87190380 0 7227
0.08350000 0.08350160 23862.96372590 0 1215.07692560 0 8286.72719612 0 -350.15341453 0 -296.39174137 0 7798
0.08450000 0.08449610 22669.14566395 0 1034.03112802 0 8967.44265365 0 1181.19561165 0 -20.12450397 0 7371
0.08550000 0.08548940 22693.06188556 0 22.14332096 0 7311.48789842 0 2272.04105279 0 177.04647385 0 8256
0.08650000 0.08650700 22050.53487633 0 -417.13987245 0 6068.57514823 0 1774.43970311 0 -740.82378727 0 8037
0.08750000 0.08749060 22014.66054392 0 403.97377101 0 6179.35375804 0 1068.82812323 0 864.15730619 0 8155
0.08850000 0.08849210 21466.02684916 0 890.85489579 0 5819.63606933 0 498.40962939 0 736.78017424 0 8718
0.08950000 0.08949900 20796.26192088 0 1022.14055840 0 6205.20763649 0 -1155.44138413 0 2153.64468350 0 8571
0.09050000 0.09049190 19916.45499079 0 1187.49576447 0 7603.13293414 0 -186.49005969 0 2031.77160422 0 8932
0.09150000 0.09150830 19337.48312602 0 1038.29065138 0 8252.38084453 0 -793.07187362 0 3358.84509536 0 9285
0.09250000 0.09250820 18779.77012491 0 370.48552459 0 8353.29401293 0 770.50647564 0 3803.94148075 0 9204
0.09350000 0.09350330 18813.76216210 0 -354.10512726 0 8641.00837334 0 779.64778701 0 4611.49041907 0 9349
0.09450000 0.09448040 18907.10186032 0 -301.75517552 0 8252.24797664 0 2256.26298992 0 3880.82770429 0 9564
0.09550000 0.09549270 19167.41221681 0 7.46770733 0 7731.99265038 0 857.21828023 0 3425.97660074 0 10155
0.09650000 0.09649430 18758.51126125 0 452.10738146 0 6984.10139818 0 106.63778177 0 3488.00376437 0 9913
0.09750000 0.09749140 18312.29657106 0 570.05310713 0 7845.04108678 0 -758.90378646 0 3355.55661489 0 10476
0.09850000 0.09850240 18012.23656848 0 523.95569721 0 7855.52657838 0 -623.90225165 0 2948.52688223 0 10575
0.09950000 0.09950330 17705.64389425 0 271.66059666 0 7941.70248245 0 -520.53877777 0 1622.39453870 0 10882
0.10050000 0.10051200 17584.06976774 0 406.67209657 0 8104.32171706 0 -449.79215834 0 1050.12696661 0 10875
0.10150000 0.10150300 17250.34989771 0 298.64274501 0 7172.26448615 0 -184.43392897 0 392.47626892 0 11118
0.10250000 0.10250800 17044.29393283 0 81.68585490 0 7105.52051214 0 937.44059524 0 -382.56210927 0 11575
0.10350000 0.10349800 17097.66253846 0 -376.34278442 0 6453.80347332 0 422.05487744 0 -814.67840827 0 11364
0.10450000 0.10450100 17057.02710637 0 90.47717009 0 6000.90109894 0 925.18242443 0 -2336.89165925 0 12093
0.10550000 0.10551000 16807.12473522 0 303.99732129 0 5502.15929981 0 856.19187572 0 -1265.36742492 0 12067
0.10650000 0.10649700 16210.76932048 0 772.40980828 0 5311.01775646 0 413.12726194 0 -1071.43676296 0 12054
0.10750000 0.10749900 15667.78251138 0 589.08532626 0 4990.20821717 0 440.66745546 0 250.28768806 0 12807
0.10850000 0.10850100 15454.08664238 0 317.16231550 0 5315.01486572 0 539.02513129 0 5.78299775 0 12736
0.10950000 0.10950300 15032.12034354 0 163.68549949 0 5439.46779668 0 -138.02427949 0 583.04537307 0 12933
0.11050000 0.11050200 15419.87315869 0 17.97459066 0 5671.28906141 0 190.10406651 0 1055.82035603 0 13428
0.11150000 0.11150900 15391.30656066 0 -292.25954975 0 5532.24280634 0 -290.00079549 0 568.12873707 0 13453
0.11250000 0.11250000 15500.92257636 0 159.45144248 0 5987.79146635 0 -96.18152111 0 732.19180284 0 13668
0.11350000 0.11349100 15330.29805090 0 430.39455249 0 5834.20724879 0 -341.16490124 0 -91.69058616 0 13791
0.11450000 0.11448600 14968.45447583 0 121.54866016 0 6159.36821174 0 127.65504730 0 140.34503877 0 14205
0.11550000 0.11549300 14853.08085122 0 129.65360193 0 5928.79811972 0 -189.57702385 0 -476.99353872 0 14776
0.11650000 0.11649800 14389.59333431 0 537.59347969 0 6335.99393725 0 464.93245530 0 36.78757776 0 14553
0.11750000 0.11747300 14474.29661918 0 433.44829968 0 6161.54945973 0 161.78991748 0 369.13137927 0 14568
0.11850000 0.11849100 14027.30686625 0 47.43716122 0 5625.16175622 0 774.91326092 0 1116.88754911 0 16015
0.11950000 0.11950300 14002.83702840 0 -166.14244837 0 5650.41772913 0 1328.32466384 0 698.78992056 0 15270
0.12050000 0.12050700 14066.17072636 0 299.42666561 0 5693.24548153 0 612.09804616 0 1046.79198238 0 15999
0.12150000 0.12150000 13807.07832560 0 334.45617963 0 5097.82014208 0 334.91789558 0 1061.60343129 0 15670
0.12250000 0.12250700 13651.40143865 0 -6.56130467 0 5073.83748652 0 242.29457677 0 1184.43980283 0 16887
0.12350000 0.12352200 13583.19591777 0 -6.54189489 0 4797.30617417 0 300.67119492 0 1181.02952678 0 16407
0.12450000 0.12449800 13675.53910676 0 80.01194084 0 4598.18148464 0 324.54423446 0 954.95147694 0 16306
0.12550000 0.12549900 13604.45478142 0 -71.44173998 0 3873.61962083 0 519.99512662 0 1515.60196583 0 17523
0.12650000 0.12650100 13735.55110728 0 37.53119510 0 3902.25265281 0 447.05840134 0 738.16532208 0 17154
0.12750000 0.12750600 13449.66368046 0 213.67815328 0 3553.21975755 0 238.09595120 0 1336.89464325 0 18007
0.12850000 0.12850300 13437.70556965 0 230.19363298 0 3663.17901533 0 -70.91104345 0 952.85216415 0 17496
0.12950000 0.12949900 13065.01111626 0 326.53393123 0 3572.34166251 0 -241.69334954 0 1539.13065607 0 18405
0.13050000 0.13049000 12844.00751288 0 185.70724632 0 3985.26187198 0 -17.40237292 0 1303.71088577 0 18100
0.13150000 0.13148800 12849.32222879 0 17.07507500 0 3709.11809100 0 354.24463855 0 1182.33606111 0 19059
0.13250000 0.13249300 12717.67228670 0 183.85152468 0 3756.03153125 0 330.16233207 0 1346.30611935 0 18957
0.13350000 0.13349100 12658.43534892 0 275.52926695 0 3695.04516615 0 319.17747862 0 1167.01196356 0 19468
0.13450000 0.13450700 12328.03717633 0 273.37902147 0 3406.43394743 0 174.06026785 0 1438.62716369 0 19953
0.13550000 0.13551000 12153.20516744 0 158.28663391 0 3117.32447409 0 331.74235282 0 1472.66349018 0 19956
0.13650000 0.13649900 11911.82848640 0 117.61244869 0 3117.30232944 0 29.26504028 0 1375.01665760 0 19723
0.13750000 0.13749600 12053.00062783 0 14.65687926 0 3273.96465330 0 346.41318321 0 1262.03465515 0 20946
0.13850000 0.13851100 11716.62339984 0 97.00131604 0 3062.26180277 0 137.41308716 0 1511.32804845 0 20955
0.13950000 0.13949800 11791.80448536 0 302.74725582 0 2981.47812089 0 81.50382588 0 1163.32487940 0 20506
0.14050000 0.14048300 11480.45071146 0 219.24531820 0 3001.44152254 0 84.07625911 0 972.32395458 0 21447
0.14150000 0.14148400 11280.70597173 0 281.49060663 0 3257.95407161 0 -8.35874160 0 1343.03978353 0 21771
0.14250000 0.14249400 11041.97557632 0 344.43234430 0 3218.22657016 0 -372.10097679 0 1063.85111323 0 22470
0.14350000 0.14350900 10995.81505415 0 233.50093640 0 3776.95822516 0 -413.19812481 0 1202.84200667 0 22519
0.14450000 0.14449900 10807.45266433 0 70.04286246 0 3620.40662455 0 -171.99527927 0 967.04799180 0 22218
0.14550000 0.14550500 10614.21845160 0 -0.62165900 0 3662.54789281 0 99.27313565 0 893.44803427 0 23559
0.14650000 0.14650700 10871.36212319 0 182.97681102 0 3754.09387441 0 -20.44150463 0 861.92291104 0 23044
0.14750000 0.14750500 10557.68316108 0 69.75055309 0 3422.45560144 0 487.57646678 0 809.39801657 0 23649
0.14850000 0.14849900 10529.47087744 0 6.73137558 0 3257.37831072 0 552.90982661 0 705.74555501 0 23640
0.14950000 0.14949500 10495.82208231 0 68.49461928 0 2931.02153669 0 359.68890066 0 298.50655541 0 24457
0.15050000 0.15050000 10392.08547109 0 162.88607764 0 2872.33821515 0 -36.10685123 0 191.72173316 0 24591
0.15150000 0.15149900 10208.47310862 0 353.52272297 0 2807.81977844 0 -322.65529584 0 171.39294480 0 25020
0.15250000 0.15250500 9891.00741142 0 305.22634935 0 2970.39472375 0 -156.53167043 0 550.95002512 0 25297
0.15350000 0.15350100 9799.67180399 0 63.27634332 0 3132.67071629 0 148.07130703 0 499.22344526 0 25452
0.15450000 0.15450400 9717.82517893 0 68.35831897 0 3267.99667022 0 315.45053408 0 261.01455634 0 26061
0.15550000 0.15549900 9648.93317391 0 177.14612477 0 3460.34509697 0 73.98693529 0 494.50220596 0 26128
0.15650000 0.15649500 9503.17709000 0 221.28373320 0 3288.87907483 0 138.06303263 0 445.00669955 0 26331
0.15750000 0.15749700 9431.97096909 0 181.87290024 0 3231.86767434 0 50.68611349 0 1135.62192270 0 27345
0.15850000 0.15849900 9216.87998716 0 82.53023039 0 3186.74795070 0 88.21365472 0 970.25896600 0 26980
0.15950000 0.15949700 9267.25906509 0 29.63939558 0 3173.11791885 0 210.29555805 0 684.04490560 0 27777
0.16050000 0.16050000 9153.30269805 0 74.93882305 0 3087.03059339 0 58.36831390 0 812.81161431 0 28224
0.16150000 0.16150500 9119.99714500 0 86.24754201 0 3031.80183719 0 179.34176679 0 1037.73592791 0 28075
0.16250000 0.16249700 9047.26304326 0 76.56302238 0 2911.23529224 0 93.06975494 0 933.17442848 0 28590
0.16350000 0.16349900 9004.50172482 0 98.97584372 0 2760.16449242 0 358.37350848 0 586.60623273 0 29163
0.16450000 0.16449100 8859.21067854 0 156.03895197 0 2788.85288602 0 -42.35651425 0 980.20412815 0 28996
0.16550000 0.16550500 8765.32843641 0 204.49808877 0 2437.16263281 0 276.73504312 0 970.54906091 0 30777
0.16650000 0.16650700 8703.64451484 0 -48.20391971 0 2385.66525008 0 459.48930042 0 1038.75236733 0 29211
0.16750000 0.16749900 8671.52370054 0 -9.69541479 0 1991.49048653 0 290.43150892 0 859.32202194 0 30922
0.16850000 0.16850800 8755.64015219 0 38.40291923 0 2078.87327400 0 101.72521270 0 544.38302927 0 30867
0.16950000 0.16949900 8550.34817773 0 217.32537708 0 2059.67386276 0 -54.40674680 0 571.95976146 0 30852
0.17050000 0.17049200 8447.25376134 0 187.83091822 0 2008.85189185 0 -202.49621245 0 745.38447786 0 31257
0.17150000 0.17149500 8283.22834148 0 141.68921901 0 2182.76489777 0 -253.86294174 0 431.80627390 0 32608
0.17250000 0.17250900 8370.01322341 0 40.15389668 0 2336.39340463 0 -94.83490496 0 218.91979185 0 32361
0.17350000 0.17350400 8182.22659448 0 86.16383523 0 2307.95967450 0 -69.02686594 0 84.03839176 0 32508
0.17450000 0.17449800 8179.03776494 0 111.30786694 0 2210.20211867 0 -92.62154723 0 -191.49475051 0 32791
0.17550000 0.17549800 7932.35744030 0 221.58711490 0 2167.17506443 0 104.71474040 0 -27.14125766 0 33633
0.17650000 0.17650100 7894.50116175 0 200.19427612 0 2182.82025940 0 120.34288399 0 103.28552471 0 33984
0.17750000 0.17750300 7689.81816515 0 128.89625491 0 2066.29511301 0 238.35061467 0 -150.35442041 0 34069
0.17850000 0.17849800 7633.88078016 0 37.88739179 0 2008.53079443 0 347.11849030 0 226.62723716 0 34536
