### header ###
fiducial parameters:
Omega_m = 0.31
Omega_nu = 0
Omega_de = 0.69
Omega_k = 0
H_0 = 100
w_de = -1
zeff = 0
beta = 0
fgrowth = 0
b_1 = 2
gamma = 0.55
Lx = 3500 Ly = 3500 Lz = 3500
nx = 700 ny = 700 nz = 700
xoffset = -685.467585 yoffset = -31.7331281 zoffset = 572.489161
bins = 400 dk = 0.001
kx_ny = 0.628318531 ky_ny = 0.628318531 kz_ny = 0.628318531
############################
A(data) = 8.01014915 (not used)
A(ran) = 8.0090169 (used)
Ngal = 476067
weighted Ngal = 0
Nran = 23820508
weighted Nran = 0
SN(data) = 3484.36553
SN(ran) = 69.7614418
SN(data+ran) = 3554.12697
############################
13 columns: k_central k_mean P_0(k) sigma^{lin}_{P_0(k)} P^img_1(k) sigma^{lin}_{P_1(k)} P_2(k) sigma^{lin}_{P_2(k)} P^img_3(k) sigma^{lin}_{P_3(k)} P_4(k) sigma^{lin}_{P_4(k)} N_modes
### header ###
0.00050000 0 0 0 0 0 0 0 0 0 0 0 0
0.00150000 0.00179520 32005.55139753 0 -42932.60731456 0 -42621.03209416 0 84803.04650926 0 -62267.21163612 0 3
0.00250000 0.00253879 48700.51348233 0 -27375.32660487 0 1921.12586231 0 -6136.69209051 0 75007.02857246 0 6
0.00350000 0.00331552 68699.78946277 0 -23211.91102656 0 -9175.97881928 0 -86119.54593020 0 -15489.29663530 0 7
0.00450000 0.00420575 64424.65412704 0 1698.41712091 0 -7198.77163177 0 -32744.62907918 0 29297.81436313 0 24
0.00550000 0.00557378 66942.50079080 0 -1991.54584816 0 -13975.48838610 0 -23170.72197824 0 4807.88024438 0 45
0.00650000 0.00659388 59234.94476129 0 -12824.85239094 0 -5683.09215967 0 -7442.17454825 0 -8014.59159673 0 40
0.00750000 0.00754703 78427.15898569 0 7257.94213560 0 -14380.95692095 0 -9805.07509850 0 -19533.13110557 0 57
0.00850000 0.00846663 60816.40491514 0 10596.21485144 0 -6821.54859752 0 -28712.97416621 0 -20883.51184045 0 75
0.00950000 0.00948925 51950.35153985 0 8561.23227303 0 -6193.78099728 0 -2194.29118791 0 -9285.32909919 0 112
0.01050000 0.01054430 52200.58608076 0 -13885.47038532 0 -14716.11619321 0 2038.78038583 0 -12672.27575494 0 105
0.01150000 0.01145670 65602.08514825 0 -19756.90279015 0 -25749.90932149 0 3836.90379173 0 -35502.96663800 0 144
0.01250000 0.01249090 75702.14912457 0 -9019.98083491 0 -18889.71831036 0 -3170.08410185 0 -21232.73296523 0 169
0.01350000 0.01339930 78892.97169081 0 4211.25909385 0 -19048.82761800 0 -22274.19583767 0 -5009.38548375 0 180
0.01450000 0.01448870 72387.53796686 0 11955.78561593 0 -6779.47376321 0 -26391.66126798 0 13434.71604195 0 267
0.01550000 0.01550050 65419.72395849 0 14134.37624724 0 2869.01651771 0 -5610.30269631 0 12498.77242503 0 238
0.01650000 0.01653350 60878.85282711 0 -5167.79723493 0 15067.10888997 0 4132.64558764 0 -5604.02468814 0 315
0.01750000 0.01747870 63915.21646213 0 -5011.95426311 0 24221.15343378 0 5906.65347008 0 3558.43482254 0 297
0.01850000 0.01844180 65970.23994847 0 -433.09398528 0 24177.41775075 0 -1120.20924655 0 -13379.13297136 0 388
0.01950000 0.01947590 69577.93554413 0 -578.74709657 0 23330.71707187 0 -2726.87001169 0 -9420.66612545 0 399
0.02050000 0.02045430 69654.77747837 0 2344.69764825 0 18289.59830518 0 -14854.29880695 0 -22427.10464342 0 462
0.02150000 0.02154770 66737.88422815 0 3761.83342946 0 29953.84960864 0 -7220.75019653 0 -16317.83870148 0 571
0.02250000 0.02255340 69292.38028706 0 -3125.39619888 0 28206.96892200 0 -13498.49263291 0 -27459.69771999 0 510
0.02350000 0.02348930 67648.91511423 0 -1645.23674480 0 27595.00152927 0 2881.10749641 0 -26870.65003964 0 555
0.02450000 0.02439640 73311.74491948 0 -3523.67879494 0 31874.89796467 0 -546.10477578 0 -28291.89365336 0 592
0.02550000 0.02547300 74732.21347046 0 -164.49820813 0 29932.81219148 0 1060.58588464 0 -19672.53167503 0 837
0.02650000 0.02652900 74841.16514668 0 4018.94388407 0 36981.12200129 0 -1860.36094370 0 -10204.56457796 0 723
0.02750000 0.02749970 66079.08090144 0 6576.92772530 0 41328.89178782 0 8928.64522748 0 -18245.30900591 0 826
0.02850000 0.02848090 66027.81603753 0 6203.25890732 0 40863.85414544 0 4672.73144764 0 -13565.25875156 0 831
0.02950000 0.02946900 57959.08077244 0 6031.40535381 0 30143.51853278 0 7979.86878610 0 -3323.54652384 0 996
0.03050000 0.03053250 59511.75288176 0 -1848.82358124 0 30333.29818017 0 2778.21238187 0 -10136.59157590 0 1041
0.03150000 0.03150510 57657.35992113 0 -1281.54409148 0 29540.40899991 0 4840.89791699 0 -5545.37458357 0 1036
0.03250000 0.03246190 57519.84164688 0 3793.05738545 0 27309.88916519 0 608.17512148 0 -8416.47269835 0 1059
0.03350000 0.03345080 53541.22316980 0 4572.25009991 0 24746.31379993 0 4774.55254667 0 -2017.14506314 0 1302
0.03450000 0.03451200 51829.88464583 0 -10.87733011 0 23221.32250266 0 1008.51274101 0 -2861.52055381 0 1339
0.03550000 0.03553350 51743.74195874 0 1292.00743844 0 23428.81786976 0 2610.32272065 0 781.97961862 0 1365
0.03650000 0.03647120 51610.20972143 0 -865.14163587 0 24085.73890125 0 2395.26495569 0 -3896.25145276 0 1308
0.03750000 0.03744890 51748.61378166 0 1977.45077866 0 28438.04834096 0 -362.04619862 0 590.99973122 0 1579
0.03850000 0.03847530 50936.01586322 0 1751.76358188 0 25811.36072424 0 291.94177403 0 -171.31543852 0 1662
0.03950000 0.03950240 47743.97534125 0 2965.61147943 0 25160.97236439 0 834.12473235 0 -1064.43683921 0 1683
0.04050000 0.04050350 47255.68581675 0 1866.38428841 0 24130.80326326 0 3417.94916524 0 -177.37753636 0 1822
0.04150000 0.04152450 45729.47656375 0 1354.63250761 0 21572.98550691 0 4863.28615777 0 -4514.33076878 0 1887
0.04250000 0.04250150 44180.23687512 0 1596.61816652 0 18673.03291365 0 4405.34587559 0 1370.48807675 0 1920
0.04350000 0.04349210 43898.00331549 0 636.22464194 0 19707.74166796 0 2143.33634909 0 -3024.87056186 0 2005
0.04450000 0.04448520 41778.09600572 0 1050.13693170 0 18998.00564708 0 271.21881090 0 752.49733932 0 2151
0.04550000 0.04548030 41282.60947008 0 746.36437861 0 19104.29996534 0 3336.09146786 0 -2272.14070371 0 2274
0.04650000 0.04648670 42369.13670454 0 -223.31993373 0 16664.62391480 0 2107.09662996 0 -1982.36689088 0 2311
0.04750000 0.04749250 40053.91358496 0 313.89819414 0 13764.11770531 0 2713.76037910 0 298.06587689 0 2568
0.04850000 0.04851840 40389.62647346 0 612.19769708 0 11226.11941038 0 2566.45416971 0 -4985.28103262 0 2493
0.04950000 0.04949480 38932.17635758 0 -375.93310841 0 8200.61772601 0 3970.19243790 0 -2165.46992641 0 2644
0.05050000 0.05050630 38219.34008576 0 1403.24001357 0 9260.47172997 0 -317.74139809 0 -10096.53190470 0 2829
0.05150000 0.05149060 38107.62032834 0 2997.49977490 0 8962.57083073 0 -1941.70931415 0 -8457.01955183 0 2784
0.05250000 0.05249300 35405.97307259 0 370.43791360 0 10366.81842585 0 -3270.13362891 0 -5856.20795821 0 3055
0.05350000 0.05348950 35864.25659683 0 -179.57650007 0 11157.47099650 0 -1976.76429452 0 -5444.63857237 0 3009
0.05450000 0.05448610 37812.87504166 0 -1259.96413041 0 12607.83482450 0 592.89531323 0 -5006.07485863 0 3336
0.05550000 0.05550870 38571.55073824 0 -1387.52838465 0 13525.50910547 0 1524.78092310 0 -6236.18800133 0 3349
0.05650000 0.05647670 38079.82879304 0 161.29277010 0 10204.05525102 0 3551.33746233 0 -4911.43969841 0 3324
0.05750000 0.05747970 37941.42473281 0 2624.79424918 0 11267.41918195 0 2166.33356774 0 -5369.63464405 0 3639
0.05850000 0.05849280 34936.50650027 0 3298.06910443 0 11533.37642409 0 -971.92645812 0 -3017.97250349 0 3846
0.05950000 0.05951020 33308.87475193 0 1857.26069275 0 10657.94306231 0 -1087.53592324 0 -1489.90309992 0 3787
0.06050000 0.06049470 31065.40029718 0 1202.95272992 0 11109.85999978 0 -557.80268695 0 146.98511197 0 3930
0.06150000 0.06148310 31612.37314322 0 507.02279086 0 12054.88292305 0 719.03234479 0 -3511.55459926 0 4083
0.06250000 0.06249100 30511.67333300 0 596.66543983 0 11396.19031959 0 1886.59128120 0 -615.49282095 0 4303
0.06350000 0.06350600 30069.44467974 0 -165.04185928 0 9393.23997687 0 1487.42289916 0 -1800.19393064 0 4470
0.06450000 0.06451750 29872.13585147 0 -400.59117578 0 8364.53242262 0 3482.87727798 0 -1066.78417207 0 4479
0.06550000 0.06550280 30234.20087304 0 -194.36026817 0 8135.32422655 0 2332.91669464 0 -5065.77683405 0 4636
0.06650000 0.06648880 29160.29608888 0 101.26194663 0 7257.89784630 0 297.54769208 0 -3740.53027651 0 4653
0.06750000 0.06749660 29482.05784811 0 1014.32571154 0 7220.34052051 0 -1614.65498365 0 -3202.64780914 0 5220
0.06850000 0.06852730 28763.02107439 0 745.97906170 0 6543.74396782 0 -1622.99244424 0 -4513.03530678 0 5029
0.06950000 0.06949320 29066.40277442 0 767.03087288 0 9077.65657489 0 -1534.85673869 0 -1919.98541285 0 5040
0.07050000 0.07048030 28041.76983570 0 354.14388039 0 8073.55172639 0 523.01344237 0 -2592.76201348 0 5475
0.07150000 0.07148790 28901.64658112 0 -414.34632490 0 8894.70855191 0 1053.46748701 0 -1862.95186771 0 5509
0.07250000 0.07249820 28035.68005705 0 611.53778652 0 9234.06423528 0 427.50024678 0 -3471.35098784 0 5916
0.07350000 0.07351270 27711.15021662 0 1576.61047558 0 9995.67409793 0 -15.26696435 0 -947.33371746 0 5721
0.07450000 0.07449140 26464.96005828 0 552.13365664 0 9799.20676635 0 -509.26493664 0 433.84136721 0 6028
0.07550000 0.07549160 26213.95045464 0 297.54990655 0 9126.52981664 0 568.56941560 0 828.31397629 0 6183
0.07650000 0.07648840 26857.91686609 0 -160.63507400 0 10477.32022754 0 2454.88942484 0 206.52986038 0 6330
0.07750000 0.07749960 26018.41319834 0 292.01595860 0 10287.34127830 0 1237.93020402 0 1732.60845995 0 6583
0.07850000 0.07848650 26260.23277238 0 886.68173657 0 9775.39019566 0 917.16384680 0 1925.15618854 0 6549
0.07950000 0.07947320 25464.46478767 0 554.40126876 0 10022.69057049 0 718.52966125 0 2136.00647006 0 6828
0.08050000 0.08048110 24811.41906986 0 572.26646486 0 9920.14977034 0 -245.35496735 0 3300.29464172 0 7147
0.08150000 0.08149960 24344.16696252 0 463.59713292 0 9811.85136129 0 -288.44070492 0 2891.23867362 0 7386
0.08250000 0.08250610 23937.81264167 0 724.98150492 0 10510.94687802 0 124.00118011 0 1414.83273765 0 7227
0.08350000 0.08350160 23236.60231091 0 688.72185560 0 9732.73960046 0 -412.68547618 0 889.71776803 0 7798
0.08450000 0.08449610 22066.14685433 0 840.26544370 0 7805.24715138 0 252.49218793 0 -558.62868238 0 7371
0.08550000 0.08548940 21715.26488083 0 759.57698381 0 8364.85352004 0 343.37383004 0 -1252.02527352 0 8256
0.08650000 0.08650700 21163.42021186 0 463.13984591 0 6850.33664205 0 800.57669538 0 -1294.56514547 0 8037
0.08750000 0.08749060 21067.20170919 0 -248.71763240 0 6342.94735723 0 1144.63479510 0 -2169.77706076 0 8155
0.08850000 0.08849210 21192.87259588 0 -383.89853888 0 5959.49060411 0 723.34833701 0 -2534.57694656 0 8718
0.08950000 0.08949900 21316.10757111 0 -431.93360564 0 5771.26108220 0 682.37852071 0 -2470.52354749 0 8571
0.09050000 0.09049190 21558.03786840 0 385.36562192 0 5986.21919623 0 363.84766587 0 -1366.09236380 0 8932
0.09150000 0.09150830 21274.91852279 0 588.54388957 0 6716.20649920 0 -381.56560004 0 -567.87407360 0 9285
0.09250000 0.09250820 20834.23999501 0 834.03947545 0 7018.14879700 0 -402.29520657 0 -512.70178626 0 9204
0.09350000 0.09350330 20404.74451529 0 625.27632716 0 7601.36136217 0 -502.94928256 0 557.83922562 0 9349
0.09450000 0.09448040 19828.87290147 0 190.33326363 0 7557.01670127 0 620.29045929 0 767.45494292 0 9564
0.09550000 0.09549270 19750.81301150 0 140.33839538 0 8055.68099413 0 677.54212923 0 77.07777476 0 10155
0.09650000 0.09649430 19117.69747837 0 714.43843723 0 7418.46870082 0 1076.88877570 0 481.36046363 0 9913
0.09750000 0.09749140 18537.39693463 0 671.92513885 0 5534.41298200 0 1119.37882219 0 -268.18942283 0 10476
0.09850000 0.09850240 17754.69429320 0 63.04880705 0 5806.63715999 0 905.76488839 0 -243.08181907 0 10575
0.09950000 0.09950330 18207.66310153 0 155.11884178 0 5220.14718667 0 499.94314637 0 -750.40134824 0 10882
0.10050000 0.10051200 17669.76956184 0 576.66882120 0 5131.81217927 0 -407.35858071 0 -275.11073307 0 10875
0.10150000 0.10150300 16945.97168844 0 818.92243038 0 4451.93821843 0 -92.39478602 0 -27.88631440 0 11118
0.10250000 0.10250800 16748.77358342 0 391.68459769 0 4874.31419329 0 -80.95928895 0 -475.39026609 0 11575
0.10350000 0.10349800 16516.91910172 0 -47.49351935 0 4767.85379016 0 -59.68514549 0 -1336.60676281 0 11364
0.10450000 0.10450100 16287.27908498 0 222.38542952 0 5851.41364156 0 -100.49629537 0 -943.39972045 0 12093
0.10550000 0.10551000 16089.74881022 0 707.11852329 0 6254.29125241 0 -505.65425152 0 -550.08638378 0 12067
0.10650000 0.10649700 15828.33122125 0 643.76932407 0 6450.19389543 0 205.18125121 0 288.88913408 0 12054
0.10750000 0.10749900 15061.24055781 0 215.30246333 0 6408.06369949 0 152.43712471 0 429.77671677 0 12807
0.10850000 0.10850100 15145.05805669 0 180.10243550 0 6751.25040725 0 516.44091035 0 88.25296148 0 12736
0.10950000 0.10950300 15052.93631420 0 -7.27680938 0 6244.97942724 0 945.65293855 0 858.99649559 0 12933
0.11050000 0.11050200 15171.29946651 0 -377.18871004 0 5768.71444749 0 994.79413056 0 518.26120055 0 13428
0.11150000 0.11150900 15338.04867828 0 -431.56268276 0 5134.05986121 0 329.50463598 0 444.53723298 0 13453
0.11250000 0.11250000 15594.37299783 0 54.51027304 0 4413.50617899 0 806.69194038 0 -564.55901955 0 13668
0.11350000 0.11349100 15237.06907593 0 413.25237921 0 4068.82470738 0 148.61274372 0 -589.29902213 0 13791
0.11450000 0.11448600 14806.57708698 0 502.95592596 0 3760.88120953 0 46.99482184 0 23.68348134 0 14205
0.11550000 0.11549300 14428.12502468 0 548.67023344 0 3903.89135688 0 188.87836015 0 -335.51358665 0 14776
0.11650000 0.11649800 14095.51238713 0 460.19682197 0 4160.08280854 0 -577.28222800 0 -138.84806046 0 14553
0.11750000 0.11747300 13770.42893045 0 271.85104064 0 4627.58957935 0 -209.56478461 0 535.45541376 0 14568
0.11850000 0.11849100 13912.26541138 0 60.46939826 0 5465.34381978 0 -64.23144206 0 1359.94722353 0 16015
0.11950000 0.11950300 14226.71943623 0 -396.60735331 0 5232.61462442 0 496.82185801 0 1896.03597427 0 15270
0.12050000 0.12050700 14406.75543778 0 -283.92541086 0 5440.78540334 0 683.50900508 0 1354.96467736 0 15999
0.12150000 0.12150000 14648.68573507 0 199.42585677 0 5195.25660048 0 427.37512951 0 1374.72877716 0 15670
0.12250000 0.12250700 14192.28450604 0 401.74159032 0 5002.79745048 0 142.23840632 0 1549.20647165 0 16887
0.12350000 0.12352200 13924.44496868 0 344.97267375 0 5024.39955621 0 -292.68029809 0 1609.74994376 0 16407
0.12450000 0.12449800 13797.88829600 0 164.74733544 0 4989.85390277 0 148.13220482 0 733.37986329 0 16306
0.12550000 0.12549900 13573.23082543 0 286.10333715 0 5120.17516589 0 -190.65325382 0 840.33187765 0 17523
0.12650000 0.12650100 13340.60128099 0 313.69003444 0 4562.30715222 0 -258.26751256 0 469.28055725 0 17154
0.12750000 0.12750600 13164.10842338 0 110.49593336 0 4774.87364409 0 185.48026366 0 662.96984254 0 18007
0.12850000 0.12850300 13041.09489465 0 -81.12083417 0 4470.79438760 0 659.47652406 0 277.44699361 0 17496
0.12950000 0.12949900 13160.56527944 0 -79.33276443 0 4157.50295685 0 796.07358088 0 529.85613910 0 18405
0.13050000 0.13049000 13130.44855594 0 72.20495533 0 3974.39992133 0 388.30864585 0 534.85197206 0 18100
0.13150000 0.13148800 13075.75127133 0 211.91101024 0 4047.70978395 0 512.25889327 0 776.78226935 0 19059
0.13250000 0.13249300 12754.32168185 0 162.61369845 0 3741.75930456 0 66.00821802 0 1018.99380369 0 18957
0.13350000 0.13349100 12594.99092771 0 339.78307510 0 3885.86561208 0 203.07529503 0 699.22727739 0 19468
0.13450000 0.13450700 12315.85761903 0 332.90937586 0 3712.42871612 0 -90.29934855 0 610.65421500 0 19953
0.13550000 0.13551000 12039.16022181 0 245.86761599 0 3798.85928365 0 154.54529535 0 98.51833526 0 19956
0.13650000 0.13649900 11776.85684686 0 147.51215463 0 3134.81874730 0 182.30139921 0 621.11866919 0 19723
0.13750000 0.13749600 11878.16861895 0 118.87912265 0 3162.85387375 0 441.69496720 0 544.04089443 0 20946
0.13850000 0.13851100 11704.00094955 0 65.03806092 0 2806.75683525 0 511.93668862 0 595.91252174 0 20955
0.13950000 0.13949800 11618.74404845 0 135.45992906 0 2636.15445445 0 627.68787950 0 650.76149719 0 20506
0.14050000 0.14048300 11380.35689510 0 79.22270552 0 2399.80460887 0 329.57992778 0 334.03432406 0 21447
0.14150000 0.14148400 11184.59819231 0 294.64120682 0 2219.51394385 0 -162.81521476 0 391.64584456 0 21771
0.14250000 0.14249400 11082.28991098 0 296.32087849 0 2482.66988781 0 -261.15849657 0 465.58793693 0 22470
0.14350000 0.14350900 10912.49580989 0 212.63735475 0 2462.93900498 0 -433.07405510 0 442.29508721 0 22519
0.14450000 0.14449900 10778.87499398 0 60.63437590 0 2687.72934345 0 -92.99667760 0 485.28006662 0 22218
0.14550000 0.14550500 10648.31013972 0 218.67177177 0 2582.34295583 0 -60.19214724 0 -225.40817419 0 23559
0.14650000 0.14650700 10550.01003998 0 208.60149235 0 2742.70343618 0 -69.16073034 0 171.91334406 0 23044
0.14750000 0.14750500 10409.34722548 0 181.47208208 0 2817.17589291 0 345.55950696 0 222.71538480 0 23649
0.14850000 0.14849900 10315.47605567 0 62.25680365 0 2674.68614482 0 383.36706729 0 754.10393366 0 23640
0.14950000 0.14949500 10195.50741626 0 220.55738869 0 2477.05621913 0 290.82125476 0 654.20941914 0 24457
0.15050000 0.15050000 10094.81569436 0 223.72960975 0 2527.87819005 0 152.12156345 0 593.75009670 0 24591
0.15150000 0.15149900 9783.05224444 0 277.59979169 0 2573.64010852 0 123.31137427 0 796.95715240 0 25020
0.15250000 0.15250500 9641.55900558 0 231.08274066 0 2516.37404456 0 -137.18721174 0 653.34467057 0 25297
0.15350000 0.15350100 9353.73392192 0 94.43929080 0 2495.50271228 0 -46.24710775 0 981.82843820 0 25452
0.15450000 0.15450400 9493.24521464 0 43.72018178 0 2677.44315370 0 136.18959527 0 730.72804150 0 26061
0.15550000 0.15549900 9425.89226276 0 -23.44597997 0 2640.49480578 0 131.73741346 0 926.58750245 0 26128
0.15650000 0.15649500 9366.76604823 0 26.59993170 0 2627.59554736 0 159.58209591 0 855.92724715 0 26331
0.15750000 0.15749700 9340.42498749 0 205.60310679 0 2598.13209102 0 96.08198091 0 898.13273490 0 27345
0.15850000 0.15849900 9198.67708516 0 174.48876682 0 2552.86842716 0 122.48870054 0 772.03002754 0 26980
0.15950000 0.15949700 9002.18760893 0 79.80245245 0 2431.02856486 0 -3.53223770 0 837.74981150 0 27777
0.16050000 0.16050000 8963.63377391 0 104.55552037 0 2348.36258776 0 410.17205844 0 209.22597147 0 28224
0.16150000 0.16150500 8933.05201276 0 -9.89704183 0 1954.02173935 0 33.88275335 0 249.56798695 0 28075
0.16250000 0.16249700 8940.08293902 0 -123.51621228 0 1837.51873760 0 151.12283975 0 33.43775661 0 28590
0.16350000 0.16349900 8967.05512228 0 20.65807931 0 1910.91717883 0 -115.63603871 0 -97.75356979 0 29163
0.16450000 0.16449100 8974.94968987 0 159.57655975 0 1846.94128602 0 -131.14504408 0 -137.56367078 0 28996
0.16550000 0.16550500 8846.71002382 0 234.44097678 0 2074.27825920 0 37.30277304 0 -9.08180870 0 30777
0.16650000 0.16650700 8643.04568111 0 206.82659868 0 2336.37125998 0 -71.38349955 0 360.86145986 0 29211
0.16750000 0.16749900 8602.85314202 0 114.33946947 0 2228.79255204 0 333.41648833 0 695.16151972 0 30922
0.16850000 0.16850800 8492.51742520 0 63.75156750 0 2407.42236834 0 2.78736919 0 331.29724536 0 30867
0.16950000 0.16949900 8421.49953381 0 178.91548228 0 2310.68346640 0 52.97686677 0 50.94730963 0 30852
0.17050000 0.17049200 8226.02871147 0 297.08929784 0 2408.75104732 0 -56.65254644 0 322.01642270 0 31257
0.17150000 0.17149500 8027.20297470 0 95.66200763 0 2146.06014100 0 -26.87518969 0 158.50918764 0 32608
0.17250000 0.17250900 8053.21186570 0 6.25358262 0 2249.44243783 0 167.12345635 0 72.62437499 0 32361
0.17350000 0.17350400 8024.99958206 0 -15.59680891 0 1920.91548814 0 104.67288701 0 -106.40404500 0 32508
0.17450000 0.17449800 8036.73624637 0 83.83964353 0 2145.93834543 0 -29.44075808 0 -234.72664276 0 32791
0.17550000 0.17549800 7987.38689465 0 115.62275192 0 1992.35412787 0 -97.80760273 0 -63.03961702 0 33633
0.17650000 0.17650100 7916.77867928 0 171.82587270 0 2226.15733874 0 45.76933693 0 -169.26152227 0 33984
0.17750000 0.17750300 7764.79994882 0 36.65116672 0 1993.45028802 0 -174.91394409 0 -37.19603583 0 34069
0.17850000 0.17849800 7886.68410042 0 52.83270510 0 2175.59003129 0 -41.61134679 0 154.72355978 0 34536
