### header ###
fiducial parameters:
Omega_m = 0.31
Omega_nu = 0
Omega_de = 0.69
Omega_k = 0
H_0 = 100
w_de = -1
zeff = 0
beta = 0
fgrowth = 0
b_1 = 2
gamma = 0.55
Lx = 3500 Ly = 3500 Lz = 3500
nx = 700 ny = 700 nz = 700
xoffset = -685.467585 yoffset = -31.7331281 zoffset = 572.489161
bins = 400 dk = 0.001
kx_ny = 0.628318531 ky_ny = 0.628318531 kz_ny = 0.628318531
############################
A(data) = 8.03328793 (not used)
A(ran) = 8.03103196 (used)
Ngal = 477276
weighted Ngal = 0
Nran = 23820508
weighted Nran = 0
SN(data) = 3490.15637
SN(ran) = 69.953201
SN(data+ran) = 3560.10957
############################
13 columns: k_central k_mean P_0(k) sigma^{lin}_{P_0(k)} P^img_1(k) sigma^{lin}_{P_1(k)} P_2(k) sigma^{lin}_{P_2(k)} P^img_3(k) sigma^{lin}_{P_3(k)} P_4(k) sigma^{lin}_{P_4(k)} N_modes
### header ###
0.00050000 0 0 0 0 0 0 0 0 0 0 0 0
0.00150000 0.00179520 124295.70394916 0 -113046.22193342 0 87206.40533440 0 141135.60276584 0 -168046.88823756 0 3
0.00250000 0.00253879 206122.39882392 0 -94462.43195780 0 51867.41982696 0 -83418.34156744 0 118749.57644750 0 6
0.00350000 0.00331552 189786.29078649 0 7194.75237786 0 371.78984446 0 -54562.42368782 0 104827.23522053 0 7
0.00450000 0.00420575 154474.43247486 0 76066.87150410 0 -16316.06712951 0 -77375.17740467 0 77026.39917288 0 24
0.00550000 0.00557378 73065.60713876 0 47525.51837258 0 -6266.36008646 0 -31345.53011509 0 30162.67365472 0 45
0.00650000 0.00659388 49535.36677366 0 17852.79509109 0 -5954.48591330 0 -5155.92770273 0 1189.77666339 0 40
0.00750000 0.00754703 41416.80604688 0 -6672.88049218 0 3580.62376148 0 2204.45558209 0 -41111.76349813 0 57
0.00850000 0.00846663 49241.17510323 0 -11628.37697104 0 -5937.44560540 0 -1679.48344547 0 -26973.73338370 0 75
0.00950000 0.00948925 61587.03872252 0 -17839.50830131 0 -9323.06358217 0 -10660.40111842 0 -29764.18068449 0 112
0.01050000 0.01054430 71359.02971446 0 -15467.26270891 0 -22161.81174076 0 9296.81110003 0 5480.82292988 0 105
0.01150000 0.01145670 93629.12879195 0 -15984.89389418 0 -38838.17231987 0 6628.66869918 0 -15113.61265420 0 144
0.01250000 0.01249090 88115.99681825 0 -1010.85121602 0 -39865.24117005 0 9813.76687349 0 6311.80090752 0 169
0.01350000 0.01339930 96237.32562623 0 6110.20708955 0 -51888.67869061 0 6114.59173017 0 -9655.00080791 0 180
0.01450000 0.01448870 76311.68060584 0 5197.72572892 0 -45673.11843042 0 -12241.67304274 0 -292.57400378 0 267
0.01550000 0.01550050 81262.00630901 0 2315.40027678 0 -41861.24916510 0 -10528.74010400 0 569.77519177 0 238
0.01650000 0.01653350 73970.54824619 0 -5049.65552912 0 -27748.90684425 0 -17727.23492765 0 2548.99311348 0 315
0.01750000 0.01747870 80147.68753926 0 -2777.59233168 0 -26202.65668333 0 -17735.09627827 0 12043.92132148 0 297
0.01850000 0.01844180 83150.83419982 0 1720.87179564 0 -9475.11981891 0 -14919.29335364 0 -7255.00796952 0 388
0.01950000 0.01947590 82164.51150498 0 5366.44581450 0 5741.02256312 0 -14196.27054298 0 7217.27348654 0 399
0.02050000 0.02045430 77220.16485721 0 8335.93260762 0 15209.05609414 0 -18103.36180173 0 6979.71675755 0 462
0.02150000 0.02154770 72802.97159406 0 4040.65671304 0 27507.75160970 0 1110.35487746 0 6136.07204032 0 571
0.02250000 0.02255340 72941.04348455 0 -1656.82946889 0 26637.13470921 0 8053.92049448 0 7807.55019495 0 510
0.02350000 0.02348930 78576.52464749 0 -1876.36045307 0 18795.04993316 0 4850.60834585 0 3303.36167569 0 555
0.02450000 0.02439640 68948.58460144 0 1892.58140893 0 14064.17770789 0 2124.50232458 0 4165.37537980 0 592
0.02550000 0.02547300 76653.81544274 0 2361.52758197 0 23875.80762269 0 -4345.82105737 0 -1277.87915197 0 837
0.02650000 0.02652900 69101.16123744 0 4838.19626973 0 21891.42556869 0 1467.78059493 0 8340.12901872 0 723
0.02750000 0.02749970 64278.16726969 0 9775.81094401 0 20251.83570955 0 -1594.14903809 0 -2066.23975138 0 826
0.02850000 0.02848090 59136.29034716 0 3336.64508410 0 34692.36173802 0 1243.28920924 0 2889.16814888 0 831
0.02950000 0.02946900 60102.46141083 0 309.02526399 0 36276.03635683 0 -1740.02691758 0 -2033.93070756 0 996
0.03050000 0.03053250 58540.48854866 0 -2666.02758681 0 35394.01496178 0 7892.34205841 0 -321.06973893 0 1041
0.03150000 0.03150510 60312.39268939 0 -1636.12422148 0 29824.85702450 0 5651.87927600 0 -1533.47269808 0 1036
0.03250000 0.03246190 62039.34319136 0 384.36579099 0 21777.93423930 0 3950.47262740 0 -4414.60233914 0 1059
0.03350000 0.03345080 58306.75177174 0 3800.17689031 0 20113.98526555 0 6363.09898840 0 -535.87173318 0 1302
0.03450000 0.03451200 56142.99805568 0 3709.33953749 0 15080.17423325 0 1973.71940520 0 -5536.76031486 0 1339
0.03550000 0.03553350 51070.87677951 0 4682.76297393 0 13243.27554584 0 -166.44915177 0 -12126.07797164 0 1365
0.03650000 0.03647120 50024.76353064 0 3329.99061688 0 14658.54010416 0 -4146.51921063 0 -7795.97961551 0 1308
0.03750000 0.03744890 47864.22078878 0 -1223.54725408 0 13105.31437860 0 -3755.53327664 0 -3791.24152418 0 1579
0.03850000 0.03847530 48710.36785142 0 -3029.23305783 0 14344.97186529 0 1215.78555439 0 -5096.43610148 0 1662
0.03950000 0.03950240 53109.07033213 0 -1781.65885889 0 15436.70309241 0 2490.91876980 0 -8784.27318417 0 1683
0.04050000 0.04050350 53064.44886311 0 805.74968554 0 14830.05041560 0 5249.78780021 0 -5241.50570125 0 1822
0.04150000 0.04152450 50285.29533363 0 4015.43395711 0 14027.52831274 0 3346.76518898 0 -5004.82368593 0 1887
0.04250000 0.04250150 46866.49359937 0 4032.15316758 0 11281.25958797 0 5610.01481586 0 3872.40166510 0 1920
0.04350000 0.04349210 44111.03484501 0 1057.30736926 0 10411.78313694 0 4351.15791793 0 350.61070154 0 2005
0.04450000 0.04448520 42420.95518469 0 378.27711957 0 8173.15836046 0 3589.34875344 0 2032.84561973 0 2151
0.04550000 0.04548030 42420.62301494 0 594.93372823 0 7242.46302550 0 -589.10193474 0 -1348.49843966 0 2274
0.04650000 0.04648670 40680.27499995 0 1167.13375913 0 5925.43213297 0 -3460.11257815 0 -1355.13076223 0 2311
0.04750000 0.04749250 40743.94086765 0 829.23187202 0 8578.47188277 0 -4011.73580062 0 -3332.65904716 0 2568
0.04850000 0.04851840 40079.26920879 0 1456.64183617 0 10070.41229046 0 -4875.03389440 0 -3953.26285325 0 2493
0.04950000 0.04949480 40034.09412353 0 1253.77470084 0 13480.44474345 0 -1029.05522525 0 -3569.92789570 0 2644
0.05050000 0.05050630 38413.77010957 0 285.93835951 0 13889.67786875 0 520.71814943 0 -4448.66081029 0 2829
0.05150000 0.05149060 38241.81690514 0 1025.43900396 0 12961.48487920 0 1625.59444057 0 -4956.85837481 0 2784
0.05250000 0.05249300 38164.64280115 0 1167.44378423 0 14602.51414058 0 3067.55437403 0 -3023.34258103 0 3055
0.05350000 0.05348950 37625.19913599 0 1228.91733162 0 14661.41890861 0 -141.20978734 0 228.30469437 0 3009
0.05450000 0.05448610 35246.31014870 0 1788.75621910 0 12964.36368366 0 846.40172611 0 879.36182263 0 3336
0.05550000 0.05550870 34902.18229334 0 1286.09481699 0 15065.55876449 0 1512.51278720 0 -216.87251899 0 3349
0.05650000 0.05647670 33017.56188596 0 1126.52047170 0 12543.17244756 0 -6.10728400 0 902.05676681 0 3324
0.05750000 0.05747970 32415.00596932 0 1047.50393286 0 13572.45576270 0 1767.35341523 0 -198.66961699 0 3639
0.05850000 0.05849280 32799.87998002 0 -721.23573743 0 11076.64302533 0 2255.47685486 0 2643.71685230 0 3846
0.05950000 0.05951020 32672.32679811 0 -955.52502336 0 9464.02534944 0 3071.15287960 0 147.10801477 0 3787
0.06050000 0.06049470 33343.97402161 0 435.17779681 0 8594.96964675 0 1230.79962684 0 2260.28224383 0 3930
0.06150000 0.06148310 33440.52469403 0 422.03162556 0 8937.99026963 0 750.04481938 0 2100.02141440 0 4083
0.06250000 0.06249100 32760.01961067 0 -372.20062771 0 7644.60986291 0 -123.07221206 0 3874.85972121 0 4303
0.06350000 0.06350600 32516.53918791 0 1342.28686544 0 10015.44927006 0 -518.39296122 0 396.10688422 0 4470
0.06450000 0.06451750 32701.88990538 0 1132.04556178 0 10811.40548429 0 -1787.07322573 0 -210.54800705 0 4479
0.06550000 0.06550280 29931.70495900 0 728.79813528 0 10972.71818458 0 -413.71077345 0 -103.55646450 0 4636
0.06650000 0.06648880 30925.44611147 0 1016.13160772 0 11174.19020698 0 -1652.42268361 0 -2486.50091220 0 4653
0.06750000 0.06749660 29124.20030997 0 864.37543099 0 12314.52894005 0 328.88347855 0 -1345.01065735 0 5220
0.06850000 0.06852730 29504.86683724 0 734.54135017 0 12061.85848769 0 200.38693457 0 -2752.42493737 0 5029
0.06950000 0.06949320 27989.06556957 0 99.71813238 0 9775.13553219 0 2145.72797126 0 1664.54687929 0 5040
0.07050000 0.07048030 28697.25146497 0 -296.64529761 0 9857.44719489 0 3644.68823288 0 25.75134872 0 5475
0.07150000 0.07148790 29484.93665257 0 -707.57359584 0 8830.55550191 0 3783.11443776 0 2667.54449531 0 5509
0.07250000 0.07249820 28585.31026105 0 -140.42918844 0 7103.46105973 0 2594.03533084 0 2051.89001842 0 5916
0.07350000 0.07351270 28964.75883259 0 308.98761809 0 7460.60996908 0 2282.42689347 0 4456.90969228 0 5721
0.07450000 0.07449140 28221.03077452 0 250.44270061 0 7273.87521101 0 -976.51482952 0 2561.51591284 0 6028
0.07550000 0.07549160 28363.86376468 0 770.18316376 0 7732.04801201 0 -1068.72293615 0 3133.96617829 0 6183
0.07650000 0.07648840 27206.03075839 0 1443.38826336 0 8191.07338201 0 -1459.24383250 0 2378.74504706 0 6330
0.07750000 0.07749960 25797.07742522 0 804.51622856 0 8777.37512581 0 -1079.07113092 0 3122.20736934 0 6583
0.07850000 0.07848650 26048.52992185 0 1138.92147550 0 8710.46506693 0 -55.15446090 0 1448.27115860 0 6549
0.07950000 0.07947320 25217.55194421 0 -203.87693135 0 8272.15601666 0 99.66387799 0 1776.72060202 0 6828
0.08050000 0.08048110 25001.08799401 0 261.27807768 0 8582.80116177 0 315.76498811 0 211.11158839 0 7147
0.08150000 0.08149960 24607.90973970 0 1081.41735655 0 8154.62328871 0 250.57003234 0 1027.56046140 0 7386
0.08250000 0.08250610 24036.24560931 0 638.39149591 0 8378.46140724 0 -84.42725180 0 879.21013178 0 7227
0.08350000 0.08350160 23022.13137917 0 406.75181731 0 8131.81429958 0 301.56916046 0 1331.34740852 0 7798
0.08450000 0.08449610 23258.85768379 0 699.76096345 0 8861.84589185 0 668.93782562 0 859.14818644 0 7371
0.08550000 0.08548940 22548.56804668 0 658.57302235 0 8593.93992054 0 776.01606447 0 1285.23117565 0 8256
0.08650000 0.08650700 22021.85755505 0 460.45259268 0 7886.79482367 0 976.71302413 0 2546.10323670 0 8037
0.08750000 0.08749060 21714.60054134 0 563.59904899 0 8692.28430958 0 452.59899268 0 2816.42297482 0 8155
0.08850000 0.08849210 21505.77649526 0 361.48372452 0 8316.25708641 0 634.04007225 0 2184.48110812 0 8718
0.08950000 0.08949900 20899.67743468 0 609.62559603 0 9244.16219551 0 653.46314445 0 3554.51521956 0 8571
0.09050000 0.09049190 20522.00043512 0 491.04985508 0 8206.37533491 0 -121.98269529 0 3061.16564261 0 8932
0.09150000 0.09150830 20015.99519091 0 439.40853213 0 8698.11942476 0 346.92693908 0 3616.05520090 0 9285
0.09250000 0.09250820 19828.54073173 0 396.39144297 0 8239.86911749 0 538.86015365 0 3590.76601101 0 9204
0.09350000 0.09350330 19426.83678731 0 342.27545542 0 7737.39594489 0 1322.34560844 0 2711.11409347 0 9349
0.09450000 0.09448040 19465.81137067 0 149.18075398 0 7120.73388644 0 590.94658406 0 2256.31835154 0 9564
0.09550000 0.09549270 18758.06836826 0 49.64265760 0 6608.07417502 0 469.86296154 0 1507.96206170 0 10155
0.09650000 0.09649430 19092.45257778 0 55.27769587 0 7114.93198824 0 65.51915344 0 1976.25496758 0 9913
0.09750000 0.09749140 18995.12684263 0 -7.93312143 0 5920.56031005 0 663.28983273 0 732.31359841 0 10476
0.09850000 0.09850240 18838.78561619 0 -81.15460476 0 5695.22742767 0 549.91697721 0 16.90854723 0 10575
0.09950000 0.09950330 19081.38025297 0 131.50489464 0 5708.81317022 0 252.02936475 0 -582.19723299 0 10882
0.10050000 0.10051200 18524.66376108 0 479.99856768 0 5300.57655416 0 -60.86069421 0 -806.07853359 0 10875
0.10150000 0.10150300 18009.46848727 0 593.46664519 0 4944.55702194 0 102.07609467 0 -1035.50928339 0 11118
0.10250000 0.10250800 17403.25870345 0 699.06340698 0 4860.13054520 0 167.06477303 0 -486.61649622 0 11575
0.10350000 0.10349800 17319.88409757 0 139.70505840 0 4426.17291858 0 158.84910801 0 -845.70416965 0 11364
0.10450000 0.10450100 17001.66548228 0 41.08463630 0 4865.50062273 0 235.43084262 0 -909.84393286 0 12093
0.10550000 0.10551000 16893.93176179 0 500.45579501 0 4878.99778669 0 -168.18529230 0 -1001.63018391 0 12067
0.10650000 0.10649700 16644.36156038 0 308.83814170 0 5258.42421357 0 -611.41599095 0 -194.24622322 0 12054
0.10750000 0.10749900 16184.74935716 0 359.94577860 0 4846.68874287 0 156.57817419 0 -167.71028956 0 12807
0.10850000 0.10850100 16189.84262658 0 287.95573709 0 5250.76216480 0 356.73369717 0 -717.73245386 0 12736
0.10950000 0.10950300 15988.32631488 0 127.37270302 0 5299.08179031 0 530.68877793 0 -980.27056210 0 12933
0.11050000 0.11050200 15640.21242258 0 205.33072760 0 4783.02287516 0 210.78606204 0 -1186.95322056 0 13428
0.11150000 0.11150900 15528.71411166 0 300.83395809 0 4755.31991846 0 -224.29872725 0 -852.00321524 0 13453
0.11250000 0.11250000 15327.75141620 0 203.31888618 0 4952.62874673 0 -348.20800706 0 -926.07263934 0 13668
0.11350000 0.11349100 15009.64352416 0 345.38345700 0 4886.39409967 0 -396.67600172 0 -1539.86142950 0 13791
0.11450000 0.11448600 14960.70384846 0 456.47984253 0 4841.76155832 0 -175.60707162 0 -1651.75834412 0 14205
0.11550000 0.11549300 14393.91154099 0 259.37142334 0 5144.06924285 0 -39.84597532 0 -1694.70789209 0 14776
0.11650000 0.11649800 14465.10658958 0 199.74141803 0 5341.64380691 0 449.62939517 0 -1947.65515257 0 14553
0.11750000 0.11747300 14151.75979721 0 80.34101033 0 4700.42333201 0 152.25775305 0 -1913.06520984 0 14568
0.11850000 0.11849100 14003.27992139 0 300.58704525 0 5056.37643028 0 317.02058974 0 -2054.48094242 0 16015
0.11950000 0.11950300 14044.80113946 0 184.12611834 0 4499.81495095 0 364.25291295 0 -989.15610277 0 15270
0.12050000 0.12050700 13905.40056999 0 -82.21832300 0 4746.89387928 0 201.00144860 0 -747.65208998 0 15999
0.12150000 0.12150000 13986.44998767 0 -6.37361770 0 4949.00809652 0 545.40611208 0 -521.65597534 0 15670
0.12250000 0.12250700 13978.47791380 0 29.76838817 0 4699.09465303 0 354.09184047 0 -239.50213645 0 16887
0.12350000 0.12352200 14037.49340508 0 101.77979926 0 4615.38787740 0 -23.04715483 0 61.30358721 0 16407
0.12450000 0.12449800 13908.50082094 0 77.27608010 0 4666.69703061 0 738.12989064 0 325.89837978 0 16306
0.12550000 0.12549900 13639.00043486 0 -72.84770379 0 4429.67177322 0 637.00191914 0 583.00219100 0 17523
0.12650000 0.12650100 13660.37002176 0 101.33867784 0 3728.83790150 0 845.67648884 0 -80.30746119 0 17154
0.12750000 0.12750600 13618.29518745 0 112.70519433 0 3264.16564584 0 365.11876875 0 -945.31966158 0 18007
0.12850000 0.12850300 13129.11987696 0 333.48070782 0 3447.65621273 0 -380.91233288 0 88.64901854 0 17496
0.12950000 0.12949900 12986.72977979 0 575.25156363 0 3595.05100072 0 -596.82820300 0 -705.72562483 0 18405
0.13050000 0.13049000 12719.88675166 0 307.75526833 0 3854.22090775 0 -256.78160657 0 -11.10842060 0 18100
0.13150000 0.13148800 12560.11310453 0 214.21183934 0 4274.19418812 0 -160.59410640 0 53.24548137 0 19059
0.13250000 0.13249300 12428.46316243 0 126.15364005 0 4199.54457419 0 462.52311742 0 287.41540764 0 18957
0.13350000 0.13349100 12496.89012981 0 -38.39605439 0 4357.55772168 0 711.54080982 0 321.58792373 0 19468
0.13450000 0.13450700 12329.25513206 0 149.11985619 0 4034.85481484 0 534.97930380 0 245.38818433 0 19953
0.13550000 0.13551000 12183.43261420 0 324.39807977 0 3673.37662648 0 191.52575302 0 94.98593148 0 19956
0.13650000 0.13649900 11656.16850633 0 487.74808782 0 3522.32797131 0 -11.00655521 0 464.73426068 0 19723
0.13750000 0.13749600 11305.06508633 0 464.99888925 0 3664.45233268 0 -492.50475856 0 321.59788882 0 20946
0.13850000 0.13851100 11220.80469446 0 29.96824363 0 3873.73034408 0 -324.29842885 0 75.07933085 0 20955
0.13950000 0.13949800 11241.73138837 0 15.14815831 0 4005.26956292 0 -63.49258582 0 -77.37971706 0 20506
0.14050000 0.14048300 11340.82869550 0 -87.34669169 0 4502.39480263 0 -20.36233751 0 -79.05606704 0 21447
0.14150000 0.14148400 11382.01774382 0 17.14073388 0 4336.39850895 0 96.47471627 0 575.18955861 0 21771
0.14250000 0.14249400 11395.41525685 0 104.41855571 0 4643.20155735 0 611.66511826 0 448.40147434 0 22470
0.14350000 0.14350900 11334.96036334 0 225.66615936 0 4309.44847034 0 511.08190514 0 1105.94587772 0 22519
0.14450000 0.14449900 11231.98774253 0 -13.33783320 0 4025.81979779 0 636.67307109 0 1120.36425910 0 22218
0.14550000 0.14550500 11201.87101902 0 -128.19980568 0 3837.81172237 0 722.02630142 0 1476.20663412 0 23559
0.14650000 0.14650700 11290.00672458 0 53.65615390 0 3627.55934638 0 332.73996929 0 1394.73646811 0 23044
0.14750000 0.14750500 11072.04801053 0 305.84086337 0 3192.38376404 0 287.24821554 0 1182.56857993 0 23649
0.14850000 0.14849900 10625.30184874 0 462.71577587 0 3188.44201640 0 -171.62324915 0 1774.69436658 0 23640
0.14950000 0.14949500 10386.41644078 0 385.88823565 0 2908.22361989 0 231.87773358 0 1364.53116600 0 24457
0.15050000 0.15050000 10164.12844772 0 45.93287517 0 3191.07722971 0 219.61956278 0 1356.18263309 0 24591
0.15150000 0.15149900 10022.70164281 0 79.12438328 0 2497.07498240 0 141.08134837 0 1214.43473076 0 25020
0.15250000 0.15250500 10122.99476102 0 26.21527913 0 2532.39569857 0 132.98747893 0 529.48410899 0 25297
0.15350000 0.15350100 9944.32065542 0 -88.01933542 0 2020.46676058 0 -45.61089196 0 668.83817469 0 25452
0.15450000 0.15450400 9904.27205655 0 230.12387733 0 2342.26173679 0 -172.81352407 0 -4.95121149 0 26061
0.15550000 0.15549900 9715.87644976 0 331.62941511 0 2338.87360539 0 -361.73838799 0 -204.39068722 0 26128
0.15650000 0.15649500 9470.27014064 0 310.73925987 0 2631.20512525 0 -358.59384774 0 -160.64614633 0 26331
0.15750000 0.15749700 9237.95062129 0 310.30743920 0 2769.70883641 0 -110.24337363 0 186.25975533 0 27345
0.15850000 0.15849900 9201.69982984 0 94.09649162 0 3004.44212257 0 7.01737373 0 -24.12227757 0 26980
0.15950000 0.15949700 9089.69219197 0 17.57144732 0 3031.95684974 0 85.46683238 0 77.14841619 0 27777
0.16050000 0.16050000 9020.21335373 0 165.50800416 0 3061.19885959 0 283.34632827 0 343.41701211 0 28224
0.16150000 0.16150500 8997.24935206 0 121.30506902 0 3337.80767821 0 270.93425215 0 633.64921919 0 28075
0.16250000 0.16249700 8865.27831255 0 -33.22516798 0 2904.03828111 0 313.45197945 0 558.78590939 0 28590
0.16350000 0.16349900 8901.26336821 0 40.39283745 0 2876.72285578 0 413.08075817 0 422.82994017 0 29163
0.16450000 0.16449100 8906.33449297 0 101.03396746 0 2655.49780591 0 253.57395407 0 551.14046910 0 28996
0.16550000 0.16550500 8808.79838365 0 118.63331704 0 2570.29626643 0 -100.27130573 0 260.04462069 0 30777
0.16650000 0.16650700 8711.12940642 0 247.21733239 0 2628.52562265 0 -163.46626746 0 397.26504940 0 29211
0.16750000 0.16749900 8488.60889454 0 192.65845184 0 2650.00593280 0 -255.66994515 0 401.47364006 0 30922
0.16850000 0.16850800 8429.15051026 0 144.68428287 0 2902.85354235 0 -318.81098467 0 251.58315006 0 30867
0.16950000 0.16949900 8373.86639244 0 14.84865192 0 2794.82086910 0 130.98228091 0 320.48290571 0 30852
0.17050000 0.17049200 8452.54633261 0 -12.05554726 0 2837.18358385 0 192.41264623 0 336.30747234 0 31257
0.17150000 0.17149500 8396.76396017 0 -11.62837697 0 2756.93137357 0 294.43747604 0 353.41089249 0 32608
0.17250000 0.17250900 8392.16894537 0 44.48694027 0 2594.02425851 0 430.05463212 0 -6.04418282 0 32361
0.17350000 0.17350400 8304.12181841 0 132.81364343 0 2514.79070211 0 273.39230826 0 292.41566953 0 32508
0.17450000 0.17449800 8222.72915867 0 56.75529762 0 2330.86831455 0 130.38991153 0 245.41807961 0 32791
0.17550000 0.17549800 8153.89251527 0 65.12807892 0 2313.10830554 0 139.26880880 0 529.02682198 0 33633
0.17650000 0.17650100 8035.35220576 0 79.15339277 0 2320.90322221 0 -88.09839182 0 300.56932953 0 33984
0.17750000 0.17750300 8035.38542274 0 228.10982145 0 2444.53680114 0 -39.18562187 0 488.94611336 0 34069
0.17850000 0.17849800 7843.24737016 0 202.92914035 0 2342.20637516 0 160.06042035 0 690.74809104 0 34536
