### header ###
fiducial parameters:
Omega_m = 0.31
Omega_nu = 0
Omega_de = 0.69
Omega_k = 0
H_0 = 100
w_de = -1
zeff = 0
beta = 0
fgrowth = 0
b_1 = 2
gamma = 0.55
Lx = 3500 Ly = 3500 Lz = 3500
nx = 700 ny = 700 nz = 700
xoffset = -685.467585 yoffset = -31.7331281 zoffset = 572.489161
bins = 400 dk = 0.001
kx_ny = 0.628318531 ky_ny = 0.628318531 kz_ny = 0.628318531
############################
A(data) = 8.00548675 (not used)
A(ran) = 7.9943102 (used)
Ngal = 475700
weighted Ngal = 0
Nran = 23820508
weighted Nran = 0
SN(data) = 3496.73466
SN(ran) = 69.6333411
SN(data+ran) = 3566.368
############################
13 columns: k_central k_mean P_0(k) sigma^{lin}_{P_0(k)} P^img_1(k) sigma^{lin}_{P_1(k)} P_2(k) sigma^{lin}_{P_2(k)} P^img_3(k) sigma^{lin}_{P_3(k)} P_4(k) sigma^{lin}_{P_4(k)} N_modes
### header ###
0.00050000 0 0 0 0 0 0 0 0 0 0 0 0
0.00150000 0.00179520 16952.83652983 0 -8185.13861591 0 -2794.98695397 0 3234.95685296 0 -24455.00093395 0 3
0.00250000 0.00253879 35412.61646748 0 -16636.72165626 0 -6336.51433651 0 -5812.67157702 0 3126.25984022 0 6
0.00350000 0.00331552 42399.14270479 0 -12207.79172880 0 -2152.98034401 0 -37435.53021184 0 26144.30553153 0 7
0.00450000 0.00420575 54156.73370647 0 -5705.25895395 0 -13103.76425312 0 -10625.21327014 0 14454.80932749 0 24
0.00550000 0.00557378 56741.34648888 0 -6968.38976926 0 -10429.73137547 0 1458.77879486 0 -1579.91002837 0 45
0.00650000 0.00659388 64511.12898387 0 -9277.98814784 0 -5645.63448481 0 10417.83969862 0 23515.29272659 0 40
0.00750000 0.00754703 64691.16498542 0 -3953.39572115 0 10687.68332677 0 -22875.86596832 0 -24732.58411715 0 57
0.00850000 0.00846663 76095.32737888 0 -797.20960141 0 886.11926247 0 -16976.97419793 0 -23666.09779062 0 75
0.00950000 0.00948925 66174.41361813 0 3605.17110560 0 15759.46136088 0 -30051.95040653 0 -19820.90082760 0 112
0.01050000 0.01054430 74760.78006849 0 1385.76788500 0 29226.17642155 0 -23373.01335267 0 -6325.37557775 0 105
0.01150000 0.01145670 71666.06528168 0 1970.25376753 0 41484.56867477 0 -15894.43300041 0 -18540.71863207 0 144
0.01250000 0.01249090 77299.44270291 0 -2630.86188318 0 35902.56684070 0 -6590.66848040 0 -53182.81201542 0 169
0.01350000 0.01339930 74767.75563313 0 382.09042824 0 34611.09087385 0 4373.36900152 0 -31289.61487476 0 180
0.01450000 0.01448870 79614.44437599 0 -7937.77180714 0 27364.25428005 0 15193.55483939 0 -45223.80348928 0 267
0.01550000 0.01550050 77925.25050166 0 -9260.98105691 0 23341.34650369 0 1443.00073199 0 -29799.16923092 0 238
0.01650000 0.01653350 89462.61296269 0 -3607.37449824 0 4510.83191414 0 7132.22695961 0 -46896.94249262 0 315
0.01750000 0.01747870 82519.37951541 0 2419.94516771 0 2161.95999944 0 -15509.44826647 0 -46597.87899927 0 297
0.01850000 0.01844180 85473.36505378 0 5547.77727806 0 -2192.10993992 0 -7453.06971588 0 -17817.14220517 0 388
0.01950000 0.01947590 79508.03933449 0 7429.00955405 0 831.68771366 0 -9643.85097682 0 -14071.37471902 0 399
0.02050000 0.02045430 71543.27319944 0 9674.62096749 0 6487.13117102 0 -1396.85128215 0 -18044.01414071 0 462
0.02150000 0.02154770 66038.99908560 0 7882.69806349 0 6783.63695734 0 -880.15460109 0 -17901.62404354 0 571
0.02250000 0.02255340 60109.76914521 0 1542.57414908 0 14473.41083319 0 -8444.15351039 0 -17444.22630528 0 510
0.02350000 0.02348930 56333.10987282 0 964.30426971 0 10727.85372121 0 -6066.67070836 0 -7108.63183542 0 555
0.02450000 0.02439640 60294.23407669 0 -2222.83564129 0 24019.63712208 0 -4504.08886833 0 -12735.94162265 0 592
0.02550000 0.02547300 62572.14346163 0 -224.95310164 0 23491.70867473 0 -3111.82152866 0 -26576.79053895 0 837
0.02650000 0.02652900 60877.30270164 0 894.24745612 0 24603.81297951 0 -492.01757627 0 -10585.96187866 0 723
0.02750000 0.02749970 59332.38121969 0 4888.59749230 0 24933.10391962 0 6181.56822300 0 -9802.50631914 0 826
0.02850000 0.02848090 60417.35832867 0 -1399.02145781 0 20895.02705826 0 4397.14128290 0 -230.63098981 0 831
0.02950000 0.02946900 63235.04354852 0 -3208.80402174 0 22984.70692128 0 9926.85959918 0 -6655.79589498 0 996
0.03050000 0.03053250 61076.27237863 0 4531.18284716 0 23091.11196279 0 3234.49181532 0 -6152.35943013 0 1041
0.03150000 0.03150510 57968.93514153 0 7983.94340163 0 26099.01972302 0 -944.11609987 0 570.08300240 0 1036
0.03250000 0.03246190 52781.77241049 0 3760.32759328 0 26428.75355612 0 -2093.30051324 0 5415.85052784 0 1059
0.03350000 0.03345080 50442.07945306 0 2067.33591154 0 21581.06830402 0 5851.17005041 0 11279.48801600 0 1302
0.03450000 0.03451200 52745.78735483 0 -4727.58374479 0 23485.72961933 0 6265.89504882 0 -1206.35193364 0 1339
0.03550000 0.03553350 56096.60501469 0 -5781.22617453 0 21661.34265896 0 3336.80009665 0 2007.72251472 0 1365
0.03650000 0.03647120 57325.19017657 0 4101.21125748 0 25663.98808090 0 4609.47525595 0 994.96353713 0 1308
0.03750000 0.03744890 55636.88208822 0 3578.39822419 0 19705.08431000 0 1112.12644943 0 9801.12227854 0 1579
0.03850000 0.03847530 52209.88683360 0 2493.16645174 0 18302.33147873 0 -651.26860967 0 11616.19741374 0 1662
0.03950000 0.03950240 52277.31729175 0 747.06747123 0 22606.36558223 0 5645.64555713 0 5150.73478239 0 1683
0.04050000 0.04050350 49709.64516631 0 1501.96086165 0 22245.62923964 0 4921.93626233 0 7277.03082358 0 1822
0.04150000 0.04152450 47253.69279828 0 3401.93858355 0 14815.10277709 0 4841.67297972 0 3629.20912278 0 1887
0.04250000 0.04250150 45033.02733265 0 1387.20728723 0 17537.34455701 0 166.86214948 0 5724.33656962 0 1920
0.04350000 0.04349210 44761.53392810 0 1090.34497205 0 15348.12449386 0 2350.10094276 0 703.62409758 0 2005
0.04450000 0.04448520 42093.43581655 0 3074.82889144 0 16943.09288399 0 -4110.87739704 0 4207.45021411 0 2151
0.04550000 0.04548030 40582.39564855 0 2403.66885023 0 17875.93624996 0 -2491.79348346 0 2033.11135552 0 2274
0.04650000 0.04648670 38845.25860775 0 -86.94509847 0 19631.23190346 0 -55.51719026 0 3132.84787349 0 2311
0.04750000 0.04749250 39934.66464666 0 -196.15398479 0 23461.81339772 0 2332.77275442 0 2652.80723097 0 2568
0.04850000 0.04851840 40629.23158253 0 -527.45565908 0 21871.60610726 0 2322.36476909 0 1181.79351719 0 2493
0.04950000 0.04949480 39901.66911870 0 81.87950986 0 22116.41520901 0 3109.29703860 0 634.13972318 0 2644
0.05050000 0.05050630 38908.92447546 0 1424.03383958 0 18835.90681174 0 -22.60957656 0 953.10572039 0 2829
0.05150000 0.05149060 38575.75822167 0 1597.37108461 0 19372.36094920 0 2133.59270325 0 3576.92560499 0 2784
0.05250000 0.05249300 37994.12899894 0 1032.35256358 0 17593.03835084 0 1249.14646907 0 3336.51221620 0 3055
0.05350000 0.05348950 35836.57578478 0 466.96976306 0 16971.65948202 0 1745.70702021 0 2367.06374438 0 3009
0.05450000 0.05448610 36399.16060882 0 1670.75845351 0 16052.87796857 0 410.94269225 0 1414.35662768 0 3336
0.05550000 0.05550870 34514.98309443 0 807.27655913 0 16481.70910880 0 1407.03782098 0 2280.43387500 0 3349
0.05650000 0.05647670 34310.80942477 0 460.30865245 0 16963.57668490 0 3419.27784422 0 2335.99480094 0 3324
0.05750000 0.05747970 33763.28296249 0 -232.25419263 0 13815.05039947 0 2488.61572624 0 964.49249923 0 3639
0.05850000 0.05849280 34415.88578730 0 334.61119218 0 13135.32037886 0 2009.59373761 0 1498.83846605 0 3846
0.05950000 0.05951020 33827.28099994 0 388.40940401 0 10938.59327949 0 742.37169828 0 -1269.12094304 0 3787
0.06050000 0.06049470 32721.26647381 0 992.69481778 0 9111.17250212 0 -608.22273247 0 -3052.04204696 0 3930
0.06150000 0.06148310 32555.84594102 0 991.28973976 0 8808.66551575 0 -899.20896487 0 -2971.40230531 0 4083
0.06250000 0.06249100 32021.71699177 0 -478.76289623 0 10130.41321865 0 129.18302812 0 -2748.08458604 0 4303
0.06350000 0.06350600 32829.00019429 0 -661.24809603 0 10453.68081405 0 -170.86590214 0 -3309.56217759 0 4470
0.06450000 0.06451750 33367.44735022 0 537.02325496 0 11156.58521052 0 -249.84258060 0 -2060.71466130 0 4479
0.06550000 0.06550280 33251.29866288 0 376.05601121 0 12882.64992649 0 1097.06476598 0 1564.01016993 0 4636
0.06650000 0.06648880 32153.36693386 0 817.98239000 0 14046.35126493 0 1313.11128954 0 2890.15358579 0 4653
0.06750000 0.06749660 32370.49522355 0 552.08493841 0 14140.46602589 0 2290.69792011 0 2066.35047463 0 5220
0.06850000 0.06852730 31684.23253129 0 934.28166096 0 13724.58950570 0 1922.02272062 0 2454.18079605 0 5029
0.06950000 0.06949320 30982.02569130 0 838.48833556 0 13119.37623112 0 2173.17626448 0 4056.64515008 0 5040
0.07050000 0.07048030 29873.90742345 0 254.96353083 0 11568.58641702 0 -157.12957597 0 1048.98430269 0 5475
0.07150000 0.07148790 29788.20762935 0 608.28030856 0 12753.43589586 0 -309.48476547 0 3080.92974241 0 5509
0.07250000 0.07249820 28826.02260261 0 536.07767842 0 12055.43653929 0 1153.37085938 0 300.19619218 0 5916
0.07350000 0.07351270 28494.29575104 0 782.52105530 0 11402.72299123 0 1831.65040545 0 1959.19251504 0 5721
0.07450000 0.07449140 28013.20323767 0 -27.49501844 0 10479.94436852 0 540.56307720 0 1007.76535909 0 6028
0.07550000 0.07549160 27591.45838533 0 213.99150007 0 10245.75362628 0 1275.94149513 0 942.93468281 0 6183
0.07650000 0.07648840 27942.89397507 0 565.24218199 0 9652.84170457 0 1149.06372503 0 1329.69763212 0 6330
0.07750000 0.07749960 26577.56560169 0 423.07906748 0 8781.52724762 0 982.51935127 0 1228.25299213 0 6583
0.07850000 0.07848650 26837.98668142 0 431.11868253 0 8416.48377067 0 1719.15558529 0 240.83302990 0 6549
0.07950000 0.07947320 26374.83133426 0 506.38170326 0 8192.87817096 0 -204.58998907 0 312.83635819 0 6828
0.08050000 0.08048110 25473.21192427 0 1471.99915069 0 7353.86168550 0 293.41107153 0 144.16056191 0 7147
0.08150000 0.08149960 24171.54941859 0 1240.57648966 0 7738.62497295 0 -598.93526642 0 782.84547442 0 7386
0.08250000 0.08250610 23415.19891023 0 794.11599385 0 6478.18473257 0 -106.51056076 0 364.10897273 0 7227
0.08350000 0.08350160 22668.92421746 0 640.28375622 0 8035.90582200 0 510.74862816 0 -755.79689212 0 7798
0.08450000 0.08449610 21933.83257275 0 486.39947866 0 7316.20470879 0 470.23609889 0 -687.85710703 0 7371
0.08550000 0.08548940 21658.68530100 0 -52.31341307 0 7034.64656098 0 173.47011293 0 -680.22163184 0 8256
0.08650000 0.08650700 22222.37735752 0 -399.25806787 0 6538.30745633 0 -635.41636223 0 -1975.76778529 0 8037
0.08750000 0.08749060 21906.70537694 0 -237.41389599 0 6843.82611505 0 -7.58497432 0 -1790.60529735 0 8155
0.08850000 0.08849210 22780.20108188 0 232.21765396 0 6708.53337810 0 -542.10213035 0 -1921.57982763 0 8718
0.08950000 0.08949900 22442.16300517 0 270.53786292 0 6904.00420044 0 -369.13027204 0 -2429.17948661 0 8571
0.09050000 0.09049190 22361.88865023 0 555.41881541 0 7464.46313811 0 -559.53439855 0 -1654.48213603 0 8932
0.09150000 0.09150830 21460.82285649 0 868.14223589 0 7744.84761950 0 362.17906652 0 -1630.75414394 0 9285
0.09250000 0.09250820 20960.57522119 0 702.40835631 0 8466.94035487 0 84.04581021 0 -1269.47525743 0 9204
0.09350000 0.09350330 19526.59843392 0 1062.14929690 0 7037.70252263 0 1386.97476841 0 -1545.86262956 0 9349
0.09450000 0.09448040 19192.98928714 0 1005.47670955 0 7986.75577213 0 598.23438825 0 -1322.19059589 0 9564
0.09550000 0.09549270 18297.68110230 0 265.61400007 0 6741.13030236 0 538.09062707 0 -312.19416335 0 10155
0.09650000 0.09649430 17814.04195422 0 205.99174539 0 7224.88017369 0 86.32604479 0 37.70813085 0 9913
0.09750000 0.09749140 18093.17526290 0 251.37720482 0 6646.09653844 0 705.59275693 0 -796.91286310 0 10476
0.09850000 0.09850240 17881.47241237 0 15.33240179 0 7429.79568911 0 169.97679445 0 629.20368077 0 10575
0.09950000 0.09950330 17540.22336146 0 67.62964927 0 6460.91190585 0 539.79687233 0 81.25802027 0 10882
0.10050000 0.10051200 17988.98468636 0 115.76779937 0 6972.97371174 0 163.08648672 0 226.16773568 0 10875
0.10150000 0.10150300 17488.62632780 0 259.14554792 0 7059.59250880 0 791.84838173 0 456.50641611 0 11118
0.10250000 0.10250800 17206.28204493 0 712.04017167 0 6585.58628331 0 -162.82185816 0 -442.53867835 0 11575
0.10350000 0.10349800 16699.16956823 0 687.63676777 0 6061.99818729 0 -123.03788785 0 -169.49182663 0 11364
0.10450000 0.10450100 16378.73648798 0 458.78288609 0 6605.90399935 0 -643.28103455 0 -312.55622838 0 12093
0.10550000 0.10551000 16001.61310466 0 257.39279890 0 6120.07253096 0 -159.68839023 0 -28.50647531 0 12067
0.10650000 0.10649700 16088.86302423 0 -98.79248602 0 6474.78552885 0 443.71677371 0 -1426.06007502 0 12054
0.10750000 0.10749900 16216.19475964 0 -287.85608617 0 6233.51957105 0 693.06663586 0 -256.77274871 0 12807
0.10850000 0.10850100 16289.82571969 0 61.86307178 0 6617.80674853 0 800.90554343 0 -403.07137654 0 12736
0.10950000 0.10950300 16124.07301715 0 355.20682358 0 6148.51733342 0 853.02961975 0 -210.65651584 0 12933
0.11050000 0.11050200 15924.88189367 0 242.51048711 0 5893.67670539 0 1133.58461493 0 1414.21268746 0 13428
0.11150000 0.11150900 15422.30907015 0 206.02717683 0 5648.04825162 0 1428.58456508 0 1108.39507597 0 13453
0.11250000 0.11250000 15390.19932817 0 358.66471062 0 5027.77661528 0 450.49967990 0 1613.07164120 0 13668
0.11350000 0.11349100 15065.89093424 0 351.52749004 0 5412.25202228 0 -380.60341501 0 580.60060375 0 13791
0.11450000 0.11448600 14590.22386003 0 619.49989530 0 5282.72796655 0 -582.92468473 0 2255.18897441 0 14205
0.11550000 0.11549300 14440.30458198 0 270.98961377 0 5482.52806790 0 -799.93007162 0 1383.37626284 0 14776
0.11650000 0.11649800 14304.44715646 0 -41.04532955 0 5558.15204641 0 -125.16155975 0 1643.14407541 0 14553
0.11750000 0.11747300 14625.76602269 0 -304.44575045 0 5627.94090974 0 316.85450487 0 861.44901554 0 14568
0.11850000 0.11849100 14450.38039757 0 -41.04986920 0 5451.44805214 0 571.38842950 0 226.41575575 0 16015
0.11950000 0.11950300 14509.28516560 0 311.00499567 0 5285.70642193 0 402.95843882 0 -114.54984364 0 15270
0.12050000 0.12050700 14150.20967173 0 101.11645628 0 4828.89551688 0 521.36920213 0 -209.64229088 0 15999
0.12150000 0.12150000 14094.07298490 0 150.63344300 0 4743.98185785 0 -30.98567956 0 -152.03409208 0 15670
0.12250000 0.12250700 13858.34318951 0 278.09472461 0 4677.07179897 0 -62.45012644 0 -55.21679808 0 16887
0.12350000 0.12352200 13743.30173465 0 211.05401230 0 4601.10457839 0 13.89111727 0 250.45930910 0 16407
0.12450000 0.12449800 13499.71058864 0 302.37744017 0 4807.02767537 0 -145.15707114 0 163.96784377 0 16306
0.12550000 0.12549900 13479.11606448 0 188.35906812 0 4726.62045253 0 489.25835292 0 614.38891016 0 17523
0.12650000 0.12650100 13359.09206344 0 -120.96736311 0 4794.15056160 0 509.97577989 0 -107.37398065 0 17154
0.12750000 0.12750600 13299.30150942 0 67.73760444 0 4487.09284973 0 428.44914502 0 138.26122724 0 18007
0.12850000 0.12850300 13283.80025467 0 121.63280983 0 4107.50033797 0 303.41823870 0 127.51775047 0 17496
0.12950000 0.12949900 13111.95777349 0 223.24353469 0 4275.11319108 0 248.62130318 0 136.45200937 0 18405
0.13050000 0.13049000 12958.27390501 0 170.75185719 0 3811.59245719 0 6.17451515 0 100.20531467 0 18100
0.13150000 0.13148800 12736.93813188 0 412.66665322 0 3457.77631762 0 159.21560196 0 242.00005293 0 19059
0.13250000 0.13249300 12535.97543642 0 140.37714852 0 3738.82513849 0 317.42140790 0 781.13812193 0 18957
0.13350000 0.13349100 12393.25316951 0 -4.33075162 0 3635.98538557 0 475.50431103 0 783.02484608 0 19468
0.13450000 0.13450700 12427.57737645 0 74.02358468 0 3678.64705310 0 446.10728864 0 640.27489836 0 19953
0.13550000 0.13551000 12341.54541261 0 36.46891626 0 3793.96531608 0 -126.93423895 0 888.11449540 0 19956
0.13650000 0.13649900 12323.38679991 0 157.88360129 0 3768.88650037 0 49.09756705 0 1166.65764917 0 19723
0.13750000 0.13749600 12125.30290890 0 401.98185977 0 4330.80698492 0 -96.81541171 0 1413.37119078 0 20946
0.13850000 0.13851100 11847.83044894 0 403.79107765 0 4107.50033797 0 -103.43765846 0 1187.93865747 0 20955
0.13950000 0.13949800 11645.53907451 0 256.82921756 0 4113.14722363 0 134.56639245 0 1346.19539610 0 20506
0.14050000 0.14048300 11477.35046051 0 -49.06401791 0 4030.65840373 0 149.26490365 0 1088.79927551 0 21447
0.14150000 0.14148400 11504.36693307 0 39.09582532 0 3793.77708656 0 204.77600413 0 1137.73673674 0 21771
0.14250000 0.14249400 11333.18879137 0 236.65765621 0 4122.81336320 0 107.99281289 0 426.31440079 0 22470
0.14350000 0.14350900 11192.12737318 0 140.07265958 0 3535.45974854 0 349.12147386 0 415.04277413 0 22519
0.14450000 0.14449900 11095.46597752 0 141.98817178 0 3325.40667441 0 195.23276736 0 363.28962069 0 22218
0.14550000 0.14550500 10874.10805974 0 97.29816507 0 3147.89516292 0 239.02159756 0 281.51275128 0 23559
0.14650000 0.14650700 10924.93003066 0 74.68659549 0 3224.93639900 0 105.13847827 0 366.28689902 0 23044
0.14750000 0.14750500 10720.29132336 0 102.80122123 0 3223.18697168 0 -241.22720466 0 -138.87020511 0 23649
0.14850000 0.14849900 10662.47164316 0 315.19919231 0 3312.52956064 0 -164.80601876 0 185.29424861 0 23640
0.14950000 0.14949500 10615.50284128 0 211.36293016 0 3468.93722103 0 26.08385064 0 461.02724633 0 24457
0.15050000 0.15050000 10353.87487814 0 71.11145253 0 3392.38316724 0 279.50090986 0 931.19026788 0 24591
0.15150000 0.15149900 10251.62195844 0 186.97059859 0 3443.17192118 0 300.81624237 0 669.15595041 0 25020
0.15250000 0.15250500 10199.29415135 0 175.76540587 0 3358.45756399 0 335.23345684 0 736.15126620 0 25297
0.15350000 0.15350100 9990.03828460 0 45.80100378 0 2940.89805043 0 322.62207887 0 507.27745433 0 25452
0.15450000 0.15450400 9935.11955350 0 130.33233544 0 2943.63291466 0 -107.87666420 0 667.45191963 0 26061
0.15550000 0.15549900 9732.23027352 0 326.34570170 0 3087.71707753 0 -151.81707452 0 270.84235185 0 26128
0.15650000 0.15649500 9564.34061230 0 354.30664357 0 2996.62506124 0 -65.00163297 0 760.31440065 0 26331
0.15750000 0.15749700 9226.92258577 0 199.24427065 0 2838.54547981 0 279.61052588 0 906.04944714 0 27345
0.15850000 0.15849900 9118.98956344 0 30.17839636 0 2808.60591350 0 351.14217314 0 676.17912605 0 26980
0.15950000 0.15949700 9221.17604919 0 18.68720549 0 2837.00642666 0 489.50526577 0 719.35676391 0 27777
0.16050000 0.16050000 9100.70915516 0 46.51782609 0 2672.99207912 0 197.22135690 0 1028.06535941 0 28224
0.16150000 0.16150500 9076.99223540 0 45.74630650 0 2437.62767045 0 218.25877406 0 1275.06678147 0 28075
0.16250000 0.16249700 9064.97876297 0 99.58426797 0 2562.57885603 0 105.26359554 0 1139.26471756 0 28590
0.16350000 0.16349900 8902.20451582 0 178.95866435 0 2458.66508760 0 2.23694178 0 1106.04220695 0 29163
0.16450000 0.16449100 8792.53313849 0 134.09028248 0 2622.05938495 0 -244.69837849 0 1025.16330308 0 28996
0.16550000 0.16550500 8698.06406313 0 138.94771138 0 2886.05682560 0 -217.45049435 0 895.83633473 0 30777
0.16650000 0.16650700 8650.27590922 0 186.83662345 0 2962.37836058 0 -302.34311596 0 632.54087947 0 29211
0.16750000 0.16749900 8550.06029728 0 246.00380559 0 3081.64944353 0 -216.47502253 0 583.28121359 0 30922
0.16850000 0.16850800 8442.07191333 0 78.10196481 0 3084.08535499 0 -237.86786131 0 634.86606768 0 30867
0.16950000 0.16949900 8386.44455344 0 21.17925364 0 3136.64568090 0 328.64985250 0 697.64282771 0 30852
0.17050000 0.17049200 8398.80126794 0 -44.03784678 0 2836.40852112 0 381.27329067 0 533.33063463 0 31257
0.17150000 0.17149500 8309.54725757 0 58.11531128 0 2753.03391523 0 442.63722204 0 413.56240430 0 32608
0.17250000 0.17250900 8274.82444694 0 115.57071199 0 2282.47118277 0 447.91097035 0 448.31843191 0 32361
0.17350000 0.17350400 8154.93331381 0 29.70272928 0 2145.44009081 0 479.69297151 0 605.24095540 0 32508
0.17450000 0.17449800 8033.92387586 0 73.21895884 0 1723.83917869 0 493.47580145 0 634.01903484 0 32791
0.17550000 0.17549800 8053.13435942 0 60.42942716 0 1542.65165536 0 198.72387138 0 149.10878387 0 33633
0.17650000 0.17650100 7902.87183931 0 19.49781039 0 1479.36224669 0 24.01731193 0 533.55540283 0 33984
0.17750000 0.17750300 7906.90216554 0 139.56665434 0 1606.53896956 0 -121.20763256 0 332.90494693 0 34069
0.17850000 0.17849800 7776.12693711 0 121.60291455 0 1437.75245003 0 -76.26130153 0 441.10370506 0 34536
