### header ###
fiducial parameters:
Omega_m = 0.31
Omega_nu = 0
Omega_de = 0.69
Omega_k = 0
H_0 = 100
w_de = -1
zeff = 0
beta = 0
fgrowth = 0
b_1 = 2
gamma = 0.55
Lx = 3500 Ly = 3500 Lz = 3500
nx = 700 ny = 700 nz = 700
xoffset = -685.467585 yoffset = -31.7331281 zoffset = 572.489161
bins = 400 dk = 0.001
kx_ny = 0.628318531 ky_ny = 0.628318531 kz_ny = 0.628318531
############################
A(data) = 8.0007265 (not used)
A(ran) = 7.99666831 (used)
Ngal = 475048
weighted Ngal = 0
Nran = 23820508
weighted Nran = 0
SN(data) = 3487.38875
SN(ran) = 69.6538811
SN(data+ran) = 3557.04263
############################
13 columns: k_central k_mean P_0(k) sigma^{lin}_{P_0(k)} P^img_1(k) sigma^{lin}_{P_1(k)} P_2(k) sigma^{lin}_{P_2(k)} P^img_3(k) sigma^{lin}_{P_3(k)} P_4(k) sigma^{lin}_{P_4(k)} N_modes
### header ###
0.00050000 0 0 0 0 0 0 0 0 0 0 0 0
0.00150000 0.00179520 22160.48306178 0 -21960.62759881 0 7190.99885974 0 -32362.19097994 0 44110.25978227 0 3
0.00250000 0.00253879 32250.80339226 0 -11840.63343781 0 8177.35477156 0 -17433.70759670 0 -26103.78082270 0 6
0.00350000 0.00331552 42467.34822568 0 6433.59648052 0 49980.58495462 0 -58784.63331092 0 93301.49870056 0 7
0.00450000 0.00420575 49286.01801874 0 5793.81540785 0 51654.05612771 0 -33347.62788880 0 28468.38651097 0 24
0.00550000 0.00557378 67639.06074514 0 -19280.68209970 0 84071.38728524 0 -143.10536935 0 16438.30559551 0 45
0.00650000 0.00659388 95262.51814919 0 -23632.77009292 0 78070.51940328 0 7403.67607486 0 -43236.21046108 0 40
0.00750000 0.00754703 110279.46940773 0 7328.16281960 0 105336.45143894 0 4892.68318016 0 -13562.93356335 0 57
0.00850000 0.00846663 107457.79815095 0 16977.19564443 0 78310.12451236 0 -8235.32946431 0 -40090.23081036 0 75
0.00950000 0.00948925 93400.81745419 0 17082.49345346 0 87598.91924922 0 15129.00318570 0 9797.63449622 0 112
0.01050000 0.01054430 87907.61566516 0 18952.38766883 0 83824.03154880 0 25222.20232064 0 -16247.97233187 0 105
0.01150000 0.01145670 66351.79226172 0 9890.22127636 0 66425.86611476 0 45936.08614486 0 805.75300724 0 144
0.01250000 0.01249090 64394.86957328 0 4762.58336354 0 53261.75769138 0 50747.89706455 0 -14669.83387547 0 169
0.01350000 0.01339930 62622.52253956 0 -6261.15609380 0 25999.59024615 0 38453.29830917 0 -8074.49287400 0 180
0.01450000 0.01448870 61957.18654120 0 -5878.67370526 0 20876.97916881 0 23881.23306185 0 2345.83809770 0 267
0.01550000 0.01550050 73726.73565368 0 -6793.87885780 0 5950.28950219 0 13559.27969616 0 8473.17407374 0 238
0.01650000 0.01653350 71236.56980197 0 -4823.84653677 0 4777.13239836 0 6253.94801034 0 -1244.56252659 0 315
0.01750000 0.01747870 80627.67282015 0 -2033.88641826 0 -4598.20362929 0 -12786.76359357 0 -11532.93353110 0 297
0.01850000 0.01844180 70184.69894419 0 5075.03329760 0 -6483.12298944 0 -12515.82380525 0 -4107.31210845 0 388
0.01950000 0.01947590 73349.16937736 0 2134.38991064 0 -5945.84949994 0 -9111.88113091 0 -7766.56044847 0 399
0.02050000 0.02045430 69206.23759997 0 -2680.01193305 0 -3464.56365273 0 -4965.28441400 0 -26736.01056984 0 462
0.02150000 0.02154770 74821.67785500 0 -2259.83935084 0 -10473.95424080 0 248.07100863 0 -26457.98449364 0 571
0.02250000 0.02255340 74560.92460552 0 35.99579582 0 -7268.41655488 0 2266.53810735 0 -16189.95334982 0 510
0.02350000 0.02348930 70847.70975433 0 -3261.85152995 0 -23675.39854347 0 10498.16941518 0 -12886.41451693 0 555
0.02450000 0.02439640 74816.25241583 0 -1967.38603540 0 -15044.52134734 0 7922.61379446 0 -11793.57605733 0 592
0.02550000 0.02547300 75358.24271571 0 1722.96446503 0 -19057.90692435 0 -612.47007627 0 -7969.09541405 0 837
0.02650000 0.02652900 72788.13467880 0 4355.34325671 0 -10522.15207073 0 -12441.97139871 0 420.22683661 0 723
0.02750000 0.02749970 68160.78869059 0 5994.75595866 0 -4716.73286647 0 -14133.60118451 0 1513.08854809 0 826
0.02850000 0.02848090 67988.28186992 0 4359.98256081 0 16747.88779744 0 -16637.05382600 0 7087.15152527 0 831
0.02950000 0.02946900 67036.61555176 0 4223.70438694 0 23404.45875516 0 -15579.31463608 0 -167.07252365 0 996
0.03050000 0.03053250 62037.01800315 0 7021.32655422 0 35508.50280041 0 -3957.89108502 0 5372.36950828 0 1041
0.03150000 0.03150510 60004.58205943 0 4240.21322325 0 38528.92228768 0 -4105.82841693 0 5727.61397776 0 1036
0.03250000 0.03246190 57863.52660925 0 765.67451309 0 39145.31861034 0 12887.18957967 0 3353.47501782 0 1059
0.03350000 0.03345080 55511.98626427 0 456.67914438 0 43786.83717432 0 2886.88724997 0 10913.04942613 0 1302
0.03450000 0.03451200 57320.76124664 0 1967.05386566 0 39028.06269051 0 11026.31930902 0 -1186.04528992 0 1339
0.03550000 0.03553350 55025.13614199 0 408.68836692 0 38915.12497736 0 2490.36515356 0 11196.22413337 0 1365
0.03650000 0.03647120 53370.93081409 0 2586.16290789 0 29657.99708948 0 -577.80594896 0 -1437.56422050 0 1308
0.03750000 0.03744890 50801.04422368 0 3169.79622141 0 32140.19086733 0 2498.63618020 0 3399.23693630 0 1579
0.03850000 0.03847530 48834.82078238 0 2736.52507893 0 27097.41125192 0 5143.02844431 0 -241.01572326 0 1662
0.03950000 0.03950240 47617.19722208 0 -157.94007014 0 23649.26785690 0 5867.36886162 0 -7147.48462321 0 1683
0.04050000 0.04050350 45140.42888339 0 1244.56252659 0 17708.30125221 0 7786.06988480 0 -10832.55362470 0 1822
0.04150000 0.04152450 42720.35084778 0 3352.22384512 0 17441.56894732 0 3961.05776992 0 -4603.88373192 0 1887
0.04250000 0.04250150 42344.00252720 0 -121.96719404 0 14371.10255187 0 3027.38397959 0 -4551.73308202 0 1920
0.04350000 0.04349210 42783.79526899 0 -1718.41373953 0 13377.36139939 0 2759.57765920 0 -5761.40671311 0 2005
0.04450000 0.04448520 43108.87872567 0 930.53367901 0 13045.08093158 0 104.53536874 0 -7390.12354928 0 2151
0.04550000 0.04548030 40597.12184056 0 2904.10471506 0 14628.75555040 0 -1799.70674835 0 -4822.63965336 0 2274
0.04650000 0.04648670 38518.29285586 0 1583.47531696 0 14008.59463730 0 996.17595670 0 -4595.22517391 0 2311
0.04750000 0.04749250 37410.17458801 0 1248.41569563 0 12111.68394937 0 2203.16012009 0 -5701.38364027 0 2568
0.04850000 0.04851840 36112.16594952 0 1008.31786810 0 10763.22979901 0 4030.87985023 0 -6532.15124373 0 2493
0.04950000 0.04949480 35358.47279911 0 2402.47303915 0 11245.49597881 0 1475.52014998 0 -4748.16719663 0 2644
0.05050000 0.05050630 33574.38910108 0 311.32609309 0 5741.31044356 0 986.20200650 0 -4331.02843141 0 2829
0.05150000 0.05149060 34326.86429576 0 -1328.75648451 0 7199.98958750 0 578.70945067 0 -1450.45240659 0 2784
0.05250000 0.05249300 36008.52898922 0 -920.94615295 0 7709.41618008 0 -1129.22211895 0 -4649.66779504 0 3055
0.05350000 0.05348950 36186.79341880 0 -510.49950086 0 10763.10800344 0 -1720.04137128 0 -5222.20663909 0 3009
0.05450000 0.05448610 37065.16094666 0 469.68137541 0 10101.20442578 0 -2933.02562748 0 -4218.86578100 0 3336
0.05550000 0.05550870 36626.03254435 0 561.03912749 0 13022.38266571 0 -2365.97865655 0 -3746.47611494 0 3349
0.05650000 0.05647670 37067.59685812 0 585.32627198 0 14354.05117164 0 -140.38600638 0 -4319.73466010 0 3324
0.05750000 0.05747970 35664.62258035 0 548.51743535 0 14001.95124241 0 1875.44145011 0 -4776.08052750 0 3639
0.05850000 0.05849280 35489.90129471 0 460.08942042 0 14921.39709535 0 -544.90232130 0 -4100.87908773 0 3846
0.05950000 0.05951020 35102.25920281 0 2601.04411245 0 14698.51119675 0 -1597.78076063 0 -5806.65930464 0 3787
0.06050000 0.06049470 34101.09959271 0 1512.45742558 0 15913.47739910 0 -815.61401972 0 -2577.06145689 0 3930
0.06150000 0.06148310 31540.07086215 0 1672.02069854 0 16574.93808377 0 -1067.97444699 0 -1055.61441079 0 4083
0.06250000 0.06249100 31720.54975670 0 105.27632872 0 16906.44348884 0 2319.15379489 0 -2214.17708328 0 4303
0.06350000 0.06350600 30913.93089366 0 -164.05752961 0 15856.23347979 0 5147.60131446 0 -912.30198897 0 4470
0.06450000 0.06451750 30890.56828829 0 140.64509878 0 13542.22831594 0 4673.41793178 0 -2069.61681045 0 4479
0.06550000 0.06550280 30416.78350930 0 -570.79384566 0 12649.13459607 0 3005.64900597 0 1669.27476198 0 4636
0.06650000 0.06648880 30751.05699558 0 -891.01655174 0 9529.11954705 0 1875.10928036 0 416.41795687 0 4653
0.06750000 0.06749660 31436.98751809 0 -311.71140999 0 8064.10703332 0 3481.17213996 0 1399.73008660 0 5220
0.06850000 0.06852730 30426.41643190 0 1034.46073423 0 7282.78843249 0 -1002.51596989 0 695.46490142 0 5029
0.06950000 0.06949320 30025.81971996 0 2090.78709550 0 8024.51239977 0 -1225.37418768 0 240.65255100 0 5040
0.07050000 0.07048030 27900.81914076 0 1263.23046623 0 7828.65404605 0 -643.09169779 0 542.83290379 0 5475
0.07150000 0.07148790 27539.52918193 0 311.45121036 0 9001.68935431 0 -256.49704782 0 1709.86590477 0 5509
0.07250000 0.07249820 27641.94818650 0 -370.62835758 0 8981.47128919 0 1322.24595752 0 -64.07687240 0 5916
0.07350000 0.07351270 28164.22974820 0 -256.28113748 0 9328.25650251 0 983.25566087 0 366.37990655 0 5721
0.07450000 0.07449140 27659.99607596 0 810.86509961 0 7957.86807668 0 1332.43249635 0 2326.39509532 0 6028
0.07550000 0.07549160 27226.40383606 0 1000.08116566 0 7962.77311658 0 282.58123063 0 2680.75377882 0 6183
0.07650000 0.07648840 25745.36966832 0 1170.67690308 0 7933.19893699 0 958.68285040 0 2113.61822928 0 6330
0.07750000 0.07749960 25200.05767100 0 708.64539688 0 8260.84010070 0 -723.31844173 0 1425.00820416 0 6583
0.07850000 0.07848650 24823.04501092 0 846.69403549 0 8800.22840424 0 -319.31920437 0 713.22048150 0 6549
0.07950000 0.07947320 24094.92893085 0 397.17425634 0 8362.98229715 0 -690.17343739 0 2135.37534755 0 6828
0.08050000 0.08048110 24313.38589952 0 33.78598123 0 9428.17316168 0 285.42903257 0 2860.22509180 0 7147
0.08150000 0.08149960 24325.56545682 0 -36.48331028 0 9973.19727855 0 691.97490463 0 2238.18188349 0 7386
0.08250000 0.08250610 24376.71959748 0 809.23193170 0 10391.18861278 0 620.01918733 0 3348.91322000 0 7227
0.08350000 0.08350160 24087.73191972 0 635.07976355 0 10511.91017028 0 458.33002801 0 3905.98402627 0 7798
0.08450000 0.08449610 23073.72841283 0 549.36336097 0 10495.89958859 0 1392.82095591 0 5626.95547284 0 7371
0.08550000 0.08548940 23380.43181030 0 559.58200954 0 10663.70067121 0 649.78823984 0 5297.90812388 0 8256
0.08650000 0.08650700 22624.85636468 0 172.47471093 0 10029.45576095 0 529.45753541 0 4994.03924155 0 8037
0.08750000 0.08749060 22051.30993907 0 577.94656749 0 9215.72846538 0 730.75240061 0 3885.02411539 0 8155
0.08850000 0.08849210 21904.93380497 0 24.74243849 0 8607.45922914 0 296.62204573 0 2376.95133044 0 8718
0.08950000 0.08949900 21638.75511633 0 13.54289266 0 7809.76465991 0 237.09279857 0 1113.43298376 0 8571
0.09050000 0.09049190 21334.70907681 0 99.04748167 0 7452.42752104 0 1105.21067535 0 241.08880060 0 8932
0.09150000 0.09150830 21607.08826735 0 233.66812851 0 7145.21479662 0 267.36342740 0 124.65444727 0 9285
0.09250000 0.09250820 20513.80691475 0 1164.46532885 0 6714.73387999 0 785.64345090 0 422.45348113 0 9204
0.09350000 0.09350330 20386.47517934 0 657.92639858 0 5907.64997931 0 1171.21944699 0 -117.62241378 0 9349
0.09450000 0.09448040 18901.56569791 0 238.58091903 0 5938.26495744 0 343.89090761 0 1598.32330455 0 9564
0.09550000 0.09549270 19489.28469928 0 346.18730778 0 5090.26881655 0 635.15726983 0 141.39801686 0 10155
0.09650000 0.09649430 18927.36421474 0 281.33005792 0 5361.79543808 0 951.98520112 0 1611.04540576 0 9913
0.09750000 0.09749140 18481.14952455 0 618.45245337 0 4998.09171244 0 -253.80758012 0 204.32203881 0 10476
0.09850000 0.09850240 17691.02842549 0 709.01853423 0 4653.54310873 0 22.36919638 0 -191.97196771 0 10575
0.09950000 0.09950330 17220.12245095 0 483.07999568 0 4607.99156443 0 399.13848676 0 -345.94925280 0 10882
0.10050000 0.10051200 16789.18756901 0 281.32009283 0 4597.77180862 0 -349.77031209 0 -642.67648561 0 10875
0.10150000 0.10150300 16933.34923815 0 61.76098495 0 4326.66593543 0 -94.74079020 0 -1008.01559363 0 11118
0.10250000 0.10250800 16665.95259378 0 200.35261036 0 4587.02058122 0 -227.60824513 0 -1248.29390005 0 11575
0.10350000 0.10349800 16504.18592818 0 435.39592161 0 4392.51305113 0 -641.50503365 0 -678.46999005 0 11364
0.10450000 0.10450100 16508.17196511 0 192.74813768 0 4901.21994260 0 -146.23330111 0 -770.56183727 0 12093
0.10550000 0.10551000 15934.51481626 0 433.18920727 0 5560.03434163 0 -112.26894473 0 80.98519819 0 12067
0.10650000 0.10649700 15939.94025542 0 379.08872098 0 5562.74706121 0 181.92604740 0 -139.37953205 0 12054
0.10750000 0.10749900 15326.86563021 0 559.31184482 0 6132.86106612 0 621.42537259 0 597.80146035 0 12807
0.10850000 0.10850100 15214.14936356 0 283.20903144 0 5917.23861261 0 250.61210718 0 1140.32766075 0 12736
0.10950000 0.10950300 14856.07037892 0 102.49186047 0 6276.04837068 0 282.33210332 0 728.59219004 0 12933
0.11050000 0.11050200 14962.25397393 0 22.31992454 0 6151.04182348 0 320.39432711 0 1748.78512651 0 13428
0.11150000 0.11150900 15028.13430660 0 -224.82576991 0 6272.75989021 0 34.73620814 0 1137.89174929 0 13453
0.11250000 0.11250000 15141.18274300 0 -237.86232515 0 5762.25928212 0 353.83717700 0 945.24436977 0 13668
0.11350000 0.11349100 15346.90653813 0 202.47296056 0 5655.94281921 0 406.68427612 0 557.93112591 0 13791
0.11450000 0.11448600 14932.02652718 0 296.25887348 0 4570.73319141 0 569.33894217 0 699.21177614 0 14205
0.11550000 0.11549300 14983.40211434 0 4.48360507 0 4724.06274550 0 459.49594381 0 556.43746930 0 14776
0.11650000 0.11649800 14685.99946971 0 56.10036961 0 4047.72085628 0 269.32433612 0 -119.60103823 0 14553
0.11750000 0.11747300 14549.69915119 0 353.20826895 0 4456.01283396 0 316.31638988 0 -371.10889648 0 14568
0.11850000 0.11849100 14529.76896652 0 177.97765637 0 4224.74518548 0 122.14435124 0 270.70616226 0 16015
0.11950000 0.11950300 14406.09109829 0 126.82573017 0 4434.49930684 0 -42.07605227 0 30.73245549 0 15270
0.12050000 0.12050700 14360.03022705 0 348.15043097 0 4583.48850960 0 -209.03109855 0 127.43360080 0 15999
0.12150000 0.12150000 14151.64907396 0 186.08813430 0 5021.43217315 0 -413.25348644 0 951.10716576 0 15670
0.12250000 0.12250700 14019.00262263 0 7.22916516 0 5044.11936671 0 345.27826991 0 814.25433823 0 16887
0.12350000 0.12352200 14054.54478530 0 231.64300030 0 5329.16529684 0 624.46804745 0 652.47770754 0 16407
0.12450000 0.12449800 13701.33762359 0 351.10452723 0 5043.16714677 0 273.27826331 0 894.87636417 0 16306
0.12550000 0.12549900 13433.60880947 0 350.88972413 0 4674.69124913 0 313.84283252 0 1109.46909148 0 17523
0.12650000 0.12650100 13096.01362575 0 181.32592739 0 4180.34516296 0 208.11431006 0 940.66374899 0 17154
0.12750000 0.12750600 13114.06151520 0 -19.56103336 0 4468.01523407 0 179.31630044 0 737.55855868 0 18007
0.12850000 0.12850300 12936.01853212 0 139.36070910 0 4236.72544093 0 133.63853163 0 317.07373690 0 17496
0.12950000 0.12949900 12812.45138714 0 257.34297343 0 4234.40025272 0 -216.92012999 0 682.26669023 0 18405
0.13050000 0.13049000 12596.76249968 0 109.94054555 0 4029.97191959 0 320.02340423 0 477.11865599 0 18100
0.13150000 0.13148800 12340.10601038 0 196.55812465 0 4087.88017839 0 275.09855351 0 361.22684658 0 19059
0.13250000 0.13249300 12456.25469773 0 252.51211812 0 3862.59158531 0 275.21481292 0 -105.88154199 0 18957
0.13350000 0.13349100 12063.29788992 0 288.92235105 0 4105.68447670 0 165.16254762 0 369.48901536 0 19468
0.13450000 0.13450700 11885.47635333 0 373.50384034 0 3830.48184334 0 -153.99832251 0 405.26037515 0 19953
0.13550000 0.13551000 11705.44035178 0 157.12293257 0 3978.89528520 0 163.72314540 0 453.39177114 0 19956
0.13650000 0.13649900 11543.34151643 0 134.54203334 0 4075.96635689 0 -13.88093073 0 121.79557301 0 19723
0.13750000 0.13749600 11471.92502135 0 52.87898742 0 4013.11984122 0 95.43114966 0 354.73403531 0 20946
0.13850000 0.13851100 11369.83818652 0 158.85021524 0 3835.45331718 0 -61.77161438 0 149.46752719 0 20955
0.13950000 0.13949800 11408.59132339 0 8.71221449 0 4215.35585403 0 -117.02007931 0 446.17261536 0 20506
0.14050000 0.14048300 11435.05417971 0 68.74330370 0 4094.85574303 0 237.24781112 0 275.62891787 0 21447
0.14150000 0.14148400 11386.66812025 0 218.83674941 0 4344.31522119 0 226.50765605 0 537.65548471 0 21771
0.14250000 0.14249400 11179.28347639 0 196.76185542 0 4032.64034987 0 451.86046862 0 1068.04752433 0 22470
0.14350000 0.14350900 11043.55891877 0 76.15301419 0 3990.43264767 0 456.50863058 0 968.96350399 0 22519
0.14450000 0.14449900 10961.44655791 0 -30.29664879 0 3749.69816146 0 577.63764963 0 1011.10145056 0 22218
0.14550000 0.14550500 10984.74272933 0 129.36682872 0 3414.41709363 0 419.61896598 0 769.43135290 0 23559
0.14650000 0.14650700 10791.09884058 0 123.56271605 0 3193.77887696 0 -109.79317290 0 712.30369300 0 23044
0.14750000 0.14750500 10583.85813695 0 315.29441430 0 3358.83402304 0 -338.37024646 0 883.30910643 0 23649
0.14850000 0.14849900 10408.31749927 0 274.43642849 0 3214.74986017 0 -204.35082685 0 1230.78855452 0 23640
0.14950000 0.14949500 10304.70268362 0 176.95457355 0 3790.71005259 0 16.18917829 0 1164.18852073 0 24457
0.15050000 0.15050000 10048.53337662 0 145.14932051 0 3752.68768916 0 270.73495030 0 1267.46009432 0 24591
0.15150000 0.15149900 10110.37231073 0 89.91956781 0 4058.52744530 0 320.64566889 0 1255.14766912 0 25020
0.15250000 0.15250500 10009.02732166 0 122.39126408 0 3992.94606540 0 20.25017486 0 1467.13840009 0 25297
0.15350000 0.15350100 10001.59779171 0 144.09855689 0 4360.97907005 0 9.42645695 0 1625.39513873 0 25452
0.15450000 0.15450400 9785.10062453 0 220.92941880 0 3979.41568447 0 94.42932571 0 1544.48966128 0 26061
0.15550000 0.15549900 9566.71008981 0 189.93355271 0 3794.68501720 0 127.36827409 0 1529.19878070 0 26128
0.15650000 0.15649500 9604.10133072 0 41.98979886 0 3419.67644791 0 604.53121938 0 799.64219117 0 26331
0.15750000 0.15749700 9418.40737119 0 -82.21455841 0 3142.31471121 0 515.55955330 0 800.02418638 0 27345
0.15850000 0.15849900 9358.63896181 0 153.37273616 0 2469.42738733 0 235.84384033 0 118.06530677 0 26980
0.15950000 0.15949700 9288.32969922 0 112.71294496 0 2518.65494347 0 61.19186745 0 225.98504232 0 27777
0.16050000 0.16050000 9196.03079953 0 153.29855158 0 2385.97527517 0 -241.76089072 0 2.24610967 0 28224
0.16150000 0.16150500 9036.44538192 0 103.37521054 0 2497.57323702 0 -69.43388460 0 75.67081445 0 28075
0.16250000 0.16249700 8982.11348403 0 125.28999872 0 2533.79081150 0 5.42303647 0 -49.18492769 0 28590
0.16350000 0.16349900 8843.72049612 0 199.75470482 0 2742.22732621 0 6.48460668 0 36.47124144 0 29163
0.16450000 0.16449100 8673.26205554 0 311.08360917 0 2685.23807037 0 225.28527139 0 229.61012146 0 28996
0.16550000 0.16550500 8520.51933467 0 118.97102294 0 2624.61709199 0 174.67478187 0 230.71956841 0 30777
0.16650000 0.16650700 8360.11456502 0 43.67843911 0 2505.24635812 0 161.24626633 0 122.53631154 0 29211
0.16750000 0.16749900 8537.65929349 0 95.42262397 0 2430.15385120 0 -54.89758296 0 1.15673685 0 30922
0.16850000 0.16850800 8315.80312110 0 74.59890268 0 2335.05365333 0 -19.43425524 0 288.54367754 0 30867
0.16950000 0.16949900 8398.74590631 0 -78.67241098 0 2448.56712737 0 289.67969807 0 238.88319350 0 30852
0.17050000 0.17049200 8452.10343961 0 -168.10114263 0 2099.65602768 0 441.87876779 0 334.74295285 0 31257
0.17150000 0.17149500 8507.86366740 0 -2.23500413 0 1925.86481733 0 382.36834359 0 56.31749789 0 32608
0.17250000 0.17250900 8576.99926357 0 46.82142924 0 1950.51181238 0 47.69835736 0 347.79390211 0 32361
0.17350000 0.17350400 8484.55642366 0 48.41008640 0 1801.77727309 0 31.02864018 0 288.37759267 0 32508
0.17450000 0.17449800 8399.62061997 0 165.57886704 0 1867.43615926 0 -172.32191285 0 275.73742666 0 32791
0.17550000 0.17549800 8371.20903449 0 152.66300013 0 1913.55239213 0 -162.24056110 0 194.27279680 0 33633
0.17650000 0.17650100 8236.35919052 0 85.36142385 0 1926.51808450 0 -25.56156908 0 -228.66786662 0 33984
0.17750000 0.17750300 8059.30164435 0 250.99299515 0 1938.03330231 0 30.12691005 0 109.78420432 0 34069
0.17850000 0.17849800 7990.68644745 0 195.31027364 0 1686.03826176 0 -12.57351062 0 -209.63786195 0 34536
