### header ###
fiducial parameters:
Omega_m = 0.31
Omega_nu = 0
Omega_de = 0.69
Omega_k = 0
H_0 = 100
w_de = -1
zeff = 0
beta = 0
fgrowth = 0
b_1 = 2
gamma = 0.55
Lx = 3500 Ly = 3500 Lz = 3500
nx = 700 ny = 700 nz = 700
xoffset = -685.467585 yoffset = -31.7331281 zoffset = 572.489161
bins = 400 dk = 0.001
kx_ny = 0.628318531 ky_ny = 0.628318531 kz_ny = 0.628318531
############################
A(data) = 8.0088926 (not used)
A(ran) = 8.00581275 (used)
Ngal = 475389
weighted Ngal = 0
Nran = 23820508
weighted Nran = 0
SN(data) = 3491.9937
SN(ran) = 69.7335325
SN(data+ran) = 3561.72724
############################
13 columns: k_central k_mean P_0(k) sigma^{lin}_{P_0(k)} P^img_1(k) sigma^{lin}_{P_1(k)} P_2(k) sigma^{lin}_{P_2(k)} P^img_3(k) sigma^{lin}_{P_3(k)} P_4(k) sigma^{lin}_{P_4(k)} N_modes
### header ###
0.00050000 0 0 0 0 0 0 0 0 0 0 0 0
0.00150000 0.00179520 37583.12430168 0 -50057.20544236 0 -20800.35868106 0 17457.29164857 0 -35563.53225475 0 3
0.00250000 0.00253879 62825.58897673 0 -45151.83337796 0 -14583.24829539 0 -16725.63242455 0 27192.85469186 0 6
0.00350000 0.00331552 71121.97124009 0 -9418.82811953 0 3113.38272646 0 -61336.25056537 0 6902.68659379 0 7
0.00450000 0.00420575 71470.86019513 0 17125.89696674 0 -4608.58946997 0 -41585.32683062 0 32335.72812362 0 24
0.00550000 0.00557378 55103.41747846 0 4687.23619315 0 2711.44626321 0 -22568.49823135 0 3286.40994640 0 45
0.00650000 0.00659388 48314.75368565 0 -4472.14521123 0 -9351.79626508 0 -7829.18551764 0 11207.29645819 0 40
0.00750000 0.00754703 62573.36141736 0 -8892.50515927 0 18357.02876333 0 -9466.20659743 0 -26121.49654241 0 57
0.00850000 0.00846663 66888.24639919 0 -9730.33690598 0 19973.14529386 0 -18291.25915391 0 1746.79210804 0 75
0.00950000 0.00948925 80207.14592354 0 1576.13436561 0 36253.00592121 0 -13230.98526529 0 -11897.10229439 0 112
0.01050000 0.01054430 76280.45664985 0 9441.50424076 0 20436.41136427 0 13893.77462893 0 8094.94345794 0 105
0.01150000 0.01145670 68965.41453517 0 4778.85968103 0 20446.26573336 0 18006.47895957 0 5767.36362386 0 144
0.01250000 0.01249090 69233.25407253 0 1797.52550036 0 13759.02443589 0 35269.11913783 0 -7178.58678362 0 169
0.01350000 0.01339930 74471.23877449 0 -7066.53485646 0 29368.12362573 0 14123.52536892 0 11759.14112715 0 180
0.01450000 0.01448870 75586.22188372 0 -7117.09109158 0 -12738.93115035 0 13703.21991880 0 2069.30678536 0 267
0.01550000 0.01550050 81236.87213167 0 -6517.49148567 0 -423.65482837 0 7831.88716490 0 31588.01402862 0 238
0.01650000 0.01653350 84874.24155784 0 -4723.21017649 0 -2893.07667954 0 -3958.69936474 0 7705.29727524 0 315
0.01750000 0.01747870 87525.39901242 0 -1315.82400912 0 5765.66955816 0 6308.80030749 0 13842.84193477 0 297
0.01850000 0.01844180 87179.16741534 0 5208.49910096 0 4243.72315022 0 -2364.84927942 0 17446.66221674 0 388
0.01950000 0.01947590 86880.32536849 0 1698.07387884 0 5091.63071250 0 -10257.56779687 0 18743.89579249 0 399
0.02050000 0.02045430 82463.90716807 0 655.71746978 0 10040.63880902 0 2268.45361954 0 7790.85312912 0 462
0.02150000 0.02154770 84855.19715916 0 5589.70817215 0 9281.21019436 0 -2137.54552321 0 4351.11362863 0 571
0.02250000 0.02255340 74847.03347883 0 5106.26832591 0 7363.09600440 0 8857.15122613 0 17177.49400040 0 510
0.02350000 0.02348930 76830.41902359 0 -742.59425201 0 179.89870472 0 -40.71205257 0 -3424.98009150 0 555
0.02450000 0.02439640 70749.16606345 0 3811.16063653 0 3623.73939432 0 6681.30653137 0 -2414.73010272 0 592
0.02550000 0.02547300 67866.70774341 0 10229.15621138 0 7990.95218324 0 -3462.57063426 0 -3709.88208141 0 837
0.02650000 0.02652900 56376.18121636 0 7954.03705230 0 -464.14742747 0 -7120.82246504 0 6752.19155486 0 723
0.02750000 0.02749970 53111.83841333 0 2038.90218140 0 7460.37745026 0 -1497.95268007 0 8659.49915579 0 826
0.02850000 0.02848090 52827.27966549 0 -5023.42519162 0 8624.62133261 0 -2756.43311895 0 3033.37410732 0 831
0.02950000 0.02946900 58534.62021651 0 -2552.73555926 0 15458.62629555 0 -419.98767439 0 -5754.35364220 0 996
0.03050000 0.03053250 59381.21017214 0 2080.96594339 0 14770.81347782 0 -6173.51864286 0 -4102.03060951 0 1041
0.03150000 0.03150510 58805.89217457 0 1279.90538741 0 19403.25273544 0 -7150.67345275 0 -1572.24797960 0 1036
0.03250000 0.03246190 56355.25452246 0 764.52520578 0 18299.23122778 0 -1484.18978032 0 -7144.71654200 0 1059
0.03350000 0.03345080 56678.45568391 0 -454.85221078 0 15049.39317026 0 8936.67266298 0 -2174.71531763 0 1302
0.03450000 0.03451200 58302.54428831 0 -1478.55396698 0 8207.19468695 0 10279.93389300 0 -12668.51116450 0 1339
0.03550000 0.03553350 56322.03754800 0 595.76525982 0 9336.51645683 0 4869.88526336 0 -5098.04158857 0 1365
0.03650000 0.03647120 56073.02096283 0 3832.16483671 0 6678.40558226 0 3030.84961726 0 -6268.79599792 0 1308
0.03750000 0.03744890 52550.25009853 0 2936.28089098 0 7920.83115016 0 -755.39164503 0 6461.48766674 0 1579
0.03850000 0.03847530 50689.65663600 0 2663.41451815 0 9299.68990448 0 -2111.59199384 0 5965.41429789 0 1662
0.03950000 0.03950240 49742.52997102 0 1887.90888785 0 14330.46711978 0 -404.30261906 0 7952.25440800 0 1683
0.04050000 0.04050350 48187.31122699 0 2566.52060366 0 13724.92167545 0 -893.86546091 0 10628.71212479 0 1822
0.04150000 0.04152450 47129.57203706 0 2400.16999559 0 18566.18497915 0 -2008.15433538 0 11095.35525427 0 1887
0.04250000 0.04250150 44823.31750059 0 276.95870408 0 15515.64876837 0 343.73478783 0 6770.38338453 0 1920
0.04350000 0.04349210 47298.64643705 0 -2069.36214698 0 21318.65420582 0 2471.14359768 0 858.14281935 0 2005
0.04450000 0.04448520 44562.45352786 0 2029.55713926 0 17566.35404803 0 1481.80923048 0 587.41229798 0 2151
0.04550000 0.04548030 43751.51645814 0 3146.77685811 0 16666.83837976 0 672.08347310 0 -651.07595122 0 2274
0.04650000 0.04648670 40941.80331216 0 1692.99168175 0 14729.73515274 0 1013.32366615 0 2965.56719013 0 2311
0.04750000 0.04749250 39712.55381080 0 994.83952710 0 14797.94067362 0 1710.28665311 0 5470.95748847 0 2568
0.04850000 0.04851840 39668.26451152 0 664.58972366 0 15427.40233956 0 3795.54865853 0 3623.85011757 0 2493
0.04950000 0.04949480 38834.96134567 0 246.13335179 0 13987.00360391 0 758.40553185 0 5473.02801321 0 2644
0.05050000 0.05050630 37991.36091774 0 1784.37157847 0 12971.89286453 0 3038.98777600 0 5902.10274458 0 2829
0.05150000 0.05149060 36894.31497471 0 404.03134710 0 13856.01800130 0 698.42231938 0 8117.94067659 0 2784
0.05250000 0.05249300 35990.25965327 0 298.64938840 0 11560.06072691 0 3065.86030833 0 2853.42668436 0 3055
0.05350000 0.05348950 35728.73134105 0 505.17814155 0 13520.08366630 0 115.60282173 0 178.12491829 0 3009
0.05450000 0.05448610 34635.11781871 0 1827.48721132 0 11314.58728568 0 -1875.33072686 0 -106.73942572 0 3336
0.05550000 0.05550870 33445.72868669 0 889.16304456 0 9441.85855515 0 -535.82965834 0 -1561.61854777 0 3349
0.05650000 0.05647670 32649.96070198 0 -414.93205088 0 9619.25934340 0 -680.51837014 0 -313.62802942 0 3324
0.05750000 0.05747970 33778.67349399 0 -316.12705313 0 9554.34230298 0 3256.21571662 0 -3754.21566998 0 3639
0.05850000 0.05849280 33375.19797760 0 834.25649302 0 10461.32071818 0 538.90333571 0 -2890.71827435 0 3846
0.05950000 0.05951020 32341.59645578 0 1293.94509528 0 7510.77867283 0 -172.36620215 0 -4621.31157118 0 3787
0.06050000 0.06049470 30965.74937381 0 889.22062065 0 8922.56652116 0 95.15478443 0 -3210.33200257 0 3930
0.06150000 0.06148310 30949.03016334 0 453.92102827 0 7665.14902545 0 -0.02940178 0 -1930.33803656 0 4083
0.06250000 0.06249100 30703.44599886 0 -751.12215658 0 8349.56263947 0 75.85594372 0 -2801.24281749 0 4303
0.06350000 0.06350600 31694.64051662 0 -153.85216782 0 5730.81387963 0 1215.55303557 0 -4812.25381268 0 4470
0.06450000 0.06451750 31356.93460965 0 -438.38212761 0 5812.36155192 0 903.03556033 0 -5252.16835005 0 4479
0.06550000 0.06550280 32089.47961966 0 590.77274856 0 5454.62580936 0 -944.69075353 0 -6101.71461641 0 4636
0.06650000 0.06648880 31233.36746468 0 381.00423317 0 5754.57508870 0 -65.13018266 0 -5086.86961283 0 4653
0.06750000 0.06749660 30545.77609344 0 1313.66490578 0 6858.85125983 0 -243.93106638 0 -4489.66162909 0 5220
0.06850000 0.06852730 29471.76058603 0 1403.70505121 0 5961.74935838 0 81.94572237 0 -2065.11037425 0 5029
0.06950000 0.06949320 28750.62007059 0 937.07520852 0 7786.63457336 0 1039.99468217 0 -1485.41880837 0 5040
0.07050000 0.07048030 27686.12676253 0 978.03063079 0 7143.43215232 0 920.07586822 0 882.13765446 0 5475
0.07150000 0.07148790 27799.50736867 0 626.27726532 0 9136.78278942 0 858.00662975 0 -258.83552282 0 5509
0.07250000 0.07249820 27079.80625546 0 56.61135740 0 8234.80906505 0 -1205.07861629 0 1350.07070979 0 5916
0.07350000 0.07351270 27021.78727341 0 605.77907039 0 10055.73038775 0 -656.17807849 0 856.43325240 0 5721
0.07450000 0.07449140 27122.65615251 0 231.90319993 0 8879.11871857 0 -445.95006163 0 -324.68153128 0 6028
0.07550000 0.07549160 26040.89001773 0 700.90473460 0 9947.22160452 0 -17.19509900 0 108.08272016 0 6183
0.07650000 0.07648840 25938.36028991 0 868.03704881 0 9743.91157620 0 551.63983095 0 -506.73933935 0 6330
0.07750000 0.07749960 25558.46882538 0 -160.39923349 0 9587.34890327 0 973.47436913 0 -483.55167671 0 6583
0.07850000 0.07848650 25065.86109420 0 299.34030147 0 9730.43655690 0 935.79635500 0 301.38757433 0 6549
0.07950000 0.07947320 25048.69899073 0 534.09573228 0 9822.84617984 0 536.81066632 0 -150.38653015 0 6828
0.08050000 0.08048110 24944.06552119 0 329.04181280 0 10524.74299474 0 -721.87350334 0 1910.44106886 0 7147
0.08150000 0.08149960 24495.19347304 0 732.42875059 0 11403.49805397 0 -1069.09828796 0 1482.87217366 0 7386
0.08250000 0.08250610 24278.50807634 0 753.36098066 0 11600.80688224 0 496.65577314 0 3542.81177222 0 7227
0.08350000 0.08350160 23817.23502440 0 102.59416875 0 12845.44691510 0 459.86022330 0 2370.56259902 0 7798
0.08450000 0.08449610 24070.79126274 0 504.96776738 0 12287.51246749 0 574.90610709 0 2526.37235387 0 7371
0.08550000 0.08548940 23275.35544777 0 758.61590602 0 12516.70959124 0 1231.44182168 0 4506.39191189 0 8256
0.08650000 0.08650700 22547.90370719 0 559.31627375 0 11691.59994575 0 1801.99871959 0 4359.55074014 0 8037
0.08750000 0.08749060 22379.49364670 0 -42.90968760 0 11608.00389337 0 1531.03678662 0 4457.55188711 0 8155
0.08850000 0.08849210 22077.66207214 0 193.74907584 0 10871.24032761 0 1019.45994856 0 1941.73145880 0 8718
0.08950000 0.08949900 21630.67231921 0 1377.03182072 0 10161.60395766 0 -202.56375363 0 3780.92211745 0 8571
0.09050000 0.09049190 20251.61426305 0 1182.83431573 0 10045.27811312 0 -663.84455620 0 2419.18117730 0 8932
0.09150000 0.09150830 19738.96562395 0 738.91270400 0 9619.73545336 0 498.02763418 0 3815.50098786 0 9285
0.09250000 0.09250820 19089.13088034 0 -68.74540744 0 9860.09348053 0 609.96994533 0 1043.14586581 0 9204
0.09350000 0.09350330 18821.40206622 0 216.51709736 0 8578.16185767 0 1540.93544501 0 525.12714917 0 9349
0.09450000 0.09448040 18954.71285704 0 -328.69746350 0 7487.36070584 0 1638.44940969 0 901.14883618 0 9564
0.09550000 0.09549270 18814.20505509 0 -259.78442106 0 6939.05918082 0 1414.00231329 0 -247.56721785 0 10155
0.09650000 0.09649430 18818.30181527 0 71.13260067 0 6555.00452216 0 571.63423511 0 1659.30966965 0 9913
0.09750000 0.09749140 18679.45486205 0 450.59711635 0 6037.37333689 0 1334.45873179 0 930.43513532 0 10476
0.09850000 0.09850240 18327.90854906 0 454.51782657 0 5526.09766606 0 356.10921805 0 1896.43457796 0 10575
0.09950000 0.09950330 18243.86960368 0 146.34513159 0 6005.68434326 0 448.42804792 0 1766.24618275 0 10882
0.10050000 0.10051200 17526.60440193 0 416.38031097 0 6183.90448354 0 -551.51803538 0 1790.08489808 0 10875
0.10150000 0.10150300 17664.34412268 0 699.65466913 0 6625.23627849 0 -399.31232226 0 2152.32707685 0 11118
0.10250000 0.10250800 17094.11939452 0 592.75912363 0 6401.63067877 0 -282.91007867 0 2439.47674869 0 11575
0.10350000 0.10349800 16668.72067498 0 296.59325768 0 6206.20414572 0 -62.56848959 0 2523.44926012 0 11364
0.10450000 0.10450100 16828.05142912 0 -334.77395536 0 5989.38588112 0 1026.35357799 0 1822.00641053 0 12093
0.10550000 0.10551000 16716.66384145 0 87.69403052 0 6018.74968654 0 367.25351298 0 1474.19147100 0 12067
0.10650000 0.10649700 16841.00604916 0 213.93835291 0 5418.49681348 0 280.67789799 0 700.33450987 0 12054
0.10750000 0.10749900 16533.19541920 0 97.97800581 0 5774.35026082 0 -369.73260651 0 1444.57300211 0 12807
0.10850000 0.10850100 16213.75884818 0 104.17119998 0 5601.47805343 0 470.24495675 0 1606.58325886 0 12736
0.10950000 0.10950300 16532.97397271 0 45.76280426 0 5916.88429821 0 265.53870827 0 1123.46451005 0 12933
0.11050000 0.11050200 16089.97025671 0 -23.12089652 0 5471.56646633 0 704.32940467 0 850.02016186 0 13428
0.11150000 0.11150900 16053.87447780 0 326.79745256 0 5106.19081964 0 893.95403951 0 -8.30539514 0 13453
0.11250000 0.11250000 15626.59346305 0 576.20489079 0 4510.36687650 0 373.31007466 0 360.68762436 0 13668
0.11350000 0.11349100 15003.33229901 0 637.13146534 0 4120.85356170 0 128.80214015 0 205.52006435 0 13791
0.11450000 0.11448600 14675.70220763 0 415.69271960 0 3774.05727606 0 655.22364410 0 705.33698622 0 14205
0.11550000 0.11549300 14379.62824198 0 -92.80844808 0 3505.16586784 0 125.21581414 0 641.96232066 0 14776
0.11650000 0.11649800 14769.37407559 0 -254.56271267 0 3577.12490684 0 188.38785616 0 21.99351240 0 14553
0.11750000 0.11747300 14765.60948515 0 83.55032368 0 4006.37679540 0 -184.23351989 0 350.22649187 0 14568
0.11850000 0.11849100 14725.63839256 0 447.80024711 0 4096.59409803 0 -904.11954093 0 262.58350477 0 16015
0.11950000 0.11950300 14175.56529557 0 591.10491830 0 4074.85912441 0 -226.40689789 0 873.89763033 0 15270
0.12050000 0.12050700 14085.43657154 0 274.95572052 0 4568.97269176 0 403.14888281 0 694.52375381 0 15999
0.12150000 0.12150000 13461.73251451 0 94.49509532 0 3718.45206082 0 826.00207487 0 279.98144876 0 15670
0.12250000 0.12250700 13800.87782371 0 69.04878914 0 3744.95920644 0 833.48696644 0 -106.62737379 0 16887
0.12350000 0.12352200 13308.38081577 0 158.16262387 0 2973.83821677 0 446.28112414 0 762.11586789 0 16407
0.12450000 0.12449800 13304.83767183 0 148.76222010 0 3251.91965459 0 447.57437168 0 193.58741990 0 16306
0.12550000 0.12549900 13106.64305758 0 89.53557958 0 2922.03080894 0 -73.11211090 0 642.87800192 0 17523
0.12650000 0.12650100 13268.85261617 0 334.03100236 0 3454.23317367 0 -72.47013751 0 735.32305630 0 17154
0.12750000 0.12750600 12976.54324096 0 117.31017422 0 3610.19794107 0 -342.31199409 0 1319.41144236 0 18007
0.12850000 0.12850300 13138.97424605 0 -108.20617659 0 3935.44748262 0 96.30375958 0 1905.09313597 0 17496
0.12950000 0.12949900 13097.78519772 0 121.76346326 0 4051.20863860 0 469.41231792 0 1733.61604151 0 18405
0.13050000 0.13049000 12958.82752125 0 188.65469919 0 4113.92228637 0 195.59261792 0 1736.93773895 0 18100
0.13150000 0.13148800 12812.00849415 0 158.21134210 0 3752.42195336 0 319.38231663 0 1352.81664634 0 19059
0.13250000 0.13249300 12612.59592417 0 226.59955634 0 3591.34177190 0 107.10503388 0 1860.67096880 0 18957
0.13350000 0.13349100 12398.78933192 0 236.41074337 0 3712.30692055 0 -217.60439966 0 1441.58347441 0 19468
0.13450000 0.13450700 12170.81016390 0 188.82742746 0 3652.74888535 0 97.88654841 0 1359.67041540 0 19953
0.13550000 0.13551000 12247.54137490 0 175.74547568 0 3956.50704442 0 42.61516376 0 1258.01540124 0 19956
0.13650000 0.13649900 11946.48486308 0 213.93060229 0 3752.39980871 0 -104.14650869 0 1600.64849276 0 19723
0.13750000 0.13749600 11908.83895870 0 199.22876939 0 3929.56807814 0 232.79673654 0 1356.17156076 0 20946
0.13850000 0.13851100 11761.46631536 0 149.58600107 0 3851.59676676 0 -307.78405638 0 940.74125526 0 20955
0.13950000 0.13949800 11537.91607727 0 148.98698829 0 3827.04942264 0 130.17732289 0 1054.91353263 0 20506
0.14050000 0.14048300 11603.46424020 0 25.45261740 0 3580.54625520 0 -139.63308829 0 943.54698237 0 21447
0.14150000 0.14148400 11587.52009246 0 118.49159128 0 3876.47628063 0 73.58323832 0 1274.12563386 0 21771
0.14250000 0.14249400 11464.83873347 0 112.98975308 0 3690.39478973 0 -2.16283471 0 377.42787226 0 22470
0.14350000 0.14350900 11211.06104862 0 333.05885224 0 3623.23006738 0 156.03341581 0 570.59454381 0 22519
0.14450000 0.14449900 10967.56955354 0 365.82296861 0 3693.87149972 0 99.04028465 0 169.18069430 0 22218
0.14550000 0.14550500 10714.02438751 0 171.33315424 0 3331.83969513 0 404.52960171 0 470.53172996 0 23559
0.14650000 0.14650700 10573.68267044 0 -101.09276151 0 3015.92412340 0 698.81427967 0 856.36349675 0 23044
0.14750000 0.14750500 10895.24512782 0 -271.97615792 0 2669.14998241 0 888.32597681 0 422.93291280 0 23649
0.14850000 0.14849900 10840.80250669 0 -134.16778876 0 2151.13126577 0 599.57081786 0 686.85395441 0 23640
0.14950000 0.14949500 10940.71916585 0 228.88709865 0 2147.90921924 0 -104.61497875 0 293.62033847 0 24457
0.15050000 0.15050000 10627.10663769 0 306.10106301 0 2096.66649998 0 -435.44463984 0 38.33327431 0 24591
0.15150000 0.15149900 10202.90372924 0 621.93359230 0 2463.40404263 0 -552.24770158 0 110.89265476 0 25020
0.15250000 0.15250500 9888.59364461 0 509.19185929 0 2576.43033438 0 -415.54767214 0 290.51455136 0 25297
0.15350000 0.15350100 9606.27150638 0 156.18178496 0 2824.99295423 0 25.92861664 0 212.27418249 0 25452
0.15450000 0.15450400 9532.98378841 0 -160.64614633 0 2756.59920382 0 210.35645583 0 -199.24869958 0 26061
0.15550000 0.15549900 9701.01738986 0 -37.27830320 0 2895.85583307 0 196.85486295 0 -727.45727675 0 26128
0.15650000 0.15649500 9587.33783094 0 202.28362381 0 2823.83036012 0 25.44918498 0 -81.01487202 0 26331
0.15750000 0.15749700 9354.50898466 0 250.72836659 0 2887.91697617 0 -132.21241619 0 118.32439917 0 27345
0.15850000 0.15849900 9194.02670874 0 239.37812642 0 2942.19351243 0 -148.30161139 0 331.89293644 0 26980
0.15950000 0.15949700 9129.55256132 0 177.05976064 0 3342.15910186 0 63.55060481 0 172.10157359 0 27777
0.16050000 0.16050000 9002.25404288 0 185.51237341 0 3127.58851920 0 146.57211425 0 457.74983819 0 28224
0.16150000 0.16150500 8960.48923366 0 -28.66813125 0 3206.78885863 0 377.87962311 0 606.52866678 0 28075
0.16250000 0.16249700 8941.07944825 0 -19.98244605 0 2747.20987238 0 174.03812320 0 723.61960897 0 28590
0.16350000 0.16349900 8888.55233931 0 87.67598263 0 2799.55982412 0 477.79406781 0 411.93698702 0 29163
0.16450000 0.16449100 8950.49092435 0 91.41687829 0 2464.14588839 0 335.54458916 0 778.54609069 0 28996
0.16550000 0.16550500 8693.41368671 0 65.62710860 0 2353.98732877 0 255.25473297 0 604.35959834 0 30777
0.16650000 0.16650700 8774.92814203 0 151.04311901 0 2234.62766722 0 90.28572959 0 358.78207726 0 29211
0.16750000 0.16749900 8587.91657584 0 90.17987816 0 2289.50210903 0 -55.93251316 0 506.08385772 0 30922
0.16850000 0.16850800 8510.53209768 0 246.23189548 0 2258.67675673 0 -126.69175504 0 774.86786439 0 30867
0.16950000 0.16949900 8448.33884917 0 29.34132860 0 2270.61272288 0 39.04511407 0 654.36996785 0 30852
0.17050000 0.17049200 8370.46718873 0 16.28550751 0 2374.26075551 0 -41.96388962 0 366.24703865 0 31257
0.17150000 0.17149500 8291.98655041 0 172.81684577 0 2392.20899404 0 -15.54421537 0 603.88127391 0 32608
0.17250000 0.17250900 8274.65836207 0 -7.55325211 0 2286.34649645 0 120.40821071 0 357.12233577 0 32361
0.17350000 0.17350400 8263.04349333 0 -80.18865514 0 2270.16982989 0 159.29532270 0 482.95266394 0 32508
0.17450000 0.17449800 8326.69828872 0 -6.01505153 0 2126.60606629 0 173.17669633 0 174.68585420 0 32791
0.17550000 0.17549800 8276.33028312 0 141.01712889 0 2047.82647521 0 5.48556188 0 -128.85860901 0 33633
0.17650000 0.17650100 8101.69757608 0 331.92283172 0 2013.70157012 0 -191.55675552 0 -100.20365382 0 33984
0.17750000 0.17750300 7935.52412520 0 300.75091565 0 2054.03804943 0 -153.38270125 0 -51.30926393 0 34069
0.17850000 0.17849800 7659.01495750 0 182.67896549 0 2167.59581277 0 -128.07247394 0 -6.79154260 0 34536
