### header ###
fiducial parameters:
Omega_m = 0.31
Omega_nu = 0
Omega_de = 0.69
Omega_k = 0
H_0 = 100
w_de = -1
zeff = 0
beta = 0
fgrowth = 0
b_1 = 2
gamma = 0.55
Lx = 3500 Ly = 3500 Lz = 3500
nx = 700 ny = 700 nz = 700
xoffset = -685.467585 yoffset = -31.7331281 zoffset = 572.489161
bins = 400 dk = 0.001
kx_ny = 0.628318531 ky_ny = 0.628318531 kz_ny = 0.628318531
############################
A(data) = 8.04466715 (not used)
A(ran) = 8.04356056 (used)
Ngal = 478513
weighted Ngal = 0
Nran = 23820508
weighted Nran = 0
SN(data) = 3488.70031
SN(ran) = 70.0623296
SN(data+ran) = 3558.76263
############################
13 columns: k_central k_mean P_0(k) sigma^{lin}_{P_0(k)} P^img_1(k) sigma^{lin}_{P_1(k)} P_2(k) sigma^{lin}_{P_2(k)} P^img_3(k) sigma^{lin}_{P_3(k)} P_4(k) sigma^{lin}_{P_4(k)} N_modes
### header ###
0.00050000 0 0 0 0 0 0 0 0 0 0 0 0
0.00150000 0.00179520 62669.57992003 0 -101993.49512970 0 -71959.70333587 0 24178.85715297 0 43371.40354712 0 3
0.00250000 0.00253879 90351.49919913 0 -67288.84311113 0 -29539.19104418 0 -35391.35760382 0 72134.97823775 0 6
0.00350000 0.00331552 128460.00531345 0 -38058.01631315 0 -34016.50703109 0 -96453.90029968 0 -42057.67220739 0 7
0.00450000 0.00420575 128099.04752436 0 300.12754377 0 -25999.47952290 0 -86632.52673905 0 42195.52265138 0 24
0.00550000 0.00557378 94756.51290498 0 38777.49597986 0 -22743.44096349 0 -46324.72474600 0 44941.01631341 0 45
0.00650000 0.00659388 66229.66451897 0 3774.37837348 0 -5341.61058993 0 682.46267038 0 -2187.12739375 0 40
0.00750000 0.00754703 64989.23196954 0 5389.40981618 0 -11768.99549624 0 -10121.34498462 0 -5785.34507937 0 57
0.00850000 0.00846663 69038.60260222 0 668.16165565 0 5599.95007260 0 -32686.27792738 0 -25023.45409014 0 75
0.00950000 0.00948925 58560.75090308 0 4466.54261487 0 1424.81997464 0 -28319.13157241 0 -2381.01487365 0 112
0.01050000 0.01054430 76324.63522588 0 2570.73915942 0 43986.36046755 0 -15087.70341413 0 24011.44360172 0 105
0.01150000 0.01145670 63989.95465466 0 -3027.25111169 0 49081.29073285 0 9577.02949654 0 8055.96887458 0 144
0.01250000 0.01249090 80835.16818725 0 -7045.84068137 0 48009.71113690 0 35544.04496307 0 9115.42427485 0 169
0.01350000 0.01339930 79354.68763575 0 -2119.07688542 0 51077.63089765 0 18922.38166857 0 2595.00969542 0 180
0.01450000 0.01448870 82052.01668482 0 5911.93496902 0 47202.76010412 0 8075.84369763 0 3650.29082924 0 267
0.01550000 0.01550050 83663.70428542 0 12427.02376021 0 58341.85104142 0 3022.43465040 0 32425.63540115 0 238
0.01650000 0.01653350 73280.63168674 0 8497.96500901 0 52192.50328364 0 1420.70106981 0 28523.30524207 0 315
0.01750000 0.01747870 70638.33209201 0 460.53120618 0 59166.84996366 0 24477.92064633 0 31195.72156030 0 297
0.01850000 0.01844180 70251.24361635 0 -2801.76321676 0 50807.24472558 0 28856.25004936 0 10887.41699417 0 388
0.01950000 0.01947590 73558.65776293 0 238.57095394 0 48498.88644739 0 32133.65819568 0 15157.56978373 0 399
0.02050000 0.02045430 70061.90686196 0 5128.61227740 0 39034.81680865 0 15112.06252873 0 15985.66895692 0 462
0.02150000 0.02154770 66351.79226172 0 2436.69759516 0 31816.54681288 0 3448.27626292 0 29037.83617639 0 571
0.02250000 0.02255340 64396.75186850 0 2248.09161420 0 30950.02667257 0 6583.59326484 0 28025.27207172 0 510
0.02350000 0.02348930 63574.41030421 0 2149.03859638 0 30718.94725360 0 -1604.01447950 0 19265.95590769 0 555
0.02450000 0.02439640 67154.86798082 0 -53.15568482 0 43662.38424335 0 5611.79746016 0 27256.07766657 0 592
0.02550000 0.02547300 68307.38627119 0 -6521.57717353 0 32384.66779932 0 5581.41500086 0 5738.87453210 0 837
0.02650000 0.02652900 67973.77712441 0 197.44501786 0 32352.33661085 0 142.67465592 0 8365.57322116 0 723
0.02750000 0.02749970 73985.71733119 0 5961.93758790 0 31020.88955141 0 272.03041231 0 -7027.44954985 0 826
0.02850000 0.02848090 67019.78561803 0 -837.24602072 0 25499.78550384 0 10484.27364753 0 4342.48828760 0 831
0.02950000 0.02946900 65841.46881083 0 -1094.41737312 0 22992.90044165 0 4304.04517583 0 -4966.71274390 0 996
0.03050000 0.03053250 69589.89365494 0 4449.66839184 0 22588.87130902 0 7587.98599379 0 -7153.95086090 0 1041
0.03150000 0.03150510 59547.62721417 0 2490.78590190 0 16223.83466377 0 7055.87220766 0 1394.93576995 0 1036
0.03250000 0.03246190 57463.37279031 0 7989.45741939 0 10124.52274185 0 6775.27735210 0 5020.46888089 0 1059
0.03350000 0.03345080 53798.32255209 0 -1622.41668335 0 6462.42881435 0 6575.99765002 0 -1028.09968362 0 1302
0.03450000 0.03451200 52891.94204243 0 424.79749229 0 11324.10948502 0 5823.10170700 0 -5015.74099820 0 1339
0.03550000 0.03553350 51208.94867000 0 2615.06167567 0 5656.71788195 0 -6214.76305281 0 -1305.49353007 0 1365
0.03650000 0.03647120 51278.81503960 0 1747.68896635 0 13658.15555679 0 -4863.83977401 0 3439.77271746 0 1308
0.03750000 0.03744890 50965.02535424 0 2140.81185904 0 11161.12486369 0 -2602.04062168 0 -1193.98414682 0 1579
0.03850000 0.03847530 48803.04321015 0 818.78845525 0 12055.43653929 0 1344.99958502 0 4067.92784907 0 1662
0.03950000 0.03950240 47444.80112465 0 1490.57851174 0 10952.73263828 0 4183.42326925 0 2543.63410826 0 1683
0.04050000 0.04050350 46293.72223650 0 1487.89900913 0 9414.84208259 0 5880.07989052 0 -577.85355996 0 1822
0.04150000 0.04152450 43226.57753849 0 1388.31451971 0 7462.69156614 0 2403.50276536 0 -3159.62075490 0 1887
0.04250000 0.04250150 43234.10671937 0 2663.07127608 0 6563.76273109 0 517.10635708 0 -2861.22160104 0 1920
0.04350000 0.04349210 40051.92056649 0 2226.20162804 0 7708.59682804 0 -5291.16507806 0 -1328.91149706 0 2005
0.04450000 0.04448520 40083.14452248 0 1915.64506152 0 7443.73574605 0 -2101.68226313 0 1949.91390684 0 2151
0.04550000 0.04548030 38756.79073245 0 336.50898866 0 10169.25493411 0 -2463.48154890 0 603.19589701 0 2274
0.04650000 0.04648670 39387.80252387 0 -73.39999135 0 11865.32472216 0 3507.38033280 0 1553.48038903 0 2311
0.04750000 0.04749250 38325.52368077 0 164.85362976 0 12058.31534375 0 221.10768323 0 -2695.20316271 0 2568
0.04850000 0.04851840 38920.10752353 0 993.28386546 0 11170.53633979 0 1542.82881255 0 -1844.90397826 0 2493
0.04950000 0.04949480 37782.31542516 0 540.28184015 0 13346.35888990 0 -1819.70336697 0 -401.95417896 0 2644
0.05050000 0.05050630 37842.43814893 0 947.70685481 0 14311.31199784 0 -2094.21951620 0 -399.24367385 0 2829
0.05150000 0.05149060 35885.18329074 0 929.80179834 0 13860.66837773 0 -1298.35188056 0 1621.97379036 0 2784
0.05250000 0.05249300 37564.63351923 0 33.40033215 0 15059.24753934 0 2435.24712061 0 -2141.59799410 0 3055
0.05350000 0.05348950 36053.48262798 0 -660.00245949 0 12804.36859003 0 223.58788399 0 -3007.69738606 0 3009
0.05450000 0.05448610 37058.07465878 0 6.36598887 0 14552.68867889 0 361.69852762 0 -2667.23447021 0 3336
0.05550000 0.05550870 36509.77313376 0 1066.37117435 0 16624.76354545 0 -257.78918813 0 -1170.27829938 0 3349
0.05650000 0.05647670 36411.22944287 0 963.83591037 0 15211.15983586 0 -596.98321555 0 -95.82864612 0 3324
0.05750000 0.05747970 35625.98016673 0 766.82492764 0 16010.36024127 0 98.22115406 0 -1370.36628118 0 3639
0.05850000 0.05849280 34936.39577703 0 675.27008818 0 15965.18515601 0 777.32038434 0 1293.33611742 0 3846
0.05950000 0.05951020 34375.91469471 0 1459.57600224 0 14596.09219218 0 2597.75563198 0 318.73237116 0 3787
0.06050000 0.06049470 33547.48335178 0 210.12836594 0 12464.11604835 0 968.94468104 0 1858.53401011 0 3930
0.06150000 0.06148310 33664.07493212 0 -447.42710976 0 12491.46469065 0 2297.64026777 0 385.81183661 0 4083
0.06250000 0.06249100 34410.34962489 0 -465.76066519 0 12252.96681406 0 1671.74389042 0 764.91716607 0 4303
0.06350000 0.06350600 33824.95581173 0 -85.08483718 0 12273.22916848 0 323.15576492 0 -1167.59879678 0 4470
0.06450000 0.06451750 33423.14114406 0 1365.01834829 0 11196.55630311 0 789.79778717 0 136.54390966 0 4479
0.06550000 0.06550280 32227.21934040 0 1639.13589383 0 9300.05529120 0 1710.96206493 0 -400.05859695 0 4636
0.06650000 0.06648880 31558.34019811 0 -67.90955764 0 11328.09552196 0 490.86716172 0 6.50995123 0 4653
0.06750000 0.06749660 30917.36331435 0 996.77718394 0 10767.22690827 0 951.91765994 0 -3016.80990939 0 5220
0.06850000 0.06852730 29407.31965559 0 1475.38728208 0 10878.58127897 0 -1621.77448851 0 -3388.05388823 0 5029
0.06950000 0.06949320 28336.07222938 0 1097.89186865 0 10122.00932411 0 -866.78919780 0 -810.11661045 0 5040
0.07050000 0.07048030 27973.12142183 0 634.65126458 0 11009.09077161 0 -815.80889264 0 -2403.63563326 0 5475
0.07150000 0.07148790 27856.19767174 0 213.03817291 0 11594.60638034 0 191.71730423 0 -1904.71667693 0 5509
0.07250000 0.07249820 28069.45064775 0 150.61794174 0 12397.68209944 0 190.46280983 0 -1733.36137803 0 5916
0.07350000 0.07351270 27443.08923276 0 844.51721643 0 11533.59787059 0 894.45450859 0 -1883.81212767 0 5721
0.07450000 0.07449140 26877.73632752 0 944.16038917 0 10852.63882192 0 1664.94548298 0 -12.14523309 0 6028
0.07550000 0.07549160 26036.68253430 0 358.69792759 0 10257.71173709 0 2500.27488427 0 -1969.58942804 0 6183
0.07650000 0.07648840 25304.35897079 0 320.78850188 0 8749.56144587 0 915.39116759 0 -779.33554745 0 6330
0.07750000 0.07749960 25426.04382055 0 334.54807993 0 9168.47178305 0 881.74790863 0 -3154.73785965 0 6583
0.07850000 0.07848650 24676.44743032 0 381.55452772 0 8688.98475678 0 -641.32566198 0 -1803.43812181 0 6549
0.07950000 0.07947320 24455.77599669 0 678.99703271 0 8784.87108971 0 -985.84104872 0 -1702.41423017 0 6828
0.08050000 0.08048110 24067.69101180 0 356.36609599 0 9134.28044401 0 -45.57900367 0 -734.57788884 0 7147
0.08150000 0.08149960 23888.31934973 0 515.19970274 0 10136.90160099 0 1071.71578554 0 -433.12609502 0 7386
0.08250000 0.08250610 23843.14426447 0 458.01668122 0 9531.24543341 0 746.32008931 0 -281.07539445 0 7227
0.08350000 0.08350160 23264.06167646 0 122.47319928 0 9546.30379517 0 1292.56105468 0 1375.19381480 0 7798
0.08450000 0.08449610 23348.87568457 0 190.22143315 0 8799.92945147 0 575.44422208 0 -369.55766377 0 7371
0.08550000 0.08548940 22764.58910389 0 -226.81768114 0 8753.75785697 0 815.69484769 0 880.63071106 0 8256
0.08650000 0.08650700 22805.99959871 0 910.07866614 0 8795.34550899 0 446.08625122 0 -683.75591792 0 8037
0.08750000 0.08749060 22158.04715032 0 1091.97149657 0 8574.72943698 0 -283.90990960 0 38.44255815 0 8155
0.08850000 0.08849210 20983.05204057 0 395.39161204 0 8777.05402839 0 7.70722386 0 614.90155880 0 8718
0.08950000 0.08949900 20958.91437246 0 546.16456633 0 8243.96587767 0 724.65487134 0 2122.43179984 0 8571
0.09050000 0.09049190 20765.92375087 0 140.47347774 0 8340.73799659 0 1706.68814755 0 1564.85166662 0 8932
0.09150000 0.09150830 20465.64230179 0 -78.06974434 0 7682.51043077 0 1181.85995114 0 936.89583685 0 9285
0.09250000 0.09250820 20434.41834580 0 397.68469051 0 7588.60604398 0 517.20490077 0 1993.25098618 0 9204
0.09350000 0.09350330 20218.72945834 0 359.98121004 0 6978.67595902 0 84.95363013 0 1156.54861661 0 9349
0.09450000 0.09448040 19628.90671525 0 347.86033606 0 6593.24833208 0 -97.20128222 0 2406.75802885 0 9564
0.09550000 0.09549270 19670.98154956 0 370.62614312 0 6170.46268121 0 898.84689985 0 1135.88765850 0 10155
0.09650000 0.09649430 18953.05200832 0 186.30736633 0 6467.53315609 0 683.84117482 0 1545.53045981 0 9913
0.09750000 0.09749140 19130.87354491 0 206.97275337 0 5897.91740580 0 795.45906685 0 575.44865101 0 10476
0.09850000 0.09850240 18653.43489873 0 207.56401552 0 6119.69607192 0 54.62763968 0 761.75158841 0 10575
0.09950000 0.09950330 18347.39584074 0 621.26039495 0 6603.62310044 0 1.31434032 0 254.42541585 0 10882
0.10050000 0.10051200 17414.99536776 0 597.71841792 0 6492.97735853 0 -396.96056047 0 1299.56983629 0 10875
0.10150000 0.10150300 17430.82879225 0 757.64597037 0 6617.77353156 0 14.36722724 0 693.89152406 0 11118
0.10250000 0.10250800 17050.16226499 0 238.89980198 0 6327.52360876 0 800.15373258 0 1584.40539225 0 11575
0.10350000 0.10349800 16509.83281384 0 161.59615180 0 6012.62669092 0 483.23057929 0 1595.32270452 0 11364
0.10450000 0.10450100 16879.20556979 0 -39.11741635 0 6074.77565013 0 716.90092227 0 1440.96342422 0 12093
0.10550000 0.10551000 16509.94353708 0 134.65939998 0 5668.32167836 0 519.43708145 0 1990.08430128 0 12067
0.10650000 0.10649700 16558.55104304 0 609.67874319 0 6070.24706928 0 -459.34203850 0 1732.67489390 0 12054
0.10750000 0.10749900 15866.75218837 0 602.76407634 0 5894.61785300 0 132.06183258 0 1949.55959244 0 12807
0.10850000 0.10850100 15253.67756316 0 651.43026561 0 6228.06091492 0 -147.23423928 0 2594.48929615 0 12736
0.10950000 0.10950300 15163.54883914 0 162.43321955 0 5892.79091941 0 526.23327442 0 1998.39961722 0 12933
0.11050000 0.11050200 14948.30284466 0 -124.11079612 0 5345.93986894 0 720.98439566 0 1087.57910531 0 13428
0.11150000 0.11150900 14803.03394304 0 76.40347018 0 5134.80170697 0 240.70016200 0 662.63545833 0 13453
0.11250000 0.11250000 14820.52821625 0 200.85750837 0 5041.22948993 0 -87.83730640 0 556.48286583 0 13668
0.11350000 0.11349100 14755.97656256 0 153.34284088 0 4993.85101203 0 -276.58556674 0 474.42918829 0 13791
0.11450000 0.11448600 14606.83234725 0 248.61908871 0 5424.21013308 0 152.37179799 0 1213.85896987 0 14205
0.11550000 0.11549300 14699.17553624 0 -161.82534892 0 5420.41232567 0 119.92324288 0 837.83506840 0 14776
0.11650000 0.11649800 14631.41290835 0 -109.51437176 0 5626.97761749 0 971.33741044 0 1361.13196228 0 14553
0.11750000 0.11747300 14854.63097670 0 39.34661348 0 5461.92247141 0 477.36335437 0 1350.70183230 0 14568
0.11850000 0.11849100 14797.60850388 0 206.52543145 0 5301.15231505 0 712.46202725 0 1171.66233998 0 16015
0.11950000 0.11950300 14353.27610891 0 285.21865840 0 4728.40309683 0 443.02918234 0 2127.72437110 0 15270
0.12050000 0.12050700 14031.40362643 0 179.79019594 0 3711.63150873 0 543.86373723 0 1050.68611902 0 15999
0.12150000 0.12150000 14114.33533932 0 90.08078086 0 3442.57401564 0 25.27579237 0 1188.96838368 0 15670
0.12250000 0.12250700 14014.68441595 0 -80.95773882 0 3539.77795522 0 146.51564540 0 29.43223239 0 16887
0.12350000 0.12352200 13897.20704963 0 108.05448574 0 3466.22450145 0 82.02865408 0 533.97393670 0 16407
0.12450000 0.12449800 13722.15359424 0 281.10307526 0 3156.22155118 0 -17.13719074 0 578.54336580 0 16306
0.12550000 0.12549900 13568.69117226 0 190.25797182 0 3208.78187709 0 117.15294721 0 78.34688463 0 17523
0.12650000 0.12650100 13282.91446869 0 477.77524485 0 3485.16924922 0 -55.66124120 0 -56.66627613 0 17154
0.12750000 0.12750600 12947.64447318 0 507.75467153 0 3798.59354786 0 -529.74652309 0 -250.17585758 0 18007
0.12850000 0.12850300 12508.95896387 0 543.43966719 0 3853.41262803 0 -661.06650990 0 -23.58748428 0 17496
0.12950000 0.12949900 12345.08855655 0 223.03426775 0 3869.99897061 0 -760.91894958 0 -567.53083153 0 18405
0.13050000 0.13049000 12179.55730051 0 7.36358319 0 3987.37668602 0 76.29927960 0 56.29634975 0 18100
0.13150000 0.13148800 12450.82925857 0 -380.38418298 0 4076.39817756 0 487.18672095 0 -759.50944263 0 19059
0.13250000 0.13249300 12622.11812351 0 -212.00623223 0 4187.29858294 0 756.75354099 0 -533.57533301 0 18957
0.13350000 0.13349100 12729.96256725 0 240.49200229 0 3848.85083021 0 227.84187119 0 -536.05885547 0 19468
0.13450000 0.13450700 12344.42421706 0 478.31889600 0 3885.77703348 0 57.63045417 0 332.52516619 0 19953
0.13550000 0.13551000 11944.38112136 0 389.88755937 0 3672.07009216 0 159.59206101 0 761.90992265 0 19956
0.13650000 0.13649900 11822.69627161 0 48.40698615 0 3850.67776380 0 398.10765332 0 1104.72460029 0 19723
0.13750000 0.13749600 11817.38155569 0 78.20881274 0 3835.34259393 0 409.33499069 0 1112.92365682 0 20946
0.13850000 0.13851100 11644.87473502 0 198.45370665 0 3665.63707144 0 107.64879575 0 536.41095540 0 20955
0.13950000 0.13949800 11470.59634237 0 109.69595789 0 3660.27806622 0 -63.70439940 0 946.51547266 0 20506
0.14050000 0.14048300 11354.66910152 0 149.91152742 0 3507.26960955 0 210.07411155 0 721.86575271 0 21447
0.14150000 0.14148400 11349.02221586 0 -56.84409766 0 3707.68976110 0 -24.50737303 0 1002.65215949 0 21771
0.14250000 0.14249400 11443.02625357 0 12.81986984 0 3699.26372191 0 395.12476901 0 481.50661832 0 22470
0.14350000 0.14350900 11219.69746198 0 283.68181971 0 3710.86751832 0 100.91471852 0 906.00737231 0 22519
0.14450000 0.14449900 10980.20307616 0 364.34149155 0 3525.97076617 0 86.23325871 0 613.06908905 0 22218
0.14550000 0.14550500 10914.42239441 0 53.65139280 0 3327.12288476 0 25.54174961 0 763.91512068 0 23559
0.14650000 0.14650700 10975.78521855 0 -46.19883241 0 3255.14170111 0 -30.94371545 0 238.21663954 0 23044
0.14750000 0.14750500 10752.77752438 0 133.77915016 0 3160.67262576 0 -32.91281769 0 156.08545574 0 23649
0.14850000 0.14849900 10837.04898857 0 193.60624285 0 2946.11311542 0 17.15557080 0 -221.62476080 0 23640
0.14950000 0.14949500 10545.72505027 0 187.09239416 0 2995.92750478 0 108.05116404 0 -405.39988644 0 24457
0.15050000 0.15050000 10367.09523397 0 229.69537836 0 2520.75868519 0 292.10896613 0 168.49863909 0 24591
0.15150000 0.15149900 10288.07205174 0 37.84631346 0 2628.01629571 0 356.24872934 0 -490.45305677 0 25020
0.15250000 0.15250500 10207.32158684 0 -6.88536948 0 2464.75486625 0 300.98675617 0 -68.33617432 0 25297
0.15350000 0.15350100 10143.48963426 0 349.06389777 0 2580.69317943 0 6.68986544 0 -174.22413825 0 25452
0.15450000 0.15450400 9855.14415133 0 456.80204718 0 2712.14381968 0 -158.24234461 0 84.00583912 0 26061
0.15550000 0.15549900 9476.61458276 0 230.79153852 0 2705.06860412 0 -88.82086102 0 570.93114248 0 26128
0.15650000 0.15649500 9451.32539287 0 55.99053214 0 3032.92014200 0 155.80864762 0 465.39527847 0 26331
0.15750000 0.15749700 9338.28802880 0 -26.41236652 0 2836.89570341 0 210.41624639 0 460.87998441 0 27345
0.15850000 0.15849900 9437.32997430 0 47.38434623 0 2866.63596787 0 157.51932180 0 159.59981163 0 26980
0.15950000 0.15949700 9218.80657168 0 193.49219790 0 2691.79288666 0 7.66830464 0 493.70056964 0 27777
0.16050000 0.16050000 9160.44434756 0 150.30902388 0 2666.71407095 0 228.34344750 0 701.11510877 0 28224
0.16150000 0.16150500 9122.61021366 0 -144.93341018 0 2416.11414333 0 445.77290443 0 972.83771045 0 28075
0.16250000 0.16249700 9130.17261151 0 3.58943733 0 2424.55125484 0 482.08016474 0 899.96520465 0 28590
0.16350000 0.16349900 9099.21439131 0 209.30679944 0 2003.40430804 0 444.92476435 0 419.99542502 0 29163
0.16450000 0.16449100 8952.10748377 0 216.84262371 0 2109.52146910 0 82.61083692 0 899.44148369 0 28996
0.16550000 0.16550500 8797.11708096 0 98.91195641 0 2054.62488265 0 -148.45108777 0 1091.99142675 0 30777
0.16650000 0.16650700 8748.98568498 0 89.60145992 0 2056.00892325 0 91.00919529 0 963.41516203 0 29211
0.16750000 0.16749900 8772.94619588 0 2.86131018 0 1913.84027258 0 -55.40192736 0 693.92916996 0 30922
0.16850000 0.16850800 8703.93239529 0 122.20857072 0 2166.47750797 0 -228.17182647 0 807.24444939 0 30867
0.16950000 0.16949900 8571.67347533 0 268.47065988 0 2093.42230881 0 -74.37612750 0 515.51304953 0 30852
0.17050000 0.17049200 8485.60829451 0 138.37305772 0 2300.48585525 0 -127.40924169 0 391.06565473 0 31257
0.17150000 0.17149500 8214.00416671 0 113.57769352 0 2061.93261703 0 95.00409009 0 381.20574948 0 32608
0.17250000 0.17250900 8328.24841419 0 -44.49557669 0 2180.48399886 0 179.14578664 0 -30.91503813 0 32361
0.17350000 0.17350400 8245.54922012 0 -66.37537631 0 2031.53908540 0 172.13368333 0 253.96591437 0 32508
0.17450000 0.17449800 8387.47427965 0 -2.79519733 0 1775.46942932 0 111.41969742 0 -96.52066642 0 32791
0.17550000 0.17549800 8313.72152403 0 116.96139599 0 1762.53695393 0 50.61812942 0 -16.96091933 0 33633
0.17650000 0.17650100 8312.71394247 0 125.37525562 0 1728.58920604 0 -31.37852564 0 -312.66141546 0 33984
0.17750000 0.17750300 8136.13250626 0 110.98676952 0 1745.12018699 0 7.68201218 0 221.93478590 0 34069
0.17850000 0.17849800 8051.16348560 0 102.98967219 0 1762.13835024 0 95.91711399 0 65.85154463 0 34536
