### header ###
fiducial parameters:
Omega_m = 0.31
Omega_nu = 0
Omega_de = 0.69
Omega_k = 0
H_0 = 100
w_de = -1
zeff = 0
beta = 0
fgrowth = 0
b_1 = 2
gamma = 0.55
Lx = 3500 Ly = 3500 Lz = 3500
nx = 700 ny = 700 nz = 700
xoffset = -685.467585 yoffset = -31.7331281 zoffset = 572.489161
bins = 400 dk = 0.001
kx_ny = 0.628318531 ky_ny = 0.628318531 kz_ny = 0.628318531
############################
A(data) = 8.08491016 (not used)
A(ran) = 8.08573659 (used)
Ngal = 480211
weighted Ngal = 0
Nran = 23820508
weighted Nran = 0
SN(data) = 3489.94071
SN(ran) = 70.4296981
SN(data+ran) = 3560.37041
############################
13 columns: k_central k_mean P_0(k) sigma^{lin}_{P_0(k)} P^img_1(k) sigma^{lin}_{P_1(k)} P_2(k) sigma^{lin}_{P_2(k)} P^img_3(k) sigma^{lin}_{P_3(k)} P_4(k) sigma^{lin}_{P_4(k)} N_modes
### header ###
0.00050000 0 0 0 0 0 0 0 0 0 0 0 0
0.00150000 0.00179520 6794.52105264 0 -19740.29430292 0 13754.92767571 0 -35098.38388912 0 -38804.06955943 0 3
0.00250000 0.00253879 36827.10596306 0 -54198.47637103 0 -24775.65546070 0 17835.07937138 0 -5802.49611051 0 6
0.00350000 0.00331552 58706.24125120 0 -54578.25711231 0 -26696.92526323 0 20371.41681759 0 -5158.23074629 0 7
0.00450000 0.00420575 93416.31870893 0 -34377.24337368 0 -19076.06553705 0 -28086.83419772 0 -49124.36207639 0 24
0.00550000 0.00557378 110236.39806419 0 -6645.99688752 0 -24222.03921977 0 -25861.51835566 0 4764.31064622 0 45
0.00650000 0.00659388 81458.76152104 0 26218.37938457 0 5077.20347327 0 -60857.92613321 0 4270.82820137 0 40
0.00750000 0.00754703 85310.26970920 0 15890.88985647 0 -19090.90245231 0 684.70703062 0 38699.98970613 0 57
0.00850000 0.00846663 77115.86355742 0 10770.64825664 0 16798.15615211 0 -18976.85750668 0 -682.58335872 0 75
0.00950000 0.00948925 73210.21170089 0 12396.02125072 0 -5478.71918816 0 -22958.68695796 0 -4345.09028393 0 112
0.01050000 0.01054430 59797.75103182 0 9647.02873404 0 23991.51341704 0 -9276.41587771 0 11756.59449244 0 105
0.01150000 0.01145670 62591.96292306 0 144.07198331 0 7183.10429215 0 7918.35094941 0 -2832.01280816 0 144
0.01250000 0.01249090 61783.01887181 0 -14742.57904953 0 15652.39197988 0 21851.12230635 0 -14276.76634441 0 169
0.01350000 0.01339930 77388.79636420 0 -6769.61939412 0 3798.71534343 0 14374.09207957 0 -39839.33192997 0 180
0.01450000 0.01448870 76649.94012905 0 882.07122052 0 -6294.07411548 0 3352.42314697 0 -17017.72035327 0 267
0.01550000 0.01550050 77720.52321577 0 1505.48186094 0 -17877.81854518 0 -12871.68832492 0 -4035.39735875 0 238
0.01650000 0.01653350 74842.05093266 0 -6868.11879571 0 -7033.20715875 0 -13003.55971351 0 -4708.48398448 0 315
0.01750000 0.01747870 81382.03031004 0 555.44538899 0 -472.01985041 0 -18151.52641470 0 -6223.53233406 0 297
0.01850000 0.01844180 84102.72196448 0 3685.22401404 0 12012.36519575 0 -7115.62954470 0 -16776.45439547 0 388
0.01950000 0.01947590 77511.03483020 0 4039.82628868 0 14481.16146056 0 230.46490494 0 15699.67080685 0 399
0.02050000 0.02045430 74429.38538667 0 7691.50115852 0 11313.81222294 0 2652.36433798 0 6071.67539918 0 462
0.02150000 0.02154770 73630.18498126 0 -1411.58854648 0 14477.17542363 0 14715.67330022 0 8859.93037966 0 571
0.02250000 0.02255340 78007.18570532 0 -7674.08439158 0 10407.03310959 0 7185.36304641 0 3902.65125650 0 510
0.02350000 0.02348930 80415.30563013 0 -950.73292118 0 6614.24145994 0 4246.34729120 0 -2229.39045758 0 555
0.02450000 0.02439640 77213.85363206 0 4266.58750097 0 3264.56424953 0 -6147.32152234 0 8360.88962776 0 592
0.02550000 0.02547300 76391.51206778 0 5322.32260010 0 7992.02619875 0 -14302.23269149 0 3712.76088586 0 837
0.02650000 0.02652900 70374.70003808 0 11607.67172363 0 17196.31695259 0 -10957.53802725 0 9743.51297251 0 723
0.02750000 0.02749970 63399.35684883 0 5670.68008354 0 30613.87089108 0 -13483.98788740 0 1940.72387724 0 826
0.02850000 0.02848090 61673.18140960 0 2929.11709682 0 25158.75789942 0 7266.55640431 0 2565.49087745 0 831
0.02950000 0.02946900 62545.45915882 0 -2400.29179116 0 18642.58402040 0 1716.77503546 0 -7672.57855541 0 996
0.03050000 0.03053250 64065.57863317 0 -4887.43489820 0 20620.65484925 0 9052.05735991 0 -9617.12238471 0 1041
0.03150000 0.03150510 66419.88705936 0 -1901.76036620 0 14227.93739196 0 7689.45277843 0 -20162.26060176 0 1036
0.03250000 0.03246190 63186.54676582 0 1836.21220327 0 2213.43523752 0 3151.34972826 0 -13667.56703289 0 1059
0.03350000 0.03345080 59702.75048488 0 3597.73050332 0 6748.75913416 0 2651.68892617 0 -16232.69252362 0 1302
0.03450000 0.03451200 58249.39712918 0 2148.71749896 0 3578.47573046 0 -5052.93293726 0 -22294.79036183 0 1339
0.03550000 0.03553350 54594.86559954 0 3308.01205212 0 9555.52704174 0 -5449.07857462 0 -16776.01150248 0 1365
0.03650000 0.03647120 54294.91632020 0 6291.30603428 0 14191.50944331 0 -7482.68818477 0 -6723.74675240 0 1308
0.03750000 0.03744890 51310.03899559 0 1259.91984111 0 17368.15943378 0 -9370.87388074 0 -5253.16485928 0 1579
0.03850000 0.03847530 53725.46665478 0 1281.73232101 0 26121.05364941 0 2519.47429551 0 -2464.85451718 0 1662
0.03950000 0.03950240 52668.05963460 0 378.38341389 0 33320.61141624 0 -6175.94348199 0 -3367.29327920 0 1683
0.04050000 0.04050350 51451.98619977 0 4037.46788350 0 35573.05445410 0 7776.11586478 0 3276.87667473 0 1822
0.04150000 0.04152450 48314.64296240 0 3280.90700096 0 32686.38865063 0 7143.65359882 0 4461.48256243 0 1887
0.04250000 0.04250150 44546.84154987 0 1353.31490096 0 28565.04790663 0 11026.82863597 0 9367.59647259 0 1920
0.04350000 0.04349210 43577.79168174 0 -588.93474264 0 24416.91213658 0 7466.48937356 0 4003.07724261 0 2005
0.04450000 0.04448520 43642.45405868 0 2098.79238635 0 22795.03799714 0 7779.61471943 0 5580.97210786 0 2151
0.04550000 0.04548030 41660.06502315 0 1622.42775568 0 20861.47791406 0 506.29644635 0 8563.59067821 0 2274
0.04650000 0.04648670 41388.90378834 0 1065.56510911 0 21577.41443683 0 -1007.79193267 0 12998.13427435 0 2311
0.04750000 0.04749250 40238.82140943 0 1304.03198319 0 23051.91593293 0 956.33883924 0 10651.37717369 0 2568
0.04850000 0.04851840 39479.14920362 0 849.46876009 0 23204.16039919 0 3824.05989494 0 13391.09108217 0 2493
0.04950000 0.04949480 38585.50186751 0 1172.71421084 0 24266.43924229 0 1922.43239664 0 11435.82924244 0 2644
0.05050000 0.05050630 38794.54736008 0 1263.50727436 0 21237.82623465 0 2529.09614578 0 11065.64820678 0 2829
0.05150000 0.05149060 36930.41075362 0 546.74143445 0 20965.55776735 0 4029.32972475 0 8586.33323339 0 2784
0.05250000 0.05249300 35991.36688575 0 706.94579502 0 17306.26513804 0 2053.97161548 0 6963.21899357 0 3055
0.05350000 0.05348950 35406.74813532 0 960.37470163 0 14734.49625241 0 879.15477016 0 2819.73359994 0 3009
0.05450000 0.05448610 33517.03445852 0 490.42759042 0 12549.81584245 0 934.63154643 0 -93.37878353 0 3336
0.05550000 0.05550870 34001.00577635 0 -265.56860354 0 10326.83626093 0 9.19941893 0 -2288.67168466 0 3349
0.05650000 0.05647670 33283.51912810 0 -185.63195451 0 10238.51232585 0 1121.34969601 0 -2444.60323508 0 3324
0.05750000 0.05747970 34476.11923432 0 -846.07287806 0 10540.03387531 0 75.24065463 0 -3944.49357199 0 3639
0.05850000 0.05849280 34613.96967831 0 620.70456424 0 11528.50460117 0 -394.13490317 0 -3357.92609240 0 3846
0.05950000 0.05951020 33898.03315553 0 1610.04889653 0 11507.79935376 0 -707.91019451 0 30.12635643 0 3787
0.06050000 0.06049470 33214.75999098 0 1081.32434902 0 13072.20812739 0 1754.78632656 0 853.40829326 0 3930
0.06150000 0.06148310 32299.74306796 0 1137.27169910 0 13913.81553686 0 1301.09781711 0 2413.78895511 0 4083
0.06250000 0.06249100 31199.37542749 0 1280.75795642 0 14114.55678582 0 1998.13388142 0 1793.56160807 0 4303
0.06350000 0.06350600 30632.02950378 0 -781.65298504 0 12491.90758364 0 2570.83881034 0 2603.82326598 0 4470
0.06450000 0.06451750 30822.69493715 0 -961.98683213 0 10292.12452263 0 2094.46310734 0 1876.10578960 0 4479
0.06550000 0.06550280 31666.40608834 0 -182.73764881 0 10437.61487074 0 174.03258703 0 2045.46807002 0 4636
0.06650000 0.06648880 31472.75112726 0 716.88099208 0 10299.81978837 0 -422.31839877 0 2222.35953132 0 4653
0.06750000 0.06749660 31668.39910680 0 1715.00346348 0 11810.84888405 0 -1623.10316749 0 4607.88084118 0 5220
0.06850000 0.06852730 29720.00210847 0 1586.57556791 0 12012.03302600 0 590.70742184 0 4586.48910963 0 5029
0.06950000 0.06949320 29021.89202865 0 1500.80933987 0 14075.02858622 0 -524.48938326 0 6522.04221118 0 5040
0.07050000 0.07048030 28240.18589645 0 516.24935913 0 14675.70220763 0 2197.18106469 0 7112.37428121 0 5475
0.07150000 0.07148790 27987.95833709 0 -35.83746157 0 15660.47477700 0 1376.60000005 0 7620.49433946 0 5509
0.07250000 0.07249820 28241.40385218 0 -146.16797440 0 15196.10147410 0 747.03093256 0 7055.52896559 0 5916
0.07350000 0.07351270 28080.41224932 0 235.70654351 0 15357.20380021 0 675.16600833 0 8434.58702175 0 5721
0.07450000 0.07449140 27964.15283872 0 652.69361787 0 13511.11508320 0 1244.55145427 0 7353.62916668 0 6028
0.07550000 0.07549160 27612.49580248 0 -77.71232970 0 11354.55837827 0 2606.08202024 0 5451.92416210 0 6183
0.07650000 0.07648840 26973.95483019 0 -3.35483691 0 10067.54455833 0 2845.57640607 0 4501.14362993 0 6330
0.07750000 0.07749960 27125.75640346 0 229.39974729 0 8192.22490379 0 1084.28730314 0 2227.77389816 0 6583
0.07850000 0.07848650 26005.34785506 0 337.11907375 0 7591.57342703 0 1138.53394413 0 2147.80956832 0 6549
0.07950000 0.07947320 25704.62351298 0 572.77911350 0 6785.28673374 0 -550.03877278 0 1285.29760960 0 6828
0.08050000 0.08048110 25373.33955441 0 -69.28307953 0 5941.34306374 0 -310.33290555 0 2128.35549361 0 7147
0.08150000 0.08149960 25578.50973330 0 -412.38541617 0 7096.07581907 0 1158.28697160 0 1860.71525810 0 7386
0.08250000 0.08250610 25798.84899719 0 472.69304776 0 6915.54156291 0 383.46893268 0 3088.43677864 0 7227
0.08350000 0.08350160 25289.18988579 0 754.66308606 0 7389.32634190 0 -166.32514173 0 1609.78316073 0 7798
0.08450000 0.08449610 24902.32285662 0 743.80445711 0 7894.01397945 0 -614.04234640 0 1815.45159424 0 7371
0.08550000 0.08548940 24054.40422201 0 1181.08488841 0 8931.19186219 0 -2036.77629504 0 2300.81802499 0 8256
0.08650000 0.08650700 23114.80673790 0 1638.73729013 0 10706.60592989 0 -1688.86170459 0 2356.05785351 0 8037
0.08750000 0.08749060 22052.86006455 0 1021.45739596 0 10267.69897408 0 406.35321361 0 3465.88125938 0 8155
0.08850000 0.08849210 21635.43341888 0 -275.10741137 0 10741.72734421 0 1413.99124097 0 3396.35813185 0 8718
0.08950000 0.08949900 21614.94961797 0 -445.72418620 0 10360.71757488 0 2353.59979740 0 1850.10797092 0 8571
0.09050000 0.09049190 21802.29335390 0 897.79170729 0 9605.76217944 0 1307.40904226 0 720.23369204 0 8932
0.09150000 0.09150830 20893.14476304 0 1125.64575804 0 9306.97549421 0 -65.38296384 0 3250.87885605 0 9285
0.09250000 0.09250820 19839.05944031 0 652.82759300 0 8824.21105979 0 156.08656297 0 4436.76913343 0 9204
0.09350000 0.09350330 19375.57192340 0 94.17410862 0 8026.70472008 0 1565.72638028 0 3612.56741858 0 9349
0.09450000 0.09448040 19468.57945187 0 -227.11995561 0 7350.96073640 0 1799.06455351 0 2869.31547048 0 9564
0.09550000 0.09549270 19580.52065579 0 183.09307043 0 6931.35284275 0 1142.96287405 0 2060.45999783 0 10155
0.09650000 0.09649430 18933.89688638 0 592.32398127 0 6530.09179132 0 668.05979026 0 3079.61213576 0 9913
0.09750000 0.09749140 18212.09203145 0 642.05311372 0 5509.89885485 0 202.85052684 0 2936.87879652 0 10476
0.09850000 0.09850240 18124.28849564 0 552.55108328 0 6034.61632801 0 -14.61059694 0 3394.25439013 0 10575
0.09950000 0.09950330 17551.18496303 0 201.51631170 0 5693.82124242 0 536.16847148 0 2740.73256236 0 10882
0.10050000 0.10051200 17760.78407185 0 208.45865936 0 5869.66083286 0 -212.95845217 0 2792.88321226 0 10875
0.10150000 0.10150300 17220.67606719 0 150.18501384 0 5855.54361872 0 -7.74323106 0 2377.12848764 0 11118
0.10250000 0.10250800 17497.92708065 0 -257.56331270 0 5875.81704546 0 -277.16907826 0 2108.62461079 0 11575
0.10350000 0.10349800 17364.83773633 0 272.02487614 0 5803.57012602 0 -274.68666303 0 1622.09558593 0 11364
0.10450000 0.10450100 17442.01184032 0 266.46546185 0 6126.73807050 0 -83.17441825 0 1492.11756489 0 12093
0.10550000 0.10551000 17132.76180813 0 496.91708000 0 6242.53244345 0 353.91911220 0 1541.99838819 0 12067
0.10650000 0.10649700 16798.93121485 0 439.95771944 0 6106.78574118 0 -48.72708706 0 678.43123692 0 12054
0.10750000 0.10749900 16526.10913132 0 339.30253621 0 6803.75537154 0 -565.22225181 0 1177.03241752 0 12807
0.10850000 0.10850100 16171.57329063 0 676.48915114 0 7061.40837007 0 -702.42717926 0 896.82177164 0 12736
0.10950000 0.10950300 15777.73069683 0 307.06767696 0 7047.66761497 0 18.06394433 0 1343.85913556 0 12933
0.11050000 0.11050200 15602.67724144 0 -27.34321686 0 6963.32971682 0 787.63425490 0 875.75778090 0 13428
0.11150000 0.11150900 16068.82211631 0 -339.66792293 0 6749.97708989 0 970.93880674 0 458.65555436 0 13453
0.11250000 0.11250000 15727.57306540 0 -108.93130314 0 6492.18015114 0 932.24324597 0 -3.52026852 0 13668
0.11350000 0.11349100 15886.68237304 0 473.88553715 0 5717.44958358 0 -130.06327795 0 -615.21047667 0 13791
0.11450000 0.11448600 15119.70243285 0 616.44946981 0 5882.96976729 0 -59.33238122 0 144.06423268 0 14205
0.11550000 0.11549300 14682.01343277 0 710.50111852 0 5889.30313709 0 -310.85994821 0 803.07793356 0 14776
0.11650000 0.11649800 14354.05117164 0 136.23167010 0 6390.24832886 0 586.04597309 0 689.67629000 0 14553
0.11750000 0.11747300 14345.19331179 0 -0.20467082 0 5733.69268409 0 1021.02778976 0 746.56921662 0 14568
0.11850000 0.11849100 14230.81619641 0 -5.18272273 0 5814.71995711 0 1158.49734577 0 956.98989194 0 16015
0.11950000 0.11950300 14288.17083897 0 -58.26235175 0 4634.93053071 0 871.90904080 0 1307.04365554 0 15270
0.12050000 0.12050700 14300.01822653 0 210.16047569 0 4592.71175618 0 716.68169023 0 1187.80578957 0 15999
0.12150000 0.12150000 13776.85087885 0 442.22311709 0 4367.02455940 0 106.48631237 0 1889.89083400 0 15670
0.12250000 0.12250700 13535.25275131 0 314.04767053 0 4550.47083699 0 133.45140934 0 2268.19895607 0 16887
0.12350000 0.12352200 13322.77483804 0 234.01579951 0 4659.83218923 0 31.97432744 0 2580.30564806 0 16407
0.12450000 0.12449800 13329.86112592 0 17.53745528 0 4644.38629610 0 524.97545832 0 2774.14883866 0 16306
0.12550000 0.12549900 13144.06751546 0 13.40548510 0 4527.08608698 0 250.88227190 0 2742.81415943 0 17523
0.12650000 0.12650100 13418.21827797 0 52.04535209 0 4507.39949345 0 277.64186653 0 2143.14811957 0 17154
0.12750000 0.12750600 13155.58273327 0 -24.98813337 0 4408.70079001 0 -155.87618880 0 2087.44325341 0 18007
0.12850000 0.12850300 13196.77178160 0 264.04837335 0 4421.92114585 0 -627.83181973 0 1353.22632236 0 17496
0.12950000 0.12949900 13135.20965561 0 258.16232547 0 4262.81183820 0 -590.60112752 0 1298.83906285 0 18405
0.13050000 0.13049000 12951.18761712 0 1.76063251 0 4572.73728220 0 65.00993722 0 1440.31015706 0 18100
0.13150000 0.13148800 12960.48836997 0 -10.60353366 0 4155.54315536 0 687.12301190 0 863.38777962 0 19059
0.13250000 0.13249300 12987.50484253 0 -15.33029805 0 3999.04691637 0 882.84296155 0 852.20694601 0 18957
0.13350000 0.13349100 12844.78257562 0 83.02483114 0 3761.36839182 0 648.57028411 0 724.79327540 0 19468
0.13450000 0.13450700 12638.50516424 0 205.15689210 0 3230.63864629 0 379.07321972 0 932.91865778 0 19953
0.13550000 0.13551000 12485.59635850 0 181.30710444 0 2948.99191987 0 470.60591453 0 1468.61101930 0 19956
0.13650000 0.13649900 12269.35385479 0 227.26500307 0 2979.81727217 0 -75.80578608 0 935.43096828 0 19723
0.13750000 0.13749600 12126.07797164 0 245.34278780 0 3144.21915108 0 -477.12308492 0 707.95780551 0 20946
0.13850000 0.13851100 11908.61751220 0 239.26851040 0 3065.94888693 0 -373.44515702 0 502.04024469 0 20955
0.13950000 0.13949800 11664.25130345 0 402.36606944 0 3178.49906871 0 -128.88739705 0 901.95047249 0 20506
0.14050000 0.14048300 11577.11210713 0 107.76660529 0 3158.33636522 0 -142.34580787 0 687.03000437 0 21447
0.14150000 0.14148400 11510.67815822 0 -71.13049693 0 3580.42445963 0 189.22935285 0 552.28756195 0 21771
0.14250000 0.14249400 11391.09705018 0 404.77430009 0 3675.91218887 0 102.59649394 0 -89.83995779 0 22470
0.14350000 0.14350900 11072.21409540 0 334.93561130 0 3554.91382325 0 -209.53156764 0 547.84313077 0 22519
0.14450000 0.14449900 10838.73198195 0 200.66817162 0 3418.66886636 0 464.21829035 0 576.66882120 0 22218
0.14550000 0.14550500 10768.06840495 0 38.46946390 0 3103.01903043 0 574.01699941 0 221.36123947 0 23559
0.14650000 0.14650700 10753.19827272 0 -47.56548947 0 2947.24249255 0 281.08535954 0 384.97033992 0 23044
0.14750000 0.14750500 10652.20759805 0 148.58727737 0 2702.34481221 0 275.37536163 0 189.27253491 0 23649
0.14850000 0.14849900 10540.12245391 0 207.16098289 0 2627.41839017 0 -260.70120955 0 393.74958627 0 23640
0.14950000 0.14949500 10302.61001423 0 310.77912024 0 2866.50309997 0 -126.78697703 0 204.49587431 0 24457
0.15050000 0.15050000 10159.47807130 0 251.75034217 0 3026.04422829 0 -313.57820396 0 179.02509830 0 24591
0.15150000 0.15149900 9951.86090862 0 294.86597501 0 3009.88970638 0 -224.03852761 0 222.87925520 0 25020
0.15250000 0.15250500 9735.69591119 0 86.47208875 0 3389.46007348 0 132.24231147 0 252.81217812 0 25297
0.15350000 0.15350100 9852.32070850 0 -142.02471045 0 3284.19548143 0 322.65751031 0 -151.25349319 0 25452
0.15450000 0.15450400 9823.61017025 0 78.42394801 0 3060.04733780 0 62.31604059 0 -399.79950455 0 26061
0.15550000 0.15549900 9750.63247737 0 341.94771461 0 3119.26213093 0 -44.76230899 0 11.37515290 0 26128
0.15650000 0.15649500 9416.27041250 0 173.81446224 0 2941.47381132 0 326.53614569 0 209.29572712 0 26331
0.15750000 0.15749700 9246.24379258 0 126.38394441 0 3045.26578417 0 546.85547940 0 450.71005407 0 27345
0.15850000 0.15849900 9129.64113992 0 165.27880703 0 2678.19607178 0 490.18953544 0 298.50876988 0 26980
0.15950000 0.15949700 9104.20800981 0 43.64599720 0 2567.78284869 0 509.88609406 0 341.02096102 0 27777
0.16050000 0.16050000 8993.48476162 0 47.58265157 0 2188.00210741 0 28.10111750 0 453.16035955 0 28224
0.16150000 0.16150500 8881.25567726 0 95.01316939 0 2273.15935759 0 -54.02087628 0 364.07575576 0 28075
0.16250000 0.16249700 8913.57579340 0 7.42910920 0 2261.15695749 0 -149.88384661 0 175.19961007 0 28590
0.16350000 0.16349900 8865.92050739 0 135.86074722 0 2107.61702923 0 -198.17911300 0 238.87655010 0 29163
0.16450000 0.16449100 8757.24563929 0 207.36139197 0 2086.32494860 0 110.62647607 0 15.62515406 0 28996
0.16550000 0.16550500 8696.35892511 0 35.25915405 0 1990.36110940 0 130.77522843 0 302.42172947 0 30777
0.16650000 0.16650700 8657.18503990 0 36.47046638 0 1948.51879391 0 249.10848547 0 182.91480600 0 29211
0.16750000 0.16749900 8747.46877648 0 103.26459802 0 2132.59619402 0 -110.80407616 0 13.66092364 0 30922
0.16850000 0.16850800 8566.12624060 0 215.52390983 0 2460.59167212 0 -164.84587913 0 338.78988757 0 30867
0.16950000 0.16949900 8458.34823081 0 169.94468471 0 2332.69524814 0 -239.50767262 0 311.87749486 0 30852
0.17050000 0.17049200 8270.99342255 0 73.63195655 0 2570.25197713 0 116.05014366 0 381.39065731 0 31257
0.17150000 0.17149500 8411.66730938 0 33.58003599 0 2475.19606856 0 144.82490140 0 212.27971866 0 32608
0.17250000 0.17250900 8305.38406344 0 4.06336605 0 2517.17125195 0 56.62951601 0 30.02482321 0 32361
0.17350000 0.17350400 8279.93986101 0 122.54074047 0 2384.93447664 0 25.19297138 0 51.10785834 0 32508
0.17450000 0.17449800 8222.86202657 0 105.25639853 0 2349.77984534 0 239.40802169 0 142.51299997 0 32791
0.17550000 0.17549800 8118.35035260 0 43.21107628 0 2199.36231268 0 77.50062684 0 274.79627905 0 33633
0.17650000 0.17650100 8095.15383211 0 97.13916648 0 2135.46392615 0 244.22891192 0 169.82731807 0 33984
0.17750000 0.17750300 8044.76368186 0 -86.96303563 0 1926.78382029 0 391.47643799 0 430.26168459 0 34069
0.17850000 0.17849800 8132.42327745 0 -36.81127254 0 1878.40883316 0 502.54846440 0 200.97044609 0 34536
