### header ###
fiducial parameters:
Omega_m = 0.31
Omega_nu = 0
Omega_de = 0.69
Omega_k = 0
H_0 = 100
w_de = -1
zeff = 0
beta = 0
fgrowth = 0
b_1 = 2
gamma = 0.55
Lx = 3500 Ly = 3500 Lz = 3500
nx = 700 ny = 700 nz = 700
xoffset = -685.467585 yoffset = -31.7331281 zoffset = 572.489161
bins = 400 dk = 0.001
kx_ny = 0.628318531 ky_ny = 0.628318531 kz_ny = 0.628318531
############################
A(data) = 7.96512905 (not used)
A(ran) = 7.95816446 (used)
Ngal = 472811
weighted Ngal = 0
Nran = 23820508
weighted Nran = 0
SN(data) = 3494.86409
SN(ran) = 69.3184986
SN(data+ran) = 3564.18258
############################
13 columns: k_central k_mean P_0(k) sigma^{lin}_{P_0(k)} P^img_1(k) sigma^{lin}_{P_1(k)} P_2(k) sigma^{lin}_{P_2(k)} P^img_3(k) sigma^{lin}_{P_3(k)} P_4(k) sigma^{lin}_{P_4(k)} N_modes
### header ###
0.00050000 0 0 0 0 0 0 0 0 0 0 0 0
0.00150000 0.00179520 25638.85390356 0 -22237.32499602 0 8819.39459850 0 21162.97731887 0 -53660.80427784 0 3
0.00250000 0.00253879 52684.77884508 0 -32510.44940926 0 -1611.00111646 0 -52365.45299731 0 -12608.05627099 0 6
0.00350000 0.00331552 55539.22418332 0 -12932.03249519 0 -23957.29993335 0 16682.78252750 0 18659.74612387 0 7
0.00450000 0.00420575 57176.37813101 0 4816.20663264 0 -17031.89292903 0 -11002.39201509 0 21862.52680091 0 24
0.00550000 0.00557378 52194.60702535 0 728.69737713 0 -22978.28497289 0 6338.18625756 0 -6155.67005525 0 45
0.00650000 0.00659388 48211.33817185 0 -14863.71028305 0 -37895.69603131 0 33319.50418376 0 24765.13675212 0 40
0.00750000 0.00754703 59089.45441317 0 -15833.64593716 0 -47767.67011636 0 17787.80054440 0 6666.60248401 0 57
0.00850000 0.00846663 64441.92695376 0 -18538.83633685 0 -50048.45830576 0 270.19683532 0 5719.26544485 0 75
0.00950000 0.00948925 74254.33193129 0 -12678.91914983 0 -52423.13980961 0 4526.46603679 0 28130.01626451 0 112
0.01050000 0.01054430 84526.01694230 0 -2136.21684424 0 -59714.70859568 0 -23807.26993206 0 49690.26859787 0 105
0.01150000 0.01145670 79378.16096436 0 -1037.11477049 0 -49814.61080559 0 -5636.99807145 0 48907.78740294 0 144
0.01250000 0.01249090 83936.19419921 0 -268.43190674 0 -38593.69538787 0 -15610.20642232 0 45659.49947089 0 169
0.01350000 0.01339930 76655.58701471 0 -2152.39351080 0 -29761.19115679 0 -3926.65605671 0 46245.88979329 0 180
0.01450000 0.01448870 82949.87150436 0 5924.16988794 0 -7793.83158449 0 -19295.51901496 0 25078.48354449 0 267
0.01550000 0.01550050 79550.00344555 0 8131.65928704 0 13886.79906430 0 -13503.03228608 0 29979.53740221 0 238
0.01650000 0.01653350 67944.10329389 0 10521.25521242 0 15658.03886554 0 22.08530198 0 28171.98037557 0 315
0.01750000 0.01747870 69965.68835928 0 5487.96457939 0 20494.54106957 0 4575.59394201 0 29389.38248938 0 297
0.01850000 0.01844180 65407.43367794 0 505.69300465 0 28395.19844391 0 1464.69141631 0 36313.46081472 0 388
0.01950000 0.01947590 71828.82845652 0 -1219.35084298 0 30992.21223013 0 8518.75883502 0 28098.79230852 0 399
0.02050000 0.02045430 69068.38715598 0 5.79056014 0 35503.07736124 0 7120.50136762 0 17962.85399979 0 462
0.02150000 0.02154770 74577.86526249 0 1662.76423499 0 37615.34476690 0 10520.44693271 0 21917.00263902 0 571
0.02250000 0.02255340 69079.01658780 0 -470.94362044 0 26449.23735704 0 3081.72694980 0 15440.79985260 0 510
0.02350000 0.02348930 74238.16633705 0 -3064.06659171 0 32866.42465218 0 7125.89358981 0 11648.52860221 0 555
0.02450000 0.02439640 78058.33984598 0 -5946.36989920 0 39160.93058833 0 10361.94660293 0 11816.60649296 0 592
0.02550000 0.02547300 81098.35734819 0 -1379.77775728 0 25064.20024547 0 7892.31991376 0 -4905.11740093 0 837
0.02650000 0.02652900 75779.10178206 0 5455.09084700 0 22254.70854599 0 -1371.84997271 0 3922.72538140 0 723
0.02750000 0.02749970 73141.67401026 0 10094.16242719 0 19026.46152187 0 -3632.63047115 0 -10005.31809285 0 826
0.02850000 0.02848090 64959.44741578 0 4986.42148208 0 19455.51410859 0 -3790.86506513 0 5404.11386354 0 831
0.02950000 0.02946900 60234.22207617 0 946.43353745 0 16479.38392058 0 6876.19052050 0 -5932.97238617 0 996
0.03050000 0.03053250 60022.74067214 0 -803.21080146 0 12501.87267598 0 7163.81630231 0 -4704.12148850 0 1041
0.03150000 0.03150510 60576.68908281 0 -275.78946658 0 8670.35003411 0 443.83081866 0 -14732.61395719 0 1036
0.03250000 0.03246190 57865.18745798 0 4041.63107763 0 9851.68958599 0 -5122.20140133 0 -14173.12938411 0 1059
0.03350000 0.03345080 57292.19464861 0 2168.45945411 0 11781.17505354 0 -3200.40012721 0 -2925.70682078 0 1302
0.03450000 0.03451200 53145.60900403 0 1598.93228241 0 12253.18826055 0 -801.26760845 0 1660.09580471 0 1339
0.03550000 0.03553350 51507.67999361 0 1707.47428261 0 13335.17584183 0 6221.97113627 0 -855.77444907 0 1365
0.03650000 0.03647120 51949.24430737 0 3559.97387569 0 15085.71039566 0 7011.78221023 0 1117.60725022 0 1308
0.03750000 0.03744890 47072.77101074 0 2034.24073266 0 13180.60618736 0 7383.43586509 0 4772.41558798 0 1579
0.03850000 0.03847530 46748.13044706 0 1038.15003286 0 9681.33079633 0 3771.55493065 0 9440.44129757 0 1662
0.03950000 0.03950240 46825.30455105 0 -435.80559763 0 13111.73632699 0 4306.89076331 0 11659.04731079 0 1683
0.04050000 0.04050350 47889.90858236 0 111.33001159 0 13114.39368495 0 -52.78221530 0 12411.63322871 0 1822
0.04150000 0.04152450 46994.93256727 0 1603.40550164 0 14858.83846013 0 -6291.69356565 0 8353.65939965 0 1887
0.04250000 0.04250150 45977.71808618 0 3336.89974757 0 18183.52543342 0 -5972.36771788 0 11850.48780690 0 1920
0.04350000 0.04349210 45099.12911182 0 2842.03326213 0 22447.14555134 0 -5655.27847972 0 6170.97200815 0 2005
0.04450000 0.04448520 42592.79766587 0 1179.56797990 0 24655.96362941 0 -2868.68434796 0 5136.57327894 0 2151
0.04550000 0.04548030 42508.86944375 0 943.35432392 0 27480.51369065 0 2191.50096206 0 1255.50198351 0 2274
0.04650000 0.04648670 40994.17540856 0 415.58421081 0 25073.50099832 0 1460.97111517 0 -413.40960622 0 2311
0.04750000 0.04749250 41949.27414741 0 691.69920375 0 24599.27332634 0 5431.47357816 0 -1204.87931444 0 2568
0.04850000 0.04851840 41554.87793737 0 -431.50732113 0 21011.28646886 0 4363.60321103 0 -2020.53319453 0 2493
0.04950000 0.04949480 40828.09053628 0 -179.51892398 0 18992.24803818 0 6433.40825100 0 863.73212892 0 2644
0.05050000 0.05050630 42060.32956534 0 -1141.60097810 0 18949.73031087 0 2060.48214248 0 388.30864585 0 2829
0.05150000 0.05149060 42825.75938006 0 464.15296363 0 16010.69241101 0 2467.32364561 0 2355.64817749 0 2784
0.05250000 0.05249300 42153.22637057 0 857.93908857 0 17006.31585870 0 1926.99419446 0 2399.60530702 0 3055
0.05350000 0.05348950 40919.88010902 0 1771.40588611 0 16834.36265427 0 -694.00999794 0 6512.48679486 0 3009
0.05450000 0.05448610 39814.52992238 0 1429.70286988 0 18241.98730846 0 1662.90817521 0 5133.71661914 0 3336
0.05550000 0.05550870 38567.67542455 0 1290.41302366 0 17578.64432858 0 3030.19635009 0 3847.90968260 0 3349
0.05650000 0.05647670 37116.97942681 0 760.92116405 0 17023.25651568 0 1106.04774311 0 5737.90016752 0 3324
0.05750000 0.05747970 37079.55496892 0 946.85207133 0 17449.54102119 0 1688.90599389 0 3120.53544829 0 3639
0.05850000 0.05849280 35028.62824277 0 446.07517890 0 14143.45555359 0 -330.36495561 0 6059.18581678 0 3846
0.05950000 0.05951020 35127.28265690 0 1157.84407861 0 15430.17042077 0 1630.11194910 0 3465.05083502 0 3787
0.06050000 0.06049470 33710.02508011 0 850.81072585 0 13581.97796204 0 1562.85864815 0 6354.56222597 0 3930
0.06150000 0.06148310 32263.86873555 0 1127.50590861 0 12585.35800511 0 4598.94547505 0 3389.69259231 0 4083
0.06250000 0.06249100 32117.04970845 0 701.78498442 0 10676.37848313 0 3861.93831815 0 6042.37802771 0 4303
0.06350000 0.06350600 31215.09812873 0 41.88173297 0 9346.01651152 0 2456.16274220 0 4173.97857618 0 4470
0.06450000 0.06451750 30802.10041299 0 612.07257981 0 7867.47361686 0 891.77057706 0 3709.25095890 0 4479
0.06550000 0.06550280 30046.85713711 0 477.90479105 0 7722.73618683 0 -683.26652116 0 4753.75872066 0 4636
0.06650000 0.06648880 29777.02458128 0 1029.69631286 0 6735.66057390 0 -1506.98769712 0 4541.03721625 0 4653
0.06750000 0.06749660 29582.59455747 0 85.35765926 0 7330.46586316 0 -958.48797748 0 2143.13704725 0 5220
0.06850000 0.06852730 28343.71213351 0 782.61517006 0 7245.55220413 0 -909.52283544 0 -762.97065137 0 5029
0.06950000 0.06949320 28668.13125069 0 1109.81233355 0 9310.60721675 0 -962.78182505 0 1130.68366583 0 5040
0.07050000 0.07048030 27971.79274285 0 543.05102859 0 9303.79773699 0 966.10241526 0 -448.30846681 0 5475
0.07150000 0.07148790 27730.41606180 0 30.92289948 0 9726.21800114 0 520.72036390 0 558.59214371 0 5509
0.07250000 0.07249820 27504.98352850 0 570.78055887 0 10032.57815655 0 639.13223444 0 1642.31365105 0 5916
0.07350000 0.07351270 28705.11281559 0 -378.98353389 0 10079.56910308 0 1613.16021980 0 1927.92426975 0 5721
0.07450000 0.07449140 27124.09555473 0 112.86242134 0 9282.61637961 0 674.43966382 0 2906.02022725 0 6028
0.07550000 0.07549160 28022.50399052 0 435.45017600 0 8828.51819415 0 -87.85446851 0 1257.17390456 0 6183
0.07650000 0.07648840 26974.84061618 0 889.23944360 0 8943.41570879 0 728.82360163 0 501.07473797 0 6330
0.07750000 0.07749960 26712.98013422 0 296.44931746 0 8684.87692428 0 -27.29206272 0 387.93440128 0 6583
0.07850000 0.07848650 25889.30989096 0 478.98434272 0 8048.15181325 0 322.20133053 0 45.98380786 0 6549
0.07950000 0.07947320 25621.91324659 0 384.88065409 0 7835.41923651 0 377.65928384 0 -220.17539348 0 6828
0.08050000 0.08048110 25194.18933884 0 460.86669762 0 7421.66860269 0 415.85216107 0 256.44722236 0 7147
0.08150000 0.08149960 25176.47361913 0 31.72309639 0 7522.21638437 0 1461.32542956 0 441.99834890 0 7386
0.08250000 0.08250610 24758.38263398 0 -127.55761084 0 7841.86332956 0 -9.35110978 0 -1225.28560908 0 7227
0.08350000 0.08350160 24430.64181935 0 812.53923512 0 7443.96826488 0 147.80224954 0 -988.56373339 0 7798
0.08450000 0.08449610 24003.25008135 0 1102.90320286 0 8173.72304902 0 -800.67302461 0 -407.43830144 0 7371
0.08550000 0.08548940 22904.54328960 0 1195.33497045 0 8121.70526702 0 -754.05964436 0 923.60572537 0 8256
0.08650000 0.08650700 22340.18689359 0 166.50008446 0 8183.54420114 0 624.97848162 0 -97.67982810 0 8037
0.08750000 0.08749060 22104.34637495 0 -171.85466074 0 7934.84871339 0 1499.05991255 0 -1462.24443252 0 8155
0.08850000 0.08849210 21921.76373869 0 911.97646262 0 7102.35382725 0 786.48162589 0 -1233.68950362 0 8718
0.08950000 0.08949900 21107.17280179 0 1098.21960946 0 6824.13952153 0 687.03221883 0 -172.73380333 0 8571
0.09050000 0.09049190 20239.65615224 0 427.02967298 0 6139.85877541 0 1010.42050258 0 621.69996624 0 8932
0.09150000 0.09150830 19943.80363309 0 13.97792430 0 6216.73392663 0 574.94818193 0 427.01527896 0 9285
0.09250000 0.09250820 19794.10580154 0 387.75835131 0 6055.90840864 0 944.06295271 0 229.00557253 0 9204
0.09350000 0.09350330 19301.94096335 0 541.15766105 0 5583.57410420 0 -648.33555083 0 702.35631638 0 9349
0.09450000 0.09448040 19135.96681432 0 610.01202016 0 6656.18342635 0 -898.79043099 0 797.14759639 0 9564
0.09550000 0.09549270 18691.41297285 0 115.86966476 0 6355.44801195 0 -970.96648755 0 986.99810666 0 10155
0.09650000 0.09649430 18786.41351980 0 270.79252639 0 7695.17717036 0 -730.52541795 0 1133.46281936 0 9913
0.09750000 0.09749140 18358.24671906 0 42.22575010 0 7518.35214301 0 136.62584487 0 24.97927551 0 10476
0.09850000 0.09850240 18668.82543022 0 422.44462327 0 8114.79613634 0 722.87333427 0 416.97600204 0 10575
0.09950000 0.09950330 18115.87352878 0 342.60319624 0 7629.60686278 0 444.28810567 0 109.75995593 0 10882
0.10050000 0.10051200 18085.09246578 0 272.58735025 0 7312.88301135 0 1269.30917256 0 608.92803956 0 10875
0.10150000 0.10150300 17831.97912043 0 4.95578436 0 7085.61247212 0 998.09146889 0 1744.19011171 0 11118
0.10250000 0.10250800 17902.06693653 0 15.02459116 0 6407.69831277 0 903.07984963 0 887.88640551 0 11575
0.10350000 0.10349800 17556.38895569 0 250.44823677 0 6525.25318537 0 941.09556966 0 1689.54818873 0 11364
0.10450000 0.10450100 17132.31891514 0 530.85597004 0 5744.85358751 0 523.08873417 0 1808.01099196 0 12093
0.10550000 0.10551000 16841.44894215 0 534.87965287 0 5695.26064464 0 294.77407472 0 1498.11876494 0 12067
0.10650000 0.10649700 16501.30712372 0 429.60841743 0 5505.28169540 0 -467.99506034 0 885.51028460 0 12054
0.10750000 0.10749900 15866.86291162 0 355.26772136 0 5519.66464534 0 -357.30835083 0 923.27466286 0 12807
0.10850000 0.10850100 15727.90523514 0 411.18517616 0 5483.09275647 0 -699.53619525 0 462.78110259 0 12736
0.10950000 0.10950300 15295.42022773 0 312.51747524 0 5633.41063821 0 347.32332831 0 514.37481454 0 12933
0.11050000 0.11050200 15320.55440506 0 26.26665472 0 5148.27672628 0 501.23639391 0 -605.88093577 0 13428
0.11150000 0.11150900 15064.11936226 0 150.22598144 0 5336.56160982 0 661.48947271 0 -330.93960927 0 13453
0.11250000 0.11250000 15015.06896332 0 145.51027830 0 5125.93277479 0 378.04017182 0 -774.48808365 0 13668
0.11350000 0.11349100 14991.48491145 0 29.39857252 0 4985.11494775 0 158.03086321 0 275.23142141 0 13791
0.11450000 0.11448600 14769.92769183 0 151.29888972 0 5416.07197434 0 223.20588879 0 374.56789075 0 14205
0.11550000 0.11549300 14809.12372169 0 171.13163793 0 5026.21541748 0 159.33296861 0 718.23403017 0 14776
0.11650000 0.11649800 14612.81140266 0 243.03531530 0 5277.71220341 0 -7.99554720 0 299.99246140 0 14553
0.11750000 0.11747300 14573.06175656 0 84.06861920 0 5294.23211204 0 166.69717184 0 454.63851491 0 14568
0.11850000 0.11849100 14499.87368951 0 -197.73289831 0 5128.88908552 0 533.62626570 0 392.66117674 0 16015
0.11950000 0.11950300 14648.79645832 0 -176.42863813 0 4870.64925377 0 585.72930460 0 23.04970147 0 15270
0.12050000 0.12050700 14955.38913255 0 -153.28858649 0 4354.98894232 0 428.29745417 0 -67.01413873 0 15999
0.12150000 0.12150000 14762.73068070 0 206.82327698 0 4187.17678737 0 -62.04654020 0 -451.73424411 0 15670
0.12250000 0.12250700 14370.43821238 0 846.93541217 0 4402.67744531 0 -372.11426358 0 335.03969115 0 16887
0.12350000 0.12352200 14084.10789257 0 642.86914406 0 4516.24628098 0 -233.76224327 0 898.75832125 0 16407
0.12450000 0.12449800 13705.87727676 0 128.53418989 0 4390.21000757 0 547.28840730 0 1034.41976662 0 16306
0.12550000 0.12549900 13465.05421196 0 129.34689853 0 4706.66812321 0 559.58311678 0 1196.86295127 0 17523
0.12650000 0.12650100 13161.22961893 0 275.31557108 0 4660.72904754 0 728.00535683 0 1003.97751677 0 17154
0.12750000 0.12750600 13189.79621696 0 289.93879047 0 4144.39332427 0 353.68880784 0 1327.79319225 0 18007
0.12850000 0.12850300 12773.69825028 0 114.76132505 0 4361.43303536 0 40.09144877 0 1567.23221646 0 17496
0.12950000 0.12949900 12810.90126167 0 55.16309731 0 4210.28472926 0 -259.50982740 0 834.97951583 0 18405
0.13050000 0.13049000 12702.28175520 0 218.75259974 0 4400.59584825 0 99.54352182 0 1274.26957408 0 18100
0.13150000 0.13148800 12638.94805724 0 83.81860611 0 4032.29710780 0 86.98440522 0 889.04014176 0 19059
0.13250000 0.13249300 12367.12248294 0 -44.67251244 0 3801.62736486 0 663.29093996 0 1249.48971113 0 18957
0.13350000 0.13349100 12507.07666865 0 153.53882103 0 3345.04897864 0 806.29776562 0 470.51622870 0 19468
0.13450000 0.13450700 12402.44319911 0 -1.43315744 0 2905.01264569 0 304.40699731 0 561.86180122 0 19953
0.13550000 0.13551000 12149.66202350 0 310.32626216 0 2983.64829656 0 172.49907005 0 499.11825817 0 19956
0.13650000 0.13649900 11846.72321646 0 354.49598032 0 2983.24969286 0 -411.09216863 0 255.86813977 0 19723
0.13750000 0.13749600 11646.97847673 0 249.73628628 0 3223.46377980 0 -263.08618832 0 938.19794225 0 20946
0.13850000 0.13851100 11582.42682304 0 103.09685230 0 3195.71653381 0 -126.55888714 0 492.30102778 0 20955
0.13950000 0.13949800 11520.86469705 0 -70.05105598 0 3278.26071533 0 241.77971367 0 158.01204025 0 20506
0.14050000 0.14048300 11738.32515649 0 27.20592004 0 3791.76192344 0 -98.07422431 0 89.27205825 0 21447
0.14150000 0.14148400 11488.31206208 0 354.16381058 0 3646.76982994 0 -281.03774855 0 170.67324368 0 21771
0.14250000 0.14249400 11170.86850953 0 401.97743084 0 4117.42114101 0 -358.47758833 0 304.95729185 0 22470
0.14350000 0.14350900 10916.84723354 0 326.66015573 0 4203.72991297 0 11.72636705 0 540.55311211 0 22519
0.14450000 0.14449900 10687.90477327 0 194.69575961 0 4147.12818850 0 134.27076138 0 553.54537805 0 22218
0.14550000 0.14550500 10773.93673711 0 -11.46229210 0 4070.17553101 0 517.77512549 0 344.18986038 0 23559
0.14650000 0.14650700 10771.43439170 0 -118.66653401 0 3627.85829915 0 498.43066680 0 405.89039043 0 23044
0.14750000 0.14750500 10717.00284289 0 74.93948739 0 3281.92565485 0 287.21056963 0 290.50901520 0 23649
0.14850000 0.14849900 10678.69259902 0 250.70843640 0 2992.31792689 0 190.55249566 0 203.24691607 0 23640
0.14950000 0.14949500 10438.05776373 0 95.46348084 0 2743.81066866 0 288.08749776 0 350.53098081 0 24457
0.15050000 0.15050000 10335.21801082 0 71.06959914 0 2690.27597816 0 129.96473426 0 -49.35223052 0 24591
0.15150000 0.15149900 10349.46809286 0 29.08644368 0 2442.75415684 0 147.10026415 0 -72.95433027 0 25020
0.15250000 0.15250500 10229.94234644 0 103.67471693 0 2524.58970957 0 -78.48861039 0 -50.70626512 0 25297
0.15350000 0.15350100 10117.81291301 0 44.34001052 0 2519.47429551 0 -68.66978346 0 32.42585685 0 25452
0.15450000 0.15450400 10131.08863046 0 139.22341227 0 2856.11725929 0 -27.96448501 0 -104.49971585 0 26061
0.15550000 0.15549900 9950.62080824 0 298.11127342 0 2857.23556410 0 -156.66343109 0 138.48045927 0 26128
0.15650000 0.15649500 9834.93715854 0 335.20245433 0 3086.47697715 0 -144.04319526 0 377.04698428 0 26331
0.15750000 0.15749700 9534.54498621 0 187.47106767 0 3081.88196235 0 79.21417983 0 337.53760763 0 27345
0.15850000 0.15849900 9469.41757163 0 133.84669134 0 3046.80483732 0 302.53245272 0 402.79678288 0 26980
0.15950000 0.15949700 9291.76211991 0 249.79386237 0 2908.55578964 0 -145.67414871 0 -133.36283074 0 27777
0.16050000 0.16050000 9063.77187957 0 231.02848627 0 2782.76310737 0 -13.52628417 0 53.03665733 0 28224
0.16150000 0.16150500 9002.81873144 0 95.02634546 0 2910.19449371 0 197.77386591 0 -124.32559923 0 28075
0.16250000 0.16249700 8906.04661253 0 -30.15259784 0 2348.94942098 0 131.65547826 0 -392.35779504 0 28590
0.16350000 0.16349900 8972.79058653 0 -193.13677628 0 2338.63001425 0 410.07462198 0 -587.62267215 0 29163
0.16450000 0.16449100 9107.17539286 0 -94.00414843 0 2085.49452424 0 276.61103308 0 -827.82457953 0 28996
0.16550000 0.16550500 9141.39994887 0 73.67048824 0 2107.87169270 0 49.35488788 0 -791.37337900 0 30777
0.16650000 0.16650700 9076.79293356 0 284.18007433 0 2163.80907768 0 -161.14440095 0 -601.21837979 0 29211
0.16750000 0.16749900 8698.52910078 0 277.67951243 0 2183.90534723 0 -100.87829057 0 -585.45138925 0 30922
0.16850000 0.16850800 8511.35144972 0 304.27412941 0 2231.04023398 0 138.81595072 0 -538.09284154 0 30867
0.16950000 0.16949900 8234.55440158 0 362.20785456 0 2289.07028836 0 93.65481659 0 -360.93896614 0 30852
0.17050000 0.17049200 8063.73057427 0 229.80499438 0 2233.34327755 0 206.41802990 0 -108.35532080 0 31257
0.17150000 0.17149500 7825.73095230 0 108.58141767 0 2223.44461916 0 165.93207420 0 5.45401683 0 32608
0.17250000 0.17250900 7934.21759087 0 -37.54016368 0 2371.32658944 0 147.21430909 0 -108.38599114 0 32361
0.17350000 0.17350400 7853.75500641 0 47.87174997 0 2333.27100903 0 77.14155135 0 179.48681424 0 32508
0.17450000 0.17449800 7896.95921786 0 45.65163812 0 2314.16017640 0 -144.36318545 0 86.18188312 0 32791
0.17550000 0.17549800 7884.00459782 0 -4.53514674 0 2502.35648134 0 5.59023964 0 624.93862125 0 33633
0.17650000 0.17650100 7997.71737371 0 61.44487007 0 2617.05469414 0 -79.67456710 0 220.43670035 0 33984
0.17750000 0.17750300 7869.21197186 0 122.71457597 0 2608.08611103 0 102.33419056 0 483.36123273 0 34069
0.17850000 0.17849800 7722.54795731 0 254.52949570 0 2551.62832678 0 63.01226837 0 382.82563060 0 34536
