### header ###
fiducial parameters:
Omega_m = 0.31
Omega_nu = 0
Omega_de = 0.69
Omega_k = 0
H_0 = 100
w_de = -1
zeff = 0
beta = 0
fgrowth = 0
b_1 = 2
gamma = 0.55
Lx = 3500 Ly = 3500 Lz = 3500
nx = 700 ny = 700 nz = 700
xoffset = -685.467585 yoffset = -31.7331281 zoffset = 572.489161
bins = 400 dk = 0.001
kx_ny = 0.628318531 ky_ny = 0.628318531 kz_ny = 0.628318531
############################
A(data) = 8.00468827 (not used)
A(ran) = 8.00394066 (used)
Ngal = 475844
weighted Ngal = 0
Nran = 23820508
weighted Nran = 0
SN(data) = 3486.32842
SN(ran) = 69.7172259
SN(data+ran) = 3556.04564
############################
13 columns: k_central k_mean P_0(k) sigma^{lin}_{P_0(k)} P^img_1(k) sigma^{lin}_{P_1(k)} P_2(k) sigma^{lin}_{P_2(k)} P^img_3(k) sigma^{lin}_{P_3(k)} P_4(k) sigma^{lin}_{P_4(k)} N_modes
### header ###
0.00050000 0 0 0 0 0 0 0 0 0 0 0 0
0.00150000 0.00179520 -0.85149057 0 -5796.63885068 0 -4824.20085116 0 8544.43555628 0 12754.76457484 0 3
0.00250000 0.00253879 12746.68177772 0 -30823.69144639 0 -35202.13157267 0 -16370.43224437 0 -35098.60533562 0 6
0.00350000 0.00331552 19538.99943772 0 -27562.11672456 0 -36441.67833612 0 35182.75500424 0 31711.47045035 0 7
0.00450000 0.00420575 49236.41400356 0 -43053.73854807 0 -45574.68546278 0 -12092.08593444 0 -30856.02263486 0 24
0.00550000 0.00557378 76681.38553154 0 -38292.41742956 0 -56187.84097120 0 -39131.14603457 0 -38418.86337899 0 45
0.00650000 0.00659388 117726.49363426 0 -16325.25715911 0 -75887.61056529 0 -54272.88239381 0 -1811.38805103 0 40
0.00750000 0.00754703 109016.00642268 0 20614.89724035 0 -48331.14072638 0 -65946.32372686 0 -305.86743695 0 57
0.00850000 0.00846663 100232.33114404 0 8512.76870729 0 -37858.82518966 0 -81095.81071348 0 2314.06052547 0 75
0.00950000 0.00948925 91436.03341512 0 -6861.97365543 0 -28415.68224483 0 -41053.41234634 0 -8474.33666785 0 112
0.01050000 0.01054430 99003.52453567 0 7686.17537028 0 -6599.31596608 0 -36903.61572756 0 -40480.19809047 0 105
0.01150000 0.01145670 101915.76740947 0 9603.40377426 0 27939.57227763 0 -22804.78164298 0 -51049.72863911 0 144
0.01250000 0.01249090 84703.28486264 0 15187.57578399 0 28962.65509087 0 -14682.89921876 0 -3593.77768336 0 169
0.01350000 0.01339930 69068.16570948 0 7588.06350007 0 27890.18970894 0 24030.37727716 0 3703.59300091 0 180
0.01450000 0.01448870 86555.68480480 0 -13828.66935900 0 47729.91348873 0 35623.87642502 0 -10685.78995923 0 267
0.01550000 0.01550050 102308.28132429 0 -9755.20534752 0 38761.44110888 0 21306.47464852 0 366.10088397 0 238
0.01650000 0.01653350 100425.65393538 0 -1703.96435564 0 35039.92201408 0 12239.12640804 0 24591.85486871 0 315
0.01750000 0.01747870 103368.45642568 0 8102.01867350 0 34337.82589733 0 22902.88244087 0 48150.21893885 0 297
0.01850000 0.01844180 91645.41107744 0 11133.00115865 0 19225.09902911 0 11542.89862344 0 23048.92640523 0 388
0.01950000 0.01947590 86575.39354298 0 4033.12753217 0 17727.78854389 0 13708.86680446 0 12321.17233494 0 399
0.02050000 0.02045430 80430.03182214 0 594.64252608 0 20250.50703057 0 -10565.41164380 0 -8798.20216879 0 462
0.02150000 0.02154770 74270.27607903 0 7322.22805349 0 10459.10625322 0 -8877.92290749 0 -4724.80459126 0 571
0.02250000 0.02255340 71732.83140034 0 8310.61020076 0 18174.22468057 0 -20555.77102582 0 -15115.71639592 0 510
0.02350000 0.02348930 66326.87953088 0 3262.63766501 0 9847.93606788 0 -1721.99010045 0 -16757.29927353 0 555
0.02450000 0.02439640 68890.01200315 0 -3979.58176934 0 19235.50701444 0 -27.92872140 0 -16533.74903544 0 592
0.02550000 0.02547300 68711.52612707 0 -995.95229574 0 19986.09991390 0 4659.57752576 0 -18001.27496691 0 837
0.02650000 0.02652900 71703.48973957 0 6493.75242126 0 28319.13157241 0 5997.57940149 0 -15711.62891766 0 723
0.02750000 0.02749970 63826.97003333 0 6330.84530621 0 18577.14658072 0 6766.26447970 0 -12168.37425244 0 826
0.02850000 0.02848090 62215.17170948 0 2911.42352176 0 22770.01454305 0 2898.52426335 0 2807.44331939 0 831
0.02950000 0.02946900 62463.85612490 0 373.19160078 0 28659.38411409 0 11547.32755337 0 8963.01372372 0 996
0.03050000 0.03053250 61479.30500203 0 -1760.39999524 0 28730.02554643 0 1029.32538998 0 2266.78169850 0 1041
0.03150000 0.03150510 61371.90345129 0 2346.09276117 0 25643.17211024 0 264.44476257 0 7446.96886490 0 1036
0.03250000 0.03246190 59328.94879900 0 4773.84391788 0 30020.83717379 0 -116.05900152 0 12948.97315216 0 1059
0.03350000 0.03345080 58934.44186571 0 2344.55370802 0 33805.80068979 0 1127.16266654 0 21197.63369555 0 1302
0.03450000 0.03451200 57852.67573093 0 -1417.50116793 0 32132.66168645 0 9717.92482986 0 24149.73693870 0 1339
0.03550000 0.03553350 59495.91945727 0 152.23007223 0 35437.52919832 0 10197.73295355 0 15934.62553951 0 1365
0.03650000 0.03647120 59346.00017922 0 1796.62864205 0 32169.64325134 0 7534.09698890 0 16737.59053535 0 1308
0.03750000 0.03744890 54443.72836577 0 6004.25601336 0 29906.23861192 0 1156.07250664 0 19036.98023044 0 1579
0.03850000 0.03847530 48900.36894531 0 5865.96267637 0 22295.23325483 0 1379.96598680 0 15621.72164013 0 1662
0.03950000 0.03950240 46542.73882168 0 1331.53563804 0 22493.87076207 0 4825.15307109 0 13263.75934675 0 1683
0.04050000 0.04050350 44642.06354331 0 -1163.01485430 0 18718.09727567 0 4534.73706343 0 5215.55217187 0 1822
0.04150000 0.04152450 44339.34618277 0 588.43648802 0 14591.10964601 0 4384.28631379 0 -2455.21052226 0 1887
0.04250000 0.04250150 44375.44196167 0 -576.77068659 0 12264.14986213 0 1105.28264546 0 -1764.64069565 0 1920
0.04350000 0.04349210 43294.22944313 0 -992.61288257 0 9251.93496754 0 2965.99901079 0 -3436.66139419 0 2005
0.04450000 0.04448520 45951.25522986 0 -522.97579646 0 15363.29357886 0 275.19045381 0 -881.59289608 0 2151
0.04550000 0.04548030 43894.79234130 0 3200.41119953 0 17019.82409498 0 -3765.38764573 0 -2515.36646300 0 2274
0.04650000 0.04648670 41957.57839103 0 5700.53107126 0 18882.52129922 0 -1034.35111821 0 5481.23260590 0 2311
0.04750000 0.04749250 38829.20373677 0 1821.71853009 0 21826.20957551 0 -1133.25244519 0 8095.60779743 0 2568
0.04850000 0.04851840 37843.54538141 0 288.79612655 0 21551.28375026 0 4321.61695532 0 8885.81747508 0 2493
0.04950000 0.04949480 37680.22859034 0 -1237.60910660 0 20303.87563619 0 5988.42258887 0 6012.48275070 0 2644
0.05050000 0.05050630 38177.04380495 0 -1384.69386950 0 14755.97656256 0 5316.87501629 0 3286.08884898 0 2829
0.05150000 0.05149060 39165.47024151 0 -997.12928387 0 14203.02466112 0 3214.10766533 0 4020.13969515 0 2784
0.05250000 0.05249300 39060.94749522 0 32.64497816 0 10463.18086875 0 1699.64614896 0 -478.97659210 0 3055
0.05350000 0.05348950 38036.97889599 0 1750.94422985 0 9817.83041669 0 -1497.67587194 0 -908.41781742 0 3009
0.05450000 0.05448610 36837.40322514 0 1720.29603475 0 10469.43673227 0 -3093.23109529 0 -1537.76876011 0 3336
0.05550000 0.05550870 35254.17149932 0 2337.42313084 0 11819.70674390 0 -1738.74252790 0 3376.93727411 0 3349
0.05650000 0.05647670 35506.28833544 0 1412.52969409 0 13715.62092260 0 -2059.82887531 0 803.18644234 0 3324
0.05750000 0.05747970 34624.04549389 0 -121.51544319 0 13949.80059252 0 764.62374947 0 1109.48016380 0 3639
0.05850000 0.05849280 35933.79079669 0 -830.03461556 0 15259.54589531 0 1362.05096524 0 -1757.24438267 0 3846
0.05950000 0.05951020 35307.31865845 0 494.22539784 0 15056.25801164 0 -750.71912396 0 -2888.70311124 0 3787
0.06050000 0.06049470 34672.65299985 0 2191.25737091 0 14734.93914541 0 -1010.94975971 0 -1571.20718107 0 3930
0.06150000 0.06148310 33716.66847500 0 1033.59044950 0 14867.47487349 0 -356.76137798 0 -2219.95683684 0 4083
0.06250000 0.06249100 31592.44295855 0 490.64460799 0 14719.65933716 0 1190.47421985 0 -1161.34293325 0 4303
0.06350000 0.06350600 32520.85739459 0 -422.36600976 0 12321.83667443 0 2420.15554189 0 -5328.78883779 0 4470
0.06450000 0.06451750 31914.09399453 0 438.55153418 0 13384.33696403 0 2266.81491547 0 -3798.21708881 0 4479
0.06550000 0.06550280 31671.72080425 0 367.05199667 0 11588.07370870 0 -213.42127534 0 -2839.04373442 0 4636
0.06650000 0.06648880 30975.71446615 0 845.26127666 0 11419.77437146 0 1625.95982729 0 -127.56646870 0 4653
0.06750000 0.06749660 30751.72133507 0 361.12387396 0 10316.46149258 0 2905.14551359 0 1109.83447820 0 5220
0.06850000 0.06852730 29918.19672272 0 -115.23854225 0 11095.79814726 0 1233.81129919 0 406.23252527 0 5029
0.06950000 0.06949320 31123.41927923 0 668.68094768 0 11055.45059562 0 1007.62695503 0 117.55265813 0 5040
0.07050000 0.07048030 29758.75524533 0 520.91412958 0 11612.43282330 0 -1489.30519438 0 866.03627971 0 5475
0.07150000 0.07148790 29415.73462245 0 1103.66165711 0 11351.67957382 0 -1102.17464389 0 805.91687764 0 5509
0.07250000 0.07249820 29146.89857585 0 306.69786131 0 12545.82980551 0 -1158.05445278 0 -1004.22442961 0 5916
0.07350000 0.07351270 28500.05335995 0 550.16056836 0 11589.51311093 0 1058.24519517 0 1306.86649834 0 5721
0.07450000 0.07449140 28285.13953522 0 389.78458675 0 11606.23232140 0 1837.14227856 0 700.07652470 0 6028
0.07550000 0.07549160 28439.26629669 0 -515.28053071 0 10471.45189539 0 4357.38056448 0 2200.60241306 0 6183
0.07650000 0.07648840 28613.43396609 0 16.83801652 0 10252.43023815 0 3282.16924599 0 547.27401328 0 6330
0.07750000 0.07749960 27606.84891683 0 1033.57051931 0 9365.57023715 0 785.26809909 0 1617.42306486 0 6583
0.07850000 0.07848650 27136.05366554 0 1183.99690983 0 9391.92237022 0 427.49581785 0 4070.51877308 0 6549
0.07950000 0.07947320 25137.38831252 0 1177.94034816 0 8865.66584391 0 349.42042663 0 6087.90742736 0 6828
0.08050000 0.08048110 25298.26919214 0 544.57900942 0 9050.38543886 0 1259.93091344 0 4160.47033991 0 7147
0.08150000 0.08149960 23948.66351999 0 1228.65159583 0 8626.47041086 0 315.29441430 0 3211.36172878 0 7386
0.08250000 0.08250610 22952.59717931 0 1119.58919636 0 8582.98939129 0 -426.80379755 0 3792.31553969 0 7227
0.08350000 0.08350160 22330.11107800 0 430.09338526 0 8142.97520300 0 142.96253636 0 2752.08169530 0 7798
0.08450000 0.08449610 22304.53400767 0 -294.88036904 0 7565.18807699 0 -59.91976805 0 2766.63073011 0 7371
0.08550000 0.08548940 22704.46638012 0 -561.13767118 0 7636.71529532 0 190.58349817 0 1880.92225089 0 8256
0.08650000 0.08650700 22660.61997384 0 87.62859308 0 7026.43089596 0 228.11314315 0 482.00155124 0 8037
0.08750000 0.08749060 22281.50357205 0 778.11759172 0 6792.74948067 0 39.77001918 0 419.06534974 0 8155
0.08850000 0.08849210 22082.20172532 0 629.78054889 0 6843.20606487 0 1266.65181460 0 -291.78897595 0 8718
0.08950000 0.08949900 21396.49264930 0 -66.04719261 0 5998.71985095 0 442.91624463 0 785.88482758 0 8571
0.09050000 0.09049190 21519.72762453 0 440.07730054 0 6175.92133734 0 1148.48796414 0 -1013.95700313 0 8932
0.09150000 0.09150830 20740.12523405 0 869.57388749 0 5615.13022993 0 -356.39377680 0 -610.89448445 0 9285
0.09250000 0.09250820 19929.96322707 0 877.19275420 0 6132.42924546 0 253.43776447 0 573.21757756 0 9204
0.09350000 0.09350330 19385.09412274 0 657.88321652 0 6087.46453437 0 40.85876088 0 655.06752432 0 9349
0.09450000 0.09448040 19071.96877687 0 250.18914437 0 6040.79468526 0 652.14110887 0 924.71295786 0 9564
0.09550000 0.09549270 18602.50220456 0 272.82429800 0 5862.84028077 0 529.70112656 0 179.05610080 0 10155
0.09650000 0.09649430 18196.81222320 0 489.61266732 0 5607.53461510 0 793.21249215 0 1028.03546413 0 9913
0.09750000 0.09749140 18103.91541798 0 308.10404657 0 5064.85783109 0 58.54447459 0 894.84868336 0 10476
0.09850000 0.09850240 17672.09475005 0 116.76873754 0 5214.19027592 0 471.14402952 0 1361.15410693 0 10575
0.09950000 0.09950330 18062.50492315 0 43.07012559 0 5706.37725876 0 -249.89794223 0 1234.78566378 0 10882
0.10050000 0.10051200 17714.61247735 0 301.33885610 0 6255.49813582 0 -560.66931184 0 1309.42420538 0 10875
0.10150000 0.10150300 17604.33212216 0 378.64472075 0 6142.22825292 0 85.96530845 0 1546.92557274 0 11118
0.10250000 0.10250800 17205.50698219 0 548.60712118 0 7415.94421076 0 -845.87357622 0 1334.23728530 0 11575
0.10350000 0.10349800 16914.52628596 0 612.58412122 0 6919.04041755 0 -612.60958757 0 930.15721997 0 11364
0.10450000 0.10450100 16883.74522296 0 163.16288576 0 7664.15251622 0 -211.12487518 0 1416.53787567 0 12093
0.10550000 0.10551000 16189.51045683 0 298.38808154 0 7585.60544396 0 -36.64064801 0 187.69362140 0 12067
0.10650000 0.10649700 16195.60023548 0 323.57651327 0 7478.86823270 0 530.93458354 0 -117.63237887 0 12054
0.10750000 0.10749900 15869.07737658 0 31.72176771 0 6994.58688979 0 1115.48136385 0 -70.69568673 0 12807
0.10850000 0.10850100 15644.08773627 0 -107.52356776 0 6282.87999509 0 1643.19943704 0 343.24096215 0 12736
0.10950000 0.10950300 15925.54623316 0 -486.88112479 0 5155.51802671 0 1562.92508210 0 170.65995689 0 12933
0.11050000 0.11050200 16169.91244190 0 -7.96109012 0 5057.87119413 0 907.17550258 0 -351.47877181 0 13428
0.11150000 0.11150900 16212.09799946 0 233.51090150 0 4548.95392849 0 90.49743244 0 -616.87243262 0 13453
0.11250000 0.11250000 15751.82145675 0 362.39497685 0 4749.81697303 0 -1044.71813594 0 263.46486183 0 13668
0.11350000 0.11349100 15679.18700594 0 296.98853968 0 5237.17642225 0 -800.40396712 0 -522.01582590 0 13791
0.11450000 0.11448600 15265.41422747 0 369.71931972 0 4993.74028878 0 134.91295622 0 128.09461859 0 14205
0.11550000 0.11549300 14928.59410648 0 371.80534571 0 4651.42829469 0 665.25184868 0 -544.78606189 0 14776
0.11650000 0.11649800 14796.72271789 0 262.69976418 0 4376.41389084 0 998.57422226 0 -338.32042100 0 14553
0.11750000 0.11747300 14567.08270116 0 243.69965479 0 4607.34936959 0 390.84863717 0 -458.26691576 0 14568
0.11850000 0.11849100 14105.69892596 0 408.58760876 0 4234.84314571 0 213.98042775 0 -737.32271816 0 16015
0.11950000 0.11950300 13756.14563144 0 297.78353260 0 4210.92692410 0 -371.32259235 0 61.01216362 0 15270
0.12050000 0.12050700 13603.45827219 0 164.59010843 0 4321.04119443 0 -27.34742435 0 651.69821587 0 15999
0.12150000 0.12150000 13691.81542424 0 59.19187342 0 4818.05571089 0 191.13711441 0 1107.08521994 0 15670
0.12250000 0.12250700 13624.82785909 0 121.58409160 0 4560.38056771 0 513.08599593 0 553.84322359 0 16887
0.12350000 0.12352200 13560.82982164 0 174.67035294 0 4537.66015718 0 -100.08252259 0 972.16451310 0 16407
0.12450000 0.12449800 13280.47855723 0 236.72409016 0 4823.89082606 0 22.06681119 0 1556.65814625 0 16306
0.12550000 0.12549900 13331.85414439 0 62.37450246 0 4715.26024727 0 305.06469340 0 1598.62225732 0 17523
0.12650000 0.12650100 13222.68102168 0 118.99538206 0 4671.85673398 0 412.46624414 0 1269.65241463 0 17154
0.12750000 0.12750600 13251.02617321 0 175.24057767 0 4366.65917268 0 385.06113299 0 1266.69610390 0 18007
0.12850000 0.12850300 13013.41408260 0 194.44884677 0 4088.99848320 0 86.32892359 0 1139.07648804 0 17496
0.12950000 0.12949900 12818.20899605 0 53.15701350 0 3621.12632566 0 -55.99695409 0 520.49338124 0 18405
0.13050000 0.13049000 12872.68483416 0 4.78235854 0 3780.99962372 0 34.96496238 0 673.74875075 0 18100
0.13150000 0.13148800 12926.05343978 0 -34.57156267 0 3631.73361284 0 190.56024629 0 -367.82263048 0 19059
0.13250000 0.13249300 12807.02594798 0 99.82199079 0 3431.91136684 0 -340.41641208 0 -327.68988194 0 18957
0.13350000 0.13349100 12623.00390950 0 416.99150330 0 3957.91322967 0 -470.91704686 0 -195.36009910 0 19468
0.13450000 0.13450700 12333.79478523 0 418.06219711 0 4166.32759973 0 -296.45817532 0 -226.39250387 0 19953
0.13550000 0.13551000 12143.57224485 0 15.86165892 0 4187.53110176 0 242.21707050 0 109.65244365 0 19956
0.13650000 0.13649900 12201.59122690 0 143.50618751 0 4576.54616194 0 94.00514494 0 -278.08586675 0 19723
0.13750000 0.13749600 12152.31938146 0 216.29011470 0 4332.21317017 0 141.69143347 0 -9.68654586 0 20946
0.13850000 0.13851100 11842.95862602 0 270.99625717 0 4501.90762034 0 -41.17288273 0 489.79646791 0 20955
0.13950000 0.13949800 11557.73553870 0 105.29758758 0 3841.87526557 0 348.53574787 0 324.89079822 0 20506
0.14050000 0.14048300 11556.73902946 0 8.92273261 0 3943.38633951 0 771.51405720 0 191.19247604 0 21447
0.14150000 0.14148400 11567.03629154 0 -52.99535756 0 3385.28580703 0 949.38541925 0 95.19973807 0 21771
0.14250000 0.14249400 11497.05919869 0 31.94299276 0 3162.88709072 0 547.75787387 0 -116.70673252 0 22470
0.14350000 0.14350900 11393.53296164 0 186.20660817 0 2929.15031380 0 50.61381121 0 -48.97654654 0 22519
0.14450000 0.14449900 11203.97476074 0 457.76866114 0 3155.75651354 0 -684.86204317 0 -57.37844806 0 22218
0.14550000 0.14550500 10797.08896830 0 498.13282127 0 3207.71893391 0 -207.30381588 0 176.03889229 0 23559
0.14650000 0.14650700 10504.08203663 0 142.74994772 0 3392.74855396 0 -60.18063202 0 195.31802427 0 23044
0.14750000 0.14750500 10531.97322285 0 53.38167097 0 3367.37078547 0 357.06808138 0 29.72088789 0 23649
0.14850000 0.14849900 10430.47322123 0 89.18126519 0 3522.73764733 0 431.80516667 0 -66.09712879 0 23640
0.14950000 0.14949500 10338.62828686 0 207.01814990 0 3095.60057280 0 481.51436895 0 39.53993627 0 24457
0.15050000 0.15050000 9962.95537809 0 133.80129481 0 2855.86259582 0 234.51183966 0 590.96872871 0 24591
0.15150000 0.15149900 9923.41610616 0 219.03494403 0 2672.60454775 0 438.39762887 0 429.25521027 0 25020
0.15250000 0.15250500 9842.04559107 0 -11.67654158 0 2820.65260290 0 302.87348032 0 784.09443266 0 25297
0.15350000 0.15350100 9846.05377266 0 10.90829940 0 2426.31175448 0 157.10964578 0 363.29737132 0 25452
0.15450000 0.15450400 9676.53647968 0 144.31003829 0 2291.47298284 0 159.98512854 0 485.62330869 0 26061
0.15550000 0.15549900 9743.80085296 0 180.43681971 0 2209.60421313 0 -178.39840471 0 231.27097018 0 26128
0.15650000 0.15649500 9549.80264981 0 50.69264616 0 2148.82822220 0 -154.31056207 0 -31.21255149 0 26331
0.15750000 0.15749700 9555.41631849 0 192.47465125 0 2350.82064387 0 -283.45483705 0 230.18256065 0 27345
0.15850000 0.15849900 9332.97331289 0 174.31271685 0 2297.11986850 0 -193.88194374 0 28.73700111 0 26980
0.15950000 0.15949700 9219.06123515 0 158.63541214 0 2465.28633785 0 -108.92665276 0 -31.12917689 0 27777
0.16050000 0.16050000 9135.11086838 0 115.37694631 0 2699.49922473 0 -28.06801125 0 -166.28638859 0 28224
0.16150000 0.16150500 9060.42803747 0 161.21194213 0 2699.65423728 0 22.79215919 0 1.36132019 0 28075
0.16250000 0.16249700 8944.61151987 0 108.55672639 0 2730.55709585 0 451.30242345 0 326.18626023 0 28590
0.16350000 0.16349900 8854.38314492 0 39.29335559 0 2646.06418516 0 327.52158260 0 140.94072985 0 29163
0.16450000 0.16449100 8856.36509107 0 72.90705145 0 2373.21995698 0 417.15537370 0 143.46411268 0 28996
0.16550000 0.16550500 8683.92470434 0 43.78218680 0 2463.42618728 0 165.95421885 0 420.78488178 0 30777
0.16650000 0.16650700 8625.96108392 0 185.31417879 0 2236.86427684 0 133.17460122 0 726.39654803 0 29211
0.16750000 0.16749900 8667.00619202 0 66.83764587 0 2333.75819133 0 -14.46765322 0 514.97272008 0 30922
0.16850000 0.16850800 8556.77012612 0 -21.38852058 0 2290.91936660 0 43.51047195 0 981.54941562 0 30867
0.16950000 0.16949900 8621.78681746 0 81.26787464 0 2306.89673132 0 19.03698023 0 752.70549903 0 30852
0.17050000 0.17049200 8582.03717136 0 52.82085772 0 2290.53183523 0 143.83171386 0 862.25508079 0 31257
0.17150000 0.17149500 8598.94461136 0 131.24137331 0 2439.54318264 0 64.73777947 0 848.87528348 0 32608
0.17250000 0.17250900 8358.86339232 0 228.28808588 0 2312.44396605 0 155.93044319 0 1046.40666547 0 32361
0.17350000 0.17350400 8260.98404092 0 214.80863764 0 2118.67828172 0 333.75862317 0 956.30230056 0 32508
0.17450000 0.17449800 8066.56508943 0 29.56044991 0 1786.20958439 0 233.32710090 0 710.76685432 0 32791
0.17550000 0.17549800 8111.85089794 0 21.86440910 0 1861.31316364 0 154.67041262 0 686.58157521 0 33633
0.17650000 0.17650100 8027.50192747 0 44.48339713 0 1547.22452551 0 -48.26913571 0 262.87138522 0 33984
0.17750000 0.17750300 7949.48632680 0 133.64849672 0 1516.65383668 0 -190.70529375 0 383.57965592 0 34069
0.17850000 0.17849800 7859.29116882 0 225.06714659 0 1683.62449495 0 -389.19221738 0 214.24062738 0 34536
