### header ###
fiducial parameters:
Omega_m = 0.31
Omega_nu = 0
Omega_de = 0.69
Omega_k = 0
H_0 = 100
w_de = -1
zeff = 0
beta = 0
fgrowth = 0
b_1 = 2
gamma = 0.55
Lx = 3500 Ly = 3500 Lz = 3500
nx = 700 ny = 700 nz = 700
xoffset = -685.467585 yoffset = -31.7331281 zoffset = 572.489161
bins = 400 dk = 0.001
kx_ny = 0.628318531 ky_ny = 0.628318531 kz_ny = 0.628318531
############################
A(data) = 7.98305196 (not used)
A(ran) = 7.98061154 (used)
Ngal = 474081
weighted Ngal = 0
Nran = 23820508
weighted Nran = 0
SN(data) = 3489.40797
SN(ran) = 69.5140208
SN(data+ran) = 3558.92199
############################
13 columns: k_central k_mean P_0(k) sigma^{lin}_{P_0(k)} P^img_1(k) sigma^{lin}_{P_1(k)} P_2(k) sigma^{lin}_{P_2(k)} P^img_3(k) sigma^{lin}_{P_3(k)} P_4(k) sigma^{lin}_{P_4(k)} N_modes
### header ###
0.00050000 0 0 0 0 0 0 0 0 0 0 0 0
0.00150000 0.00179520 28071.33294297 0 -44590.13433991 0 -45160.69123781 0 69927.71028515 0 -66879.60998583 0 3
0.00250000 0.00253879 52982.29221295 0 -47157.14212586 0 -31536.97061121 0 26.59428481 0 38196.42037338 0 6
0.00350000 0.00331552 79599.49673749 0 -43482.90185804 0 -28411.36403815 0 -95460.38059370 0 -38608.20013339 0 7
0.00450000 0.00420575 96923.25614874 0 -18594.53013069 0 -38180.25477915 0 -51788.25270451 0 12197.49446672 0 24
0.00550000 0.00557378 93187.89664792 0 13008.87442943 0 -13881.48434839 0 -74207.27455081 0 17696.34314140 0 45
0.00650000 0.00659388 75587.66128595 0 17020.15626473 0 909.64905994 0 -16195.37878899 0 35192.60937333 0 40
0.00750000 0.00754703 72747.38852347 0 14611.15055393 0 37477.93721590 0 -23475.54308049 0 18632.50820482 0 57
0.00850000 0.00846663 64420.88953660 0 7497.84619744 0 38556.27092999 0 8756.88025257 0 12071.71285678 0 75
0.00950000 0.00948925 69571.29214924 0 -2408.59603477 0 49651.62618426 0 20699.82197171 0 1444.24083237 0 112
0.01050000 0.01054430 81362.98591136 0 -4003.22118283 0 47226.12270948 0 21630.22942622 0 -4920.59651103 0 105
0.01150000 0.01145670 77979.61561652 0 -76.15788601 0 71435.31803246 0 1070.72924140 0 7878.35771216 0 144
0.01250000 0.01249090 82321.29562441 0 11430.07163354 0 51906.17296383 0 36483.19955419 0 14578.81936546 0 169
0.01350000 0.01339930 76713.60599676 0 -11785.38253697 0 45738.77731659 0 13893.88535218 0 38401.81199877 0 180
0.01450000 0.01448870 87871.96277924 0 -7203.45522516 0 54080.33466522 0 38415.98457453 0 7318.24201656 0 267
0.01550000 0.01550050 89723.80910516 0 3155.80080284 0 42030.43428833 0 18893.70434729 0 36870.62019960 0 238
0.01650000 0.01653350 82464.57150756 0 12285.63017227 0 44130.52213669 0 23574.75111087 0 27785.77768590 0 315
0.01750000 0.01747870 78656.46683269 0 4670.15159596 0 19707.63094471 0 20484.24380749 0 40313.33815546 0 297
0.01850000 0.01844180 78377.66569375 0 -2990.20311285 0 24832.23504052 0 7633.95828644 0 16582.35654140 0 388
0.01950000 0.01947590 79455.77796134 0 -3543.47611171 0 16096.17075861 0 622.03988661 0 11401.06214251 0 399
0.02050000 0.02045430 83384.01736050 0 2762.10214926 0 18387.03476359 0 -1329.34331773 0 3750.66145372 0 462
0.02150000 0.02154770 78294.40181112 0 5251.43757661 0 5997.60154614 0 -16582.91015764 0 -9122.28911624 0 571
0.02250000 0.02255340 74098.54432109 0 4739.74115744 0 8678.15602311 0 -12630.09019738 0 -20702.47932966 0 510
0.02350000 0.02348930 67610.71559360 0 5560.45508998 0 17525.38644620 0 -14456.35945297 0 -33847.87552411 0 555
0.02450000 0.02439640 69262.37428680 0 2668.43028129 0 22140.77432361 0 -15366.17238332 0 -44956.62829141 0 592
0.02550000 0.02547300 61322.96377559 0 7470.11002377 0 31706.04501119 0 -14510.28167484 0 -38055.02678545 0 837
0.02650000 0.02652900 63171.82057381 0 251.67062143 0 40662.33783374 0 -8103.39164177 0 -31892.17079139 0 723
0.02750000 0.02749970 62257.46799028 0 -5412.39596250 0 39577.36072476 0 6988.39746021 0 -28967.41619054 0 826
0.02850000 0.02848090 69064.84401204 0 -3172.94076166 0 39179.31064753 0 16257.71597771 0 -28498.72468097 0 831
0.02950000 0.02946900 71993.25248007 0 579.53876780 0 40266.28077498 0 11355.11199451 0 -20075.01068219 0 996
0.03050000 0.03053250 68563.26769775 0 3210.05519445 0 33167.48116400 0 9001.10252110 0 -5729.10874161 0 1041
0.03150000 0.03150510 66674.32908369 0 1412.40789852 0 33778.00915450 0 10880.03175352 0 4711.08598081 0 1036
0.03250000 0.03246190 68272.06555502 0 565.89766362 0 31311.09518491 0 9518.58976614 0 -125.19588396 0 1059
0.03350000 0.03345080 62027.27435730 0 4823.28184820 0 28451.11368425 0 6039.43278931 0 4550.85836836 0 1302
0.03450000 0.03451200 58767.69265394 0 5016.70429046 0 25725.32876039 0 4384.19773519 0 6172.04602366 0 1339
0.03550000 0.03553350 55898.29967719 0 87.25191259 0 21570.21742570 0 2685.50380616 0 15277.04016853 0 1365
0.03650000 0.03647120 55142.17061533 0 253.16759975 0 20985.70939852 0 5398.13480813 0 -241.85168378 0 1308
0.03750000 0.03744890 55699.44072345 0 1814.77618243 0 21276.69009476 0 -1302.24933890 0 377.62938857 0 1579
0.03850000 0.03847530 52307.10184551 0 4777.14347068 0 20533.07275994 0 -374.80483851 0 -4033.63685911 0 1662
0.03950000 0.03950240 48981.08619324 0 5099.66922032 0 19272.37785609 0 -5644.74869882 0 -3059.83696363 0 1683
0.04050000 0.04050350 43808.76037746 0 2702.13443804 0 19226.98132433 0 -978.62853633 0 -2764.21696330 0 1822
0.04150000 0.04152450 42499.56869090 0 -905.40060891 0 19810.16067253 0 3335.80358741 0 -10922.63805942 0 1887
0.04250000 0.04250150 42814.68705524 0 -707.44737134 0 18027.40565348 0 5700.58643288 0 -8383.89791873 0 1920
0.04350000 0.04349210 45425.98414047 0 -794.64192928 0 18299.78484402 0 2282.71477391 0 -18652.43838949 0 2005
0.04450000 0.04448520 42829.96686349 0 371.16647257 0 11929.10131311 0 4328.51501368 0 -6574.30358432 0 2151
0.04550000 0.04548030 43939.41381032 0 2486.39018895 0 14831.04692483 0 2170.69606372 0 -2197.33607723 0 2274
0.04650000 0.04648670 42529.02107492 0 -313.31689709 0 13061.91086531 0 1563.50084299 0 2498.40366138 0 2311
0.04750000 0.04749250 42976.23227434 0 1219.71622970 0 15625.59695382 0 6442.18860458 0 2523.88108079 0 2568
0.04850000 0.04851840 40257.53363837 0 2613.07972953 0 14946.97416568 0 770.70799195 0 11100.55924693 0 2493
0.04950000 0.04949480 39366.76510671 0 2387.50325600 0 15369.49408076 0 2688.65941874 0 13882.92375061 0 2644
0.05050000 0.05050630 36923.98880522 0 144.87583409 0 16885.07390194 0 4060.04435380 0 11935.63398476 0 2829
0.05150000 0.05149060 37887.83468068 0 -41.60005302 0 16928.25596873 0 3142.48079608 0 13689.26878953 0 2784
0.05250000 0.05249300 37155.17894744 0 611.81902357 0 15232.52942276 0 1155.30851623 0 9237.58523457 0 3055
0.05350000 0.05348950 37262.13760518 0 124.93900602 0 13409.69258786 0 -849.55069529 0 8195.61303519 0 3009
0.05450000 0.05448610 36287.21940490 0 1097.26296060 0 13688.60445004 0 -3576.05089133 0 1396.35302753 0 3336
0.05550000 0.05550870 35944.53095176 0 1962.95710547 0 13571.56997671 0 -4062.88994128 0 -1189.49985527 0 3349
0.05650000 0.05647670 33698.17769256 0 1428.72850530 0 14705.48676139 0 -2967.81487207 0 -3679.01243982 0 3324
0.05750000 0.05747970 32044.30453440 0 931.19580404 0 12172.36028938 0 260.22731405 0 -4942.23183373 0 3639
0.05850000 0.05849280 32730.45650341 0 -382.55103695 0 13813.16810425 0 2724.88806554 0 -4827.04643864 0 3846
0.05950000 0.05951020 32386.10720155 0 -765.16297168 0 11156.25304077 0 4751.93178707 0 -4697.67739546 0 3787
0.06050000 0.06049470 33705.92831993 0 -1157.89944023 0 10353.57592537 0 5356.02675685 0 -2147.72098972 0 3930
0.06150000 0.06148310 34765.21763533 0 -1266.53001903 0 8570.62160447 0 866.39723750 0 -445.83601668 0 4083
0.06250000 0.06249100 35659.41858768 0 590.55240929 0 10940.33163448 0 -574.74445115 0 1655.78867035 0 4303
0.06350000 0.06350600 36088.58189765 0 1133.67319353 0 13019.28241476 0 -2302.13563164 0 3349.07930487 0 4470
0.06450000 0.06451750 32991.32047613 0 2359.27990003 0 14034.61460063 0 -1754.38772286 0 4631.59776094 0 4479
0.06550000 0.06550280 32581.20156485 0 2322.98481928 0 16366.77837718 0 1181.08488841 0 5846.99578396 0 4636
0.06650000 0.06648880 31288.39691903 0 343.95734156 0 15078.40266128 0 2529.55011109 0 2936.24767401 0 4653
0.06750000 0.06749660 30216.15298359 0 -132.09504955 0 13000.01656957 0 3057.15746103 0 2497.29642890 0 5220
0.06850000 0.06852730 30250.58791378 0 -396.06370216 0 11412.79880682 0 2476.41402429 0 -201.25057590 0 5029
0.06950000 0.06949320 30673.10782885 0 50.06993862 0 8186.55587349 0 -292.47546008 0 -380.64438262 0 5040
0.07050000 0.07048030 29959.49649429 0 653.58715449 0 8661.99042888 0 -245.37268307 0 -888.40348308 0 5475
0.07150000 0.07148790 29116.67112910 0 1284.95436753 0 7408.07178781 0 -705.34805855 0 -1840.65220553 0 5509
0.07250000 0.07249820 28065.46461082 0 1140.31658842 0 7920.67613762 0 -1145.64237666 0 -1401.72310507 0 5916
0.07350000 0.07351270 27281.43329041 0 1120.88465837 0 10182.38671135 0 -226.33824948 0 -1437.22097843 0 5721
0.07450000 0.07449140 26701.02202341 0 1151.37784092 0 11494.73401048 0 -437.36790266 0 -1142.27638992 0 6028
0.07550000 0.07549160 26111.97434306 0 412.52492747 0 12263.70696913 0 -182.31025707 0 -984.63195085 0 6183
0.07650000 0.07648840 25683.80754232 0 552.97515333 0 13979.69586953 0 392.95459335 0 132.70513465 0 6330
0.07750000 0.07749960 25499.78550384 0 428.19891048 0 12758.86133502 0 579.38707695 0 344.94388570 0 6583
0.07850000 0.07848650 25271.58488933 0 -352.71555049 0 12684.56603549 0 1945.30781971 0 1282.86169814 0 6549
0.07950000 0.07947320 25569.87331994 0 -83.47735706 0 11830.55762223 0 1716.23249154 0 1380.55282001 0 6828
0.08050000 0.08048110 25031.64761051 0 396.19546282 0 10378.93154920 0 2214.67533790 0 1835.11604312 0 7147
0.08150000 0.08149960 24758.93625022 0 412.43524163 0 10276.29109813 0 1114.62879484 0 1689.06100643 0 7386
0.08250000 0.08250610 24428.53807763 0 540.09693233 0 9240.27580950 0 385.31468922 0 4361.77627743 0 7227
0.08350000 0.08350160 24092.05012640 0 483.60371664 0 9766.76485463 0 955.45526772 0 4201.85869008 0 7798
0.08450000 0.08449610 23758.88387260 0 219.79229105 0 8202.32286403 0 1147.70182908 0 3375.83004163 0 7371
0.08550000 0.08548940 23456.27723531 0 315.64097807 0 9056.47521751 0 667.32126619 0 3642.32982769 0 8256
0.08650000 0.08650700 23103.07007359 0 447.11819190 0 8290.70216073 0 793.50480152 0 3010.44332262 0 8037
0.08750000 0.08749060 22427.10464342 0 481.16337625 0 7319.49318926 0 640.76208065 0 2416.13628798 0 8155
0.08850000 0.08849210 21885.33579004 0 922.15525082 0 7402.38061286 0 275.64995529 0 720.12850495 0 8718
0.08950000 0.08949900 20588.54510728 0 1082.05844416 0 6829.36565884 0 95.93327959 0 1271.60114380 0 8571
0.09050000 0.09049190 19696.00500365 0 977.98301979 0 6423.33243542 0 360.11297070 0 1096.84221225 0 8932
0.09150000 0.09150830 19183.35636455 0 227.32922255 0 5971.21619610 0 588.66568515 0 102.84993945 0 9285
0.09250000 0.09250820 18894.03651703 0 468.07810278 0 5857.31519069 0 538.92880206 0 419.75404834 0 9204
0.09350000 0.09350330 18542.37948079 0 265.97606510 0 5274.21334876 0 315.69855416 0 808.50558719 0 9349
0.09450000 0.09448040 18236.11897631 0 37.27420644 0 5057.46151811 0 424.80635015 0 1528.21334379 0 9564
0.09550000 0.09549270 18530.64281649 0 33.91807406 0 5252.06869913 0 154.77670694 0 767.12055871 0 10155
0.09650000 0.09649430 18247.96636387 0 160.51438566 0 5654.08266864 0 766.65995000 0 1914.99179436 0 9913
0.09750000 0.09749140 18304.98883668 0 122.96370327 0 5104.49675394 0 87.87484158 0 1179.42403968 0 10476
0.09850000 0.09850240 17896.53077412 0 182.04119958 0 5403.21700523 0 270.37842144 0 2226.00232619 0 10575
0.09950000 0.09950330 17883.35470759 0 545.26770802 0 5753.33498832 0 -46.81976839 0 1506.16834508 0 10882
0.10050000 0.10051200 17606.65731037 0 93.04583872 0 5945.57269182 0 -74.26772944 0 1062.54014997 0 10875
0.10150000 0.10150300 17458.50960430 0 214.11108118 0 6765.58906789 0 -1003.81807529 0 1408.42186158 0 11118
0.10250000 0.10250800 17260.31499004 0 693.02566826 0 6452.65195154 0 -110.51807801 0 986.68254540 0 11575
0.10350000 0.10349800 17007.64453768 0 353.09643847 0 6272.74881788 0 11.55496746 0 1562.47111678 0 11364
0.10450000 0.10450100 16671.37803294 0 -51.13155312 0 5657.95798233 0 487.48678095 0 941.62593402 0 12093
0.10550000 0.10551000 16839.01303069 0 -50.87954701 0 5706.80907943 0 744.52747992 0 630.74273392 0 12067
0.10650000 0.10649700 16524.44828260 0 83.79491133 0 4772.08341824 0 724.01046203 0 40.70862015 0 12054
0.10750000 0.10749900 16441.73801620 0 256.37857394 0 4574.32062465 0 472.09624946 0 250.79147884 0 12807
0.10850000 0.10850100 16404.64572806 0 331.10680138 0 4650.84146147 0 42.28864090 0 139.15919279 0 12736
0.10950000 0.10950300 15766.10475577 0 387.23795204 0 4958.20919844 0 51.97603933 0 792.43189325 0 12933
0.11050000 0.11050200 15542.55451768 0 480.83231374 0 5197.12782338 0 -335.67634983 0 1194.36060586 0 13428
0.11150000 0.11150900 15174.51044071 0 437.05898480 0 5700.97396425 0 241.69445677 0 1490.45671616 0 13453
0.11250000 0.11250000 14994.36371591 0 47.61896879 0 5719.08828765 0 890.55594302 0 1857.05031858 0 13668
0.11350000 0.11349100 14961.03601820 0 -235.41312690 0 5462.88576367 0 135.03475179 0 1583.68569114 0 13791
0.11450000 0.11448600 15122.91340705 0 163.93351957 0 5497.54214036 0 389.61407295 0 1747.03569919 0 14205
0.11550000 0.11549300 15105.41913384 0 67.69265080 0 5647.78251582 0 -543.66000646 0 1305.52674704 0 14776
0.11650000 0.11649800 15038.43156869 0 120.67062480 0 5335.04470132 0 86.02853142 0 1678.23227276 0 14553
0.11750000 0.11747300 15129.00318570 0 73.85063497 0 5030.95437250 0 338.16762291 0 933.64721675 0 14568
0.11850000 0.11849100 14925.16168579 0 79.90354278 0 4753.34904464 0 429.94723057 0 607.08117578 0 16015
0.11950000 0.11950300 14722.09524862 0 419.21814782 0 4735.92120538 0 -15.06799468 0 -224.40502156 0 15270
0.12050000 0.12050700 14148.77026951 0 581.50631992 0 4878.66561694 0 196.83714723 0 -701.61447062 0 15999
0.12150000 0.12150000 13621.39543840 0 520.35054825 0 4408.51256049 0 -378.87391788 0 -430.46098644 0 15670
0.12250000 0.12250700 13157.79719824 0 499.96196933 0 4722.94444069 0 -81.09603216 0 -724.72462698 0 16887
0.12350000 0.12352200 13038.99115293 0 -30.29365926 0 4603.13081383 0 -143.11754891 0 -528.63818337 0 16407
0.12450000 0.12449800 13253.79425442 0 -139.02078873 0 4378.55084953 0 675.59782899 0 -441.88762565 0 16306
0.12550000 0.12549900 13264.31296299 0 -115.32490638 0 4312.02832202 0 290.83786324 0 -279.90947865 0 17523
0.12650000 0.12650100 13417.00032224 0 -63.42537681 0 4157.35901663 0 166.13137604 0 -599.63060841 0 17154
0.12750000 0.12750600 13334.29005585 0 260.41332911 0 4027.53600813 0 230.59555837 0 -449.52088638 0 18007
0.12850000 0.12850300 13031.46197206 0 399.45626248 0 4251.60664549 0 -122.73782785 0 143.95904559 0 17496
0.12950000 0.12949900 12970.34273906 0 149.29812062 0 4284.11499116 0 123.49296040 0 81.19236139 0 18405
0.13050000 0.13049000 12692.42738611 0 162.73992295 0 4402.01310582 0 -162.72552893 0 173.13905042 0 18100
0.13150000 0.13148800 12592.33356975 0 270.54450632 0 4445.50519771 0 223.63770945 0 382.33623385 0 19059
0.13250000 0.13249300 12474.85620342 0 186.04605946 0 4150.83741731 0 238.82783187 0 778.91812081 0 18957
0.13350000 0.13349100 12323.05463016 0 -8.22637195 0 4222.03246590 0 429.41243728 0 469.53189903 0 19468
0.13450000 0.13450700 12370.66562688 0 41.25072117 0 4152.33218116 0 219.25306883 0 144.22810309 0 19953
0.13550000 0.13551000 12091.97521120 0 137.80061853 0 4282.08875571 0 369.83557913 0 398.02239642 0 19956
0.13650000 0.13649900 12150.32636299 0 50.03362139 0 3760.03971284 0 22.01277825 0 -36.66124254 0 19723
0.13750000 0.13749600 11939.06640545 0 121.90629625 0 3863.83168569 0 492.42503782 0 971.65629339 0 20946
0.13850000 0.13851100 11918.58260454 0 312.54515605 0 3632.57510953 0 115.31604852 0 29.64659259 0 20955
0.13950000 0.13949800 11466.49958219 0 241.88268629 0 3579.64939689 0 275.84704267 0 790.63374770 0 20506
0.14050000 0.14048300 11518.31806234 0 219.61845555 0 3530.42184075 0 298.31943312 0 344.55967603 0 21447
0.14150000 0.14148400 11320.89851082 0 30.61054919 0 3032.22258554 0 147.69152629 0 842.15881124 0 21771
0.14250000 0.14249400 11241.39921863 0 -107.87334250 0 3181.46645177 0 330.21215753 0 535.08338365 0 22470
0.14350000 0.14350900 11400.39780302 0 111.12406634 0 3171.92210777 0 136.69781498 0 306.84180154 0 22519
0.14450000 0.14449900 11206.96428844 0 246.95602552 0 2679.84584818 0 40.97025919 0 -137.67107233 0 22218
0.14550000 0.14550500 10947.40685004 0 386.69430090 0 2889.41174002 0 12.88165342 0 181.65145374 0 23559
0.14650000 0.14650700 10680.04342265 0 346.01347228 0 2484.87328045 0 -89.78459617 0 85.97782017 0 23044
0.14750000 0.14750500 10470.85398985 0 233.36806851 0 2624.51744106 0 103.61260119 0 -188.09886848 0 23649
0.14850000 0.14849900 10169.86391198 0 219.62067001 0 2715.95269942 0 112.32430636 0 -158.80038978 0 23640
0.14950000 0.14949500 10112.11066572 0 155.45544045 0 2995.75034758 0 79.39189065 0 140.75582202 0 24457
0.15050000 0.15050000 10004.42123454 0 159.18902838 0 3115.33145562 0 -73.69606531 0 515.74003219 0 24591
0.15150000 0.15149900 10029.59970118 0 63.23172185 0 3406.93220205 0 -223.66760473 0 775.34618882 0 25020
0.15250000 0.15250500 9918.46677697 0 51.19555116 0 3787.12261935 0 -150.54929333 0 1007.33575289 0 25297
0.15350000 0.15350100 10080.41059977 0 136.80964546 0 3796.43444452 0 -78.72135066 0 1078.16541475 0 25452
0.15450000 0.15450400 9948.17382446 0 16.82550479 0 3840.13691058 0 93.20018693 0 1067.91244197 0 26061
0.15550000 0.15549900 10038.82294775 0 -126.48248810 0 3668.39408032 0 327.40643042 0 965.04722271 0 26128
0.15650000 0.15649500 9988.48815912 0 54.29248041 0 3422.87634979 0 533.76688423 0 689.89662927 0 26331
0.15750000 0.15749700 9947.00015803 0 186.88866338 0 3236.89450981 0 101.89196191 0 601.25159677 0 27345
0.15850000 0.15849900 9649.35392225 0 249.54584230 0 2944.12009695 0 -54.35647845 0 163.93130510 0 26980
0.15950000 0.15949700 9521.52393222 0 269.57899959 0 3120.11469995 0 -315.79377615 0 701.66651055 0 27777
0.16050000 0.16050000 9404.17943379 0 65.44197933 0 3025.67884157 0 32.22677645 0 389.16564380 0 28224
0.16150000 0.16150500 9443.30902970 0 135.67141047 0 3426.36413210 0 250.46816696 0 619.38695759 0 28075
0.16250000 0.16249700 9312.56701824 0 106.64365011 0 3201.46307039 0 221.17854611 0 833.38952998 0 28590
0.16350000 0.16349900 9177.57323406 0 95.99196291 0 3029.29949178 0 490.06773987 0 883.54051802 0 29163
0.16450000 0.16449100 9180.40774921 0 93.18357844 0 2896.96306555 0 300.87603292 0 1063.62966673 0 28996
0.16550000 0.16550500 9043.36558493 0 167.45341163 0 2937.07809837 0 118.67317741 0 858.44730828 0 30777
0.16650000 0.16650700 8860.69437007 0 239.53092450 0 2772.06724160 0 -17.30859033 0 792.68766395 0 29211
0.16750000 0.16749900 8605.49942765 0 127.65061837 0 2663.43666280 0 -116.42328100 0 764.96920600 0 30922
0.16850000 0.16850800 8606.80596198 0 129.09223506 0 2569.83122878 0 15.78692073 0 539.71161543 0 30867
0.16950000 0.16949900 8397.97084357 0 92.58279410 0 2613.67763507 0 -62.80421939 0 146.05282222 0 30852
0.17050000 0.17049200 8421.82063123 0 146.51675263 0 2530.74592217 0 71.71721942 0 143.35006773 0 31257
0.17150000 0.17149500 8241.75141271 0 139.44485877 0 2344.27689990 0 164.20700599 0 228.69554743 0 32608
0.17250000 0.17250900 8174.33202689 0 -8.06960998 0 2188.47821738 0 244.13922609 0 179.58092900 0 32361
0.17350000 0.17350400 8230.42442442 0 -37.53252378 0 2216.11474013 0 369.14798776 0 444.04894346 0 32508
0.17450000 0.17449800 8264.27252139 0 -60.00170325 0 2169.81027774 0 407.76493503 0 293.38006902 0 32791
0.17550000 0.17549800 8164.53301942 0 209.45073966 0 1955.46114157 0 180.62615646 0 398.16412218 0 33633
0.17650000 0.17650100 7982.36005918 0 217.10725228 0 1946.63649869 0 -116.31587945 0 134.36376891 0 33984
0.17750000 0.17750300 7838.90701883 0 223.04534008 0 1957.60917259 0 -176.57590005 0 549.56266282 0 34069
0.17850000 0.17849800 7715.41738013 0 58.56551200 0 1964.46294165 0 -92.77069145 0 127.01617416 0 34536
