### header ###
fiducial parameters:
Omega_m = 0.31
Omega_nu = 0
Omega_de = 0.69
Omega_k = 0
H_0 = 100
w_de = -1
zeff = 0
beta = 0
fgrowth = 0
b_1 = 2
gamma = 0.55
Lx = 3500 Ly = 3500 Lz = 3500
nx = 700 ny = 700 nz = 700
xoffset = -685.467585 yoffset = -31.7331281 zoffset = 572.489161
bins = 400 dk = 0.001
kx_ny = 0.628318531 ky_ny = 0.628318531 kz_ny = 0.628318531
############################
A(data) = 7.998396 (not used)
A(ran) = 7.99173607 (used)
Ngal = 474988
weighted Ngal = 0
Nran = 23820508
weighted Nran = 0
SN(data) = 3497.65938
SN(ran) = 69.6109195
SN(data+ran) = 3567.2703
############################
13 columns: k_central k_mean P_0(k) sigma^{lin}_{P_0(k)} P^img_1(k) sigma^{lin}_{P_1(k)} P_2(k) sigma^{lin}_{P_2(k)} P^img_3(k) sigma^{lin}_{P_3(k)} P_4(k) sigma^{lin}_{P_4(k)} N_modes
### header ###
0.00050000 0 0 0 0 0 0 0 0 0 0 0 0
0.00150000 0.00179520 11372.27409798 0 -19983.22110944 0 -872.12052220 0 -52924.16250765 0 1307.01043857 0 3
0.00250000 0.00253879 15207.50596867 0 -18533.63234419 0 -26486.88326142 0 -5448.08206539 0 -24028.82715168 0 6
0.00350000 0.00331552 26220.26167979 0 -11650.74306717 0 -5296.35799840 0 -14811.33818665 0 -2593.88031829 0 7
0.00450000 0.00420575 36905.16585303 0 -11290.67106407 0 -10020.08857416 0 -11365.29853335 0 9604.37813884 0 24
0.00550000 0.00557378 43793.81273895 0 -10512.10947212 0 -5289.80318211 0 -7816.59628432 0 -1558.25256103 0 45
0.00650000 0.00659388 54540.05759169 0 2524.26861215 0 -8536.43026543 0 -31301.90515531 0 8870.55981148 0 40
0.00750000 0.00754703 65260.61465085 0 -15523.28867249 0 -11876.72921672 0 3961.61138616 0 -5297.44308623 0 57
0.00850000 0.00846663 70474.79385444 0 -13490.52055904 0 9824.23022044 0 -33482.37808184 0 -17508.11361948 0 75
0.00950000 0.00948925 91574.54819860 0 760.80822633 0 18742.89928326 0 -15958.32031462 0 -17437.36146389 0 112
0.01050000 0.01054430 73329.57136243 0 -2377.51601901 0 20960.79666768 0 -7911.56361429 0 3307.90132887 0 105
0.01150000 0.01145670 90561.31975445 0 2206.65897473 0 38592.36670890 0 6882.02563568 0 -7274.24059773 0 144
0.01250000 0.01249090 82803.27392376 0 -2980.93557698 0 25855.31785377 0 15956.54874265 0 -6813.51008970 0 169
0.01350000 0.01339930 76846.58461783 0 13945.81455558 0 24623.85388744 0 26466.06729076 0 -19572.21641218 0 180
0.01450000 0.01448870 72519.40935545 0 10480.12152572 0 17605.66080114 0 16794.61300817 0 2346.74602834 0 267
0.01550000 0.01550050 58879.30168812 0 5568.40501920 0 8972.53592306 0 4195.72462213 0 13073.42608312 0 238
0.01650000 0.01653350 60165.90583204 0 649.52471851 0 9622.41495597 0 11624.61238060 0 10929.60255173 0 315
0.01750000 0.01747870 58547.90700629 0 -6088.66034545 0 -1130.17433889 0 3415.05928846 0 15319.33644933 0 297
0.01850000 0.01844180 63230.39317210 0 1369.91231586 0 9286.49169330 0 -12883.09281949 0 9646.55262407 0 388
0.01950000 0.01947590 62368.96630121 0 6628.42510803 0 18008.47197804 0 -6207.30030588 0 14252.73939955 0 399
0.02050000 0.02045430 59019.92021331 0 3687.59349155 0 19021.47897570 0 -10871.82716083 0 14239.67405627 0 462
0.02150000 0.02154770 57777.27319892 0 1007.76425186 0 25855.76074676 0 975.03999585 0 20531.74408096 0 571
0.02250000 0.02255340 59772.28468474 0 -1901.57213668 0 28498.61395772 0 13344.47659468 0 6618.86969171 0 510
0.02350000 0.02348930 62613.44323320 0 -3485.71179313 0 30081.07062080 0 6916.91453118 0 7248.34242998 0 555
0.02450000 0.02439640 66531.93898652 0 165.22233818 0 22037.91242604 0 4152.49826604 0 12836.47833200 0 592
0.02550000 0.02547300 64108.76069996 0 3123.87929038 0 22685.97559768 0 -434.89434530 0 5755.46087468 0 837
0.02650000 0.02652900 62502.83070827 0 1210.58156172 0 22266.55593355 0 -1365.85984498 0 9354.63078023 0 723
0.02750000 0.02749970 61306.57673486 0 -2390.55921765 0 26545.78802946 0 2155.77056987 0 -6027.65183570 0 826
0.02850000 0.02848090 63006.28931777 0 -2625.53609495 0 24304.19586992 0 -1293.54649159 0 358.16756323 0 831
0.02950000 0.02946900 65965.70029530 0 -701.92671018 0 21730.65541232 0 -407.70293001 0 -7824.35798402 0 996
0.03050000 0.03053250 61921.09076229 0 4824.34479138 0 17072.30691462 0 2866.95706529 0 -10801.09714989 0 1041
0.03150000 0.03150510 60897.89722580 0 1619.73718075 0 15367.27961580 0 -4374.37658308 0 -14341.31799810 0 1036
0.03250000 0.03246190 55775.95048795 0 4207.54986503 0 19525.71264794 0 3913.83430457 0 -18490.22883090 0 1059
0.03350000 0.03345080 54693.07712068 0 3469.29153543 0 12932.03249519 0 -128.48879336 0 -20894.80561176 0 1302
0.03450000 0.03451200 49370.05696412 0 2274.31087937 0 12496.00434383 0 4058.15098626 0 -18588.44035204 0 1339
0.03550000 0.03553350 50331.24548162 0 1676.71536426 0 12496.33651357 0 -2403.62456093 0 -17480.98642368 0 1365
0.03650000 0.03647120 48658.99226426 0 427.27990752 0 13104.20714612 0 2158.92618244 0 -11129.23656821 0 1308
0.03750000 0.03744890 49421.98616752 0 -240.92714466 0 10178.33424046 0 7562.80752715 0 -6440.84885328 0 1579
0.03850000 0.03847530 48142.46831147 0 -1768.21705656 0 9483.39084555 0 6055.73125144 0 -3881.04915078 0 1662
0.03950000 0.03950240 50538.40867898 0 -906.25982131 0 8061.64897721 0 3570.42615032 0 -11025.54424629 0 1683
0.04050000 0.04050350 50051.66927995 0 1203.51741849 0 7600.99597545 0 -1876.36045307 0 -4294.70013368 0 1822
0.04150000 0.04152450 48441.86397457 0 3059.39407064 0 10258.36500425 0 -5437.37512729 0 -3082.72345903 0 1887
0.04250000 0.04250150 46855.53199780 0 1588.67930963 0 11055.08520890 0 -6057.79070385 0 -3824.74637908 0 1920
0.04350000 0.04349210 45366.63647944 0 3478.17153993 0 17323.09507176 0 -4089.70711199 0 -6739.64661084 0 2005
0.04450000 0.04448520 42939.13998620 0 2285.46071047 0 16445.05971365 0 -1987.68160679 0 -1489.64843645 0 2151
0.04550000 0.04548030 42316.32171515 0 1320.98371249 0 20216.40427013 0 1125.57932409 0 -3638.11127194 0 2274
0.04650000 0.04648670 41929.56540924 0 -54.61634591 0 19260.30902204 0 1605.50924335 0 -2355.53745424 0 2311
0.04750000 0.04749250 41152.62037671 0 707.90133665 0 18602.28075806 0 2685.42629989 0 -6983.58099892 0 2568
0.04850000 0.04851840 40995.61481078 0 723.51110018 0 18200.90898339 0 1839.11315238 0 -6395.52982780 0 2493
0.04950000 0.04949480 40259.85882658 0 1313.91956925 0 17268.84068015 0 -869.16974764 0 -5350.11413540 0 2644
0.05050000 0.05050630 38635.21660594 0 1475.28763116 0 17374.58138217 0 1090.68489242 0 -3030.88283423 0 2829
0.05150000 0.05149060 38460.27387381 0 1606.46146329 0 17003.76922400 0 1135.59977805 0 526.45139922 0 2784
0.05250000 0.05249300 36905.49802277 0 334.60565602 0 15892.66142844 0 5140.22714613 0 -2659.19596240 0 3055
0.05350000 0.05348950 36631.23653702 0 865.67532192 0 15489.29663530 0 2474.93033276 0 1152.61794130 0 3009
0.05450000 0.05448610 35145.66271610 0 1372.29286570 0 17054.70191816 0 508.17099095 0 1091.20196999 0 3336
0.05550000 0.05550870 34265.85578601 0 2358.95880261 0 18300.44918351 0 1260.24093853 0 5017.51257017 0 3349
0.05650000 0.05647670 33237.79042660 0 -6.18467955 0 18429.66321414 0 1220.01518247 0 6275.58333304 0 3324
0.05750000 0.05747970 32861.33138276 0 -988.23488534 0 16330.23970528 0 1127.47269163 0 5043.59896744 0 3639
0.05850000 0.05849280 35476.06088869 0 -1228.81768070 0 17158.11743197 0 2204.45558209 0 5874.05654581 0 3846
0.05950000 0.05951020 35261.47923370 0 72.62603584 0 18095.38972787 0 3749.50993194 0 1979.31092923 0 3787
0.06050000 0.06049470 35107.90608847 0 638.32616919 0 14332.57086150 0 -533.10697367 0 3154.18424341 0 3930
0.06150000 0.06148310 35561.76068278 0 339.63249149 0 14069.49242381 0 2132.57404937 0 3850.16843686 0 4083
0.06250000 0.06249100 34935.73143754 0 -475.03152276 0 11851.48431613 0 2987.87792464 0 3399.55803372 0 4303
0.06350000 0.06350600 35350.27927875 0 -1014.04890342 0 12421.26615130 0 3329.82453201 0 1965.93556085 0 4470
0.06450000 0.06451750 34932.74190984 0 1413.40440775 0 10083.40012747 0 2426.01280171 0 3463.47856490 0 4479
0.06550000 0.06550280 32915.47505113 0 2071.98628796 0 11091.14777084 0 505.89673543 0 3224.99176063 0 4636
0.06650000 0.06648880 31069.82922711 0 1856.71814884 0 8290.89039025 0 959.84433727 0 5104.17565652 0 4653
0.06750000 0.06749660 30109.52649559 0 1110.07806934 0 8168.70728588 0 2168.96878105 0 5310.94025019 0 5220
0.06850000 0.06852730 29405.10519062 0 -10.41148418 0 8496.48131749 0 33.36977254 0 2020.37818198 0 5029
0.06950000 0.06949320 28720.50334709 0 737.94941175 0 8538.52293482 0 539.85998458 0 5403.15057128 0 5040
0.07050000 0.07048030 27999.36283165 0 1545.69654468 0 7775.07506625 0 -747.53472334 0 5081.74312644 0 5475
0.07150000 0.07148790 27258.73502453 0 409.91296604 0 6786.98079944 0 251.24433692 0 5399.96174173 0 5509
0.07250000 0.07249820 27203.70557018 0 -603.92888491 0 7527.07713496 0 1963.49964939 0 4268.14869877 0 5916
0.07350000 0.07351270 27622.68234132 0 -108.90450811 0 7326.38017530 0 524.10960252 0 975.76080420 0 5721
0.07450000 0.07449140 27561.67383157 0 82.67605291 0 8541.31316068 0 -725.29153001 0 2607.23354202 0 6028
0.07550000 0.07549160 27386.95254593 0 1111.05243393 0 8235.28517501 0 -1100.08308173 0 2429.88811540 0 6183
0.07650000 0.07648840 26253.70010074 0 1168.42922114 0 8438.65056496 0 -1216.68241270 0 2963.35272516 0 6330
0.07750000 0.07749960 25749.68787500 0 552.93418572 0 9098.47254555 0 122.49091500 0 170.32114376 0 6583
0.07850000 0.07848650 25304.46969404 0 450.23505133 0 8898.15204493 0 421.29863765 0 1532.87479254 0 6549
0.07950000 0.07947320 24821.82705519 0 554.64928884 0 9062.12210317 0 467.80683082 0 -1136.49663636 0 6828
0.08050000 0.08048110 24436.39942826 0 316.69617063 0 8262.12449037 0 -459.83697142 0 2056.25251440 0 7147
0.08150000 0.08149960 24088.39625921 0 621.98784669 0 8644.07540732 0 1327.00705719 0 352.56275241 0 7386
0.08250000 0.08250610 23490.71216550 0 539.31411896 0 8219.10850845 0 934.38131189 0 148.73675375 0 7227
0.08350000 0.08350160 23361.38741161 0 605.91858168 0 7678.60190011 0 1359.78113865 0 -182.20839168 0 7798
0.08450000 0.08449610 22087.73788772 0 1140.84806001 0 8014.50301813 0 -808.50115826 0 -315.52361143 0 7371
0.08550000 0.08548940 21298.28112816 0 736.90972045 0 7002.30430018 0 316.77146243 0 1019.93162960 0 8256
0.08650000 0.08650700 21168.40275803 0 -92.87233539 0 7424.92386619 0 -162.06118944 0 -1505.24934212 0 8037
0.08750000 0.08749060 21122.89550303 0 -32.51731425 0 6635.40067267 0 -290.29531933 0 -1995.67582531 0 8155
0.08850000 0.08849210 21017.70841725 0 241.94690577 0 7357.92522871 0 -994.54500326 0 -3508.01145532 0 8718
0.08950000 0.08949900 20912.41060823 0 497.71982355 0 7728.61559131 0 -1276.36224347 0 -2365.34753403 0 8571
0.09050000 0.09049190 20533.51565293 0 799.69423110 0 8040.43440286 0 58.58068109 0 -1595.27841522 0 8932
0.09150000 0.09150830 19826.10482027 0 795.23208419 0 8549.99386333 0 929.97341938 0 -1139.38651314 0 9285
0.09250000 0.09250820 19857.99311575 0 149.89824063 0 7888.84320376 0 1546.70412624 0 -280.39887540 0 9204
0.09350000 0.09350330 19398.04874278 0 -216.34658356 0 8058.47121999 0 1792.59831581 0 -92.12296045 0 9349
0.09450000 0.09448040 19193.43218013 0 118.41962117 0 7164.58029273 0 1989.77427618 0 426.16270994 0 9564
0.09550000 0.09549270 19004.53831872 0 522.96693860 0 5849.78600981 0 1203.80529893 0 187.95824996 0 10155
0.09650000 0.09649430 18790.95317297 0 365.44318787 0 6114.92389992 0 -148.93273390 0 244.46918137 0 9913
0.09750000 0.09749140 18037.48146906 0 475.30500919 0 5577.73898902 0 -804.11319593 0 -378.26936894 0 10476
0.09850000 0.09850240 17521.06823952 0 714.98208837 0 6216.83357755 0 -731.27501434 0 -332.10220338 0 10575
0.09950000 0.09950330 17151.36331383 0 466.04190224 0 5869.22901219 0 -95.12998242 0 -568.59931088 0 10882
0.10050000 0.10051200 16843.88485361 0 197.59781595 0 6185.31066879 0 642.97654561 0 -209.42416608 0 10875
0.10150000 0.10150300 16770.91823306 0 52.12905886 0 5235.85881559 0 1355.73974009 0 -628.63345604 0 11118
0.10250000 0.10250800 16522.67671062 0 91.88368751 0 5107.86274069 0 1238.19593982 0 47.58597327 0 11575
0.10350000 0.10349800 16567.51962614 0 301.06979861 0 4915.96827926 0 387.10729861 0 432.90132683 0 11364
0.10450000 0.10450100 16131.27002829 0 500.50894217 0 4484.73444454 0 134.67268677 0 600.35030953 0 12093
0.10550000 0.10551000 16018.55376163 0 192.44697044 0 4649.96674781 0 -580.36587046 0 1483.02718621 0 12067
0.10650000 0.10649700 15611.20293155 0 475.79440594 0 5067.17194698 0 -257.36733255 0 792.50829229 0 12054
0.10750000 0.10749900 15465.38041369 0 268.66110386 0 5572.44641775 0 -577.59003863 0 773.96768438 0 12807
0.10850000 0.10850100 15197.09798334 0 316.38282383 0 5478.29843982 0 461.00620892 0 -76.95398617 0 12736
0.10950000 0.10950300 15227.10398360 0 26.44691217 0 5215.69611210 0 477.43643172 0 453.82580627 0 12933
0.11050000 0.11050200 15034.55625500 0 -193.88858713 0 4737.17237808 0 701.89238597 0 -171.68968310 0 13428
0.11150000 0.11150900 15236.29401319 0 -92.63704849 0 4364.93189001 0 719.50402583 0 -344.27401005 0 13453
0.11250000 0.11250000 15061.57272756 0 -124.98993872 0 3911.17694661 0 645.98378903 0 -864.57694730 0 13668
0.11350000 0.11349100 15028.90936934 0 -11.08417221 0 3498.06850763 0 42.45395071 0 -342.40389439 0 13791
0.11450000 0.11448600 15056.25801164 0 333.61357572 0 3546.84209846 0 47.09436204 0 -586.07254667 0 14205
0.11550000 0.11549300 14709.47279832 0 303.06060261 0 3560.52749193 0 79.28471054 0 -498.44506083 0 14776
0.11650000 0.11649800 14751.54763263 0 221.37341903 0 3415.74577260 0 50.33733526 0 -345.80420534 0 14553
0.11750000 0.11747300 14424.80332724 0 294.92798003 0 3853.06938597 0 -373.87919215 0 -311.76344992 0 14568
0.11850000 0.11849100 14392.69358526 0 269.75504956 0 4220.49341275 0 -423.52971110 0 -575.21502496 0 16015
0.11950000 0.11950300 14118.54282275 0 468.47006308 0 4490.24846230 0 -630.96860935 0 -156.88266312 0 15270
0.12050000 0.12050700 13770.09676071 0 271.72592337 0 4773.33459094 0 -838.88915372 0 -114.29850187 0 15999
0.12150000 0.12150000 13695.24784494 0 269.07742328 0 5574.53908714 0 -30.00035337 0 -233.82756999 0 15670
0.12250000 0.12250700 13803.64590491 0 -7.86019910 0 5319.22234915 0 518.64541023 0 -100.80942071 0 16887
0.12350000 0.12352200 13759.13515914 0 -117.79292758 0 5062.00117129 0 905.63866389 0 74.04794380 0 16407
0.12450000 0.12449800 13788.69826640 0 -78.46391910 0 4869.98491428 0 769.19772685 0 -229.45067998 0 16306
0.12550000 0.12549900 13751.05236202 0 -37.83623765 0 4564.55483416 0 835.61285281 0 -349.00853614 0 17523
0.12650000 0.12650100 13655.27675234 0 86.56509628 0 4475.87658469 0 254.00798920 0 -5.11158304 0 17154
0.12750000 0.12750600 13418.88261746 0 311.68594364 0 3952.12240379 0 109.41339216 0 217.23901294 0 18007
0.12850000 0.12850300 13343.70153194 0 242.73746977 0 3830.32683079 0 4.58650018 0 206.04378532 0 17496
0.12950000 0.12949900 13054.16023794 0 393.04095748 0 3999.84412376 0 -187.29944663 0 107.07392065 0 18405
0.13050000 0.13049000 12880.21401503 0 313.37890211 0 4265.49134081 0 -165.36849286 0 187.02042405 0 18100
0.13150000 0.13148800 12425.69508123 0 182.41876585 0 3960.22734556 0 235.95013465 0 261.97341967 0 19059
0.13250000 0.13249300 12476.62777540 0 140.62406136 0 4394.57250355 0 226.32828439 0 725.92154530 0 18957
0.13350000 0.13349100 12470.09510375 0 145.77601410 0 4011.79116224 0 508.56738018 0 852.45275163 0 19468
0.13450000 0.13450700 12321.28305819 0 131.53700438 0 4240.39038045 0 413.35978076 0 1688.24165440 0 19953
0.13550000 0.13551000 12200.70544091 0 -32.43681845 0 3509.42871289 0 602.55591663 0 1479.91586294 0 19956
0.13650000 0.13649900 12226.61468099 0 -84.15099730 0 3701.06851086 0 501.98820477 0 1019.73011329 0 19723
0.13750000 0.13749600 12313.08953782 0 36.09898988 0 3349.32289602 0 67.95130031 0 1225.70635742 0 20946
0.13850000 0.13851100 12016.90484893 0 349.99286582 0 3305.42112811 0 290.89101040 0 1002.14504701 0 20955
0.13950000 0.13949800 12068.16971284 0 193.96498617 0 3298.92167344 0 -404.82744725 0 1098.23511072 0 20506
0.14050000 0.14048300 11676.09869101 0 272.57738515 0 3118.73065934 0 178.02858906 0 896.18179126 0 21447
0.14150000 0.14148400 11467.93898442 0 433.57230971 0 3512.37395130 0 -238.38383165 0 559.27641338 0 21771
0.14250000 0.14249400 11206.63211870 0 367.05642560 0 3481.39358645 0 -43.14752114 0 438.94903065 0 22470
0.14350000 0.14350900 10907.12573235 0 241.24049145 0 3576.73737547 0 -129.65138746 0 375.44814058 0 22519
0.14450000 0.14449900 10669.64650964 0 176.75748617 0 3380.19253761 0 252.48443730 0 502.89170647 0 22218
0.14550000 0.14550500 10713.59256685 0 118.04980552 0 3334.59670401 0 48.79540331 0 136.67677756 0 23559
0.14650000 0.14650700 10432.33337180 0 138.04753137 0 3517.41185909 0 204.29546523 0 160.63396677 0 23044
0.14750000 0.14750500 10380.47060235 0 262.05203318 0 3305.97474435 0 -170.74964273 0 -11.41767063 0 23649
0.14850000 0.14849900 10167.90411048 0 190.88355818 0 3503.59359771 0 138.19700776 0 373.73746639 0 23640
0.14950000 0.14949500 9990.60297316 0 174.50205361 0 3202.40421800 0 79.22004817 0 44.96282879 0 24457
0.15050000 0.15050000 9943.91097940 0 71.39789357 0 3316.16128318 0 380.76617819 0 880.85658648 0 24591
0.15150000 0.15149900 9941.07646425 0 -72.50855848 0 3263.21342590 0 506.12593255 0 668.53479299 0 25020
0.15250000 0.15250500 9890.30985496 0 1.38718514 0 2888.59238799 0 454.45360709 0 623.08622131 0 25297
0.15350000 0.15350100 9915.43295997 0 114.90969420 0 2950.57526232 0 425.58141289 0 776.84538160 0 25452
0.15450000 0.15450400 9908.32452744 0 -31.39026231 0 2471.08823605 0 268.99327361 0 681.95666514 0 26061
0.15550000 0.15549900 9812.58213473 0 16.47395848 0 2492.73463107 0 61.64096094 0 781.82239161 0 26128
0.15650000 0.15649500 9716.97260992 0 222.72534989 0 2483.44495055 0 -154.81435285 0 592.18446997 0 26331
0.15750000 0.15749700 9565.70250825 0 262.68647739 0 2551.47331423 0 -159.16245480 0 784.74548536 0 27345
0.15850000 0.15849900 9335.54209224 0 235.94238403 0 2522.64098041 0 92.76581963 0 918.42609182 0 26980
0.15950000 0.15949700 9187.27259060 0 146.90317676 0 2333.34851531 0 463.17417012 0 834.72485236 0 27777
0.16050000 0.16050000 8995.99817935 0 132.69738402 0 2365.56898053 0 446.99971802 0 950.45057690 0 28224
0.16150000 0.16150500 9032.24897081 0 35.93069055 0 2169.11272127 0 420.64094156 0 1020.05896133 0 28075
0.16250000 0.16249700 8920.96103406 0 31.77314330 0 2146.56946794 0 226.84868365 0 1058.00381849 0 28590
0.16350000 0.16349900 8909.37938230 0 131.32884467 0 2078.75147843 0 -167.63831945 0 908.76991735 0 29163
0.16450000 0.16449100 8834.02113958 0 111.42966251 0 2224.18646492 0 -290.67510007 0 1093.38100352 0 28996
0.16550000 0.16550500 8789.04535617 0 73.89470282 0 2466.69252310 0 -376.54319350 0 1049.83797893 0 30777
0.16650000 0.16650700 8830.92088863 0 32.62571231 0 2521.42302468 0 -182.01684046 0 675.12946965 0 29211
0.16750000 0.16749900 8707.66376875 0 146.84892237 0 2805.57209650 0 -55.90793260 0 324.32168073 0 30922
0.16850000 0.16850800 8608.37823210 0 267.34460444 0 2593.85817364 0 -179.05720804 0 187.34816486 0 30867
0.16950000 0.16949900 8459.85406699 0 159.39497362 0 2667.33412114 0 89.34170318 0 515.25838606 0 30852
0.17050000 0.17049200 8369.54818577 0 37.71244906 0 2469.51596593 0 365.98794625 0 450.92153547 0 31257
0.17150000 0.17149500 8281.77786693 0 -11.06288013 0 2312.38860443 0 241.96019256 0 224.51463758 0 32608
0.17250000 0.17250900 8314.15334470 0 124.75188373 0 2389.04230914 0 184.65426823 0 102.33994817 0 32361
0.17350000 0.17350400 8161.78708287 0 187.96046442 0 2035.51405001 0 122.20192733 0 472.83255906 0 32508
0.17450000 0.17449800 7981.69571969 0 147.93622467 0 2253.10737735 0 241.20063108 0 389.69932985 0 32791
0.17550000 0.17549800 7943.75086254 0 118.81711763 0 2063.77062295 0 193.85869185 0 1111.40674832 0 33633
0.17650000 0.17650100 7952.16582940 0 68.06434874 0 2057.16044503 0 468.30508544 0 617.90769499 0 33984
0.17750000 0.17750300 7800.44176241 0 56.83479691 0 1871.21182203 0 171.91666576 0 1020.35237794 0 34069
0.17850000 0.17849800 7818.47857954 0 62.43152494 0 1863.38368838 0 25.11037184 0 944.65864378 0 34536
