### header ###
fiducial parameters:
Omega_m = 0.31
Omega_nu = 0
Omega_de = 0.69
Omega_k = 0
H_0 = 100
w_de = -1
zeff = 0
beta = 0
fgrowth = 0
b_1 = 2
gamma = 0.55
Lx = 3500 Ly = 3500 Lz = 3500
nx = 700 ny = 700 nz = 700
xoffset = -685.467585 yoffset = -31.7331281 zoffset = 572.489161
bins = 400 dk = 0.001
kx_ny = 0.628318531 ky_ny = 0.628318531 kz_ny = 0.628318531
############################
A(data) = 8.0396615 (not used)
A(ran) = 8.03331807 (used)
Ngal = 477448
weighted Ngal = 0
Nran = 23820508
weighted Nran = 0
SN(data) = 3490.79172
SN(ran) = 69.9731138
SN(data+ran) = 3560.76483
############################
13 columns: k_central k_mean P_0(k) sigma^{lin}_{P_0(k)} P^img_1(k) sigma^{lin}_{P_1(k)} P_2(k) sigma^{lin}_{P_2(k)} P^img_3(k) sigma^{lin}_{P_3(k)} P_4(k) sigma^{lin}_{P_4(k)} N_modes
### header ###
0.00050000 0 0 0 0 0 0 0 0 0 0 0 0
0.00150000 0.00179520 3823.01909641 0 -7642.65006142 0 -7313.14874714 0 -16081.66601310 0 -26036.68253429 0 3
0.00250000 0.00253879 4323.58782913 0 -4929.56509413 0 -1965.30443834 0 13246.48652004 0 15066.44455048 0 6
0.00350000 0.00331552 11719.05931130 0 -8906.75524132 0 5667.36945842 0 788.56211572 0 -3116.80407482 0 7
0.00450000 0.00420575 16162.82615402 0 -10218.38283933 0 8806.09673639 0 13439.92003462 0 4865.47847808 0 24
0.00550000 0.00557378 38057.46269691 0 -8070.51790939 0 4056.45692056 0 22996.11141585 0 10335.89342263 0 45
0.00650000 0.00659388 39896.46512604 0 -5655.22311810 0 6677.81874905 0 18323.14744939 0 45343.71676706 0 40
0.00750000 0.00754703 60815.74057565 0 -6914.89936807 0 9512.93180816 0 22141.99227934 0 27129.07810090 0 57
0.00850000 0.00846663 64255.35828056 0 -12867.92373449 0 -5308.89187010 0 41999.87467183 0 42904.70505601 0 75
0.00950000 0.00948925 75521.78095328 0 -12869.47385996 0 935.38003559 0 20848.63401727 0 14443.62627943 0 112
0.01050000 0.01054430 87497.38603063 0 -3725.23939593 0 10440.65976007 0 16546.03931599 0 26122.05015865 0 105
0.01150000 0.01145670 92631.84449553 0 -9737.12424109 0 -5453.48535990 0 -8016.83927867 0 8509.70167332 0 144
0.01250000 0.01249090 84731.29784444 0 7926.10157678 0 23647.82845467 0 -9454.00489548 0 31088.65217930 0 169
0.01350000 0.01339930 92173.78241779 0 11387.11101324 0 4183.16860578 0 -8381.84953864 0 30995.31248108 0 180
0.01450000 0.01448870 79313.72003392 0 2913.56048045 0 -2940.08977072 0 9163.33422434 0 17802.52673641 0 267
0.01550000 0.01550050 80102.84462374 0 -11391.98283616 0 -6273.39101272 0 15835.41750913 0 8452.34703076 0 238
0.01650000 0.01653350 83682.85940736 0 -5956.05818342 0 -8958.86160191 0 9038.79271478 0 -15659.92116076 0 315
0.01750000 0.01747870 84517.15908244 0 6630.31847558 0 -7747.47176048 0 294.47069302 0 -14010.91982552 0 297
0.01850000 0.01844180 73423.13250715 0 11647.75353947 0 -10529.82519183 0 -7140.45369695 0 6892.94294795 0 388
0.01950000 0.01947590 64869.09724526 0 10539.02629376 0 -7582.57162696 0 -7985.19457434 0 13631.91414697 0 399
0.02050000 0.02045430 61192.64251248 0 -1472.85171970 0 -10050.31602091 0 -2001.21198772 0 13246.59724328 0 462
0.02150000 0.02154770 63511.63022249 0 -1623.34675864 0 -3388.07603288 0 179.48238531 0 13091.91686557 0 571
0.02250000 0.02255340 67473.86165885 0 -3586.72461245 0 -3806.58776638 0 -7652.96946815 0 18064.71938812 0 510
0.02350000 0.02348930 69239.89746742 0 -2253.73849986 0 2970.01826470 0 3379.18495605 0 12544.61184978 0 555
0.02450000 0.02439640 69586.23978775 0 1697.21023750 0 5413.02708501 0 -5073.66032932 0 19329.06815916 0 592
0.02550000 0.02547300 67208.67947944 0 6521.32251006 0 11699.90418937 0 4135.88977881 0 645.89299597 0 837
0.02650000 0.02652900 61353.19122235 0 2935.12936920 0 10327.32344322 0 -3244.41261836 0 8426.95818995 0 723
0.02750000 0.02749970 60115.74820061 0 2187.53706977 0 9911.13689794 0 1460.15176313 0 -958.74374819 0 826
0.02850000 0.02848090 62976.83693375 0 -4472.07877728 0 8466.75212535 0 795.41699202 0 8465.51202497 0 831
0.02950000 0.02946900 62371.73438241 0 -4712.17106864 0 5350.86705348 0 5016.26139746 0 -4196.58826346 0 996
0.03050000 0.03053250 66991.32974325 0 -195.23387460 0 5617.66579231 0 21.10595485 0 -2746.23550779 0 1041
0.03150000 0.03150510 64413.24963247 0 5980.19585153 0 3620.97131312 0 -2031.43943448 0 -3336.02503391 0 1036
0.03250000 0.03246190 58058.17807956 0 6795.19646445 0 8955.16344542 0 -6800.95407336 0 -171.47045107 0 1059
0.03350000 0.03345080 55279.13527333 0 5258.06989918 0 12607.61337800 0 -7517.86496071 0 1314.50640247 0 1302
0.03450000 0.03451200 52177.55564513 0 1380.58603699 0 19159.32941969 0 -2316.97254690 0 -1973.48688638 0 1339
0.03550000 0.03553350 52047.56655176 0 1576.37795676 0 19729.66487110 0 -3009.08142666 0 -1855.72163961 0 1365
0.03650000 0.03647120 51447.00365360 0 521.02153113 0 19865.52229662 0 3837.74528842 0 -2772.13367555 0 1308
0.03750000 0.03744890 50837.47217233 0 934.32373580 0 18971.32134427 0 -136.65906184 0 -5015.63027495 0 1579
0.03850000 0.03847530 50020.22387747 0 619.24633906 0 17173.95085646 0 4653.87527847 0 -7859.13615628 0 1662
0.03950000 0.03950240 48168.82044454 0 129.96694872 0 12038.27443583 0 2507.40546146 0 -12372.99081509 0 1683
0.04050000 0.04050350 48554.24807148 0 1138.92147550 0 12829.17059762 0 2742.23839853 0 -10288.71424658 0 1822
0.04150000 0.04152450 46147.34610240 0 1190.04239918 0 9381.69154209 0 1612.65089286 0 -13707.31667899 0 1887
0.04250000 0.04250150 44293.72820451 0 3690.88197202 0 7877.78195127 0 2426.76571980 0 -7517.99782861 0 1920
0.04350000 0.04349210 41169.56103368 0 1991.90016255 0 7190.88813650 0 -1847.81599968 0 -8988.69044497 0 2005
0.04450000 0.04448520 40893.41725271 0 687.35995965 0 9655.02295256 0 -2600.66765340 0 -7067.78602916 0 2151
0.04550000 0.04548030 40960.62626436 0 640.33247445 0 12022.55173458 0 -2727.05824121 0 -5339.34076335 0 2274
0.04650000 0.04648670 40278.01743929 0 1102.30640455 0 16658.86630589 0 -5653.07508708 0 -6398.04324553 0 2311
0.04750000 0.04749250 40260.63388932 0 1553.50253368 0 16121.30493595 0 -1195.98823761 0 -5386.24313128 0 2568
0.04850000 0.04851840 38895.19479269 0 765.77194955 0 17689.47830001 0 1021.82388991 0 -5638.91358364 0 2493
0.04950000 0.04949480 39319.92917273 0 1036.00089461 0 16603.28323530 0 4218.71076845 0 -699.74878389 0 2644
0.05050000 0.05050630 38182.02635112 0 86.82939267 0 15568.02086476 0 5606.95885421 0 -5507.16399062 0 2829
0.05150000 0.05149060 36361.73615093 0 -9.50244632 0 12908.11627358 0 2353.81017157 0 -3561.57936279 0 2784
0.05250000 0.05249300 38015.72003234 0 217.03971110 0 12248.87005388 0 1069.91874723 0 -4045.66140386 0 3055
0.05350000 0.05348950 36891.32544701 0 646.89061244 0 11566.03978231 0 -387.90893493 0 -2037.82816590 0 3009
0.05450000 0.05448610 36431.71324378 0 1055.25234577 0 11720.38799028 0 -34.92366260 0 995.44850496 0 3336
0.05550000 0.05550870 36031.22725509 0 612.88196676 0 12727.08376279 0 470.39332590 0 1694.01033563 0 3349
0.05650000 0.05647670 35762.50193175 0 81.96842063 0 11992.98862732 0 3628.19046890 0 1581.79232359 0 3324
0.05750000 0.05747970 35290.37800148 0 225.12693714 0 11986.45595567 0 1300.61063482 0 1177.85176956 0 3639
0.05850000 0.05849280 36004.76439878 0 -153.90420775 0 11844.17658175 0 191.79591774 0 1435.83693783 0 3846
0.05950000 0.05951020 33852.41517728 0 288.86034603 0 12973.88588300 0 -548.82413875 0 948.62364330 0 3787
0.06050000 0.06049470 35318.61242977 0 832.97321057 0 12057.65100426 0 -360.44292598 0 1183.70902939 0 3930
0.06150000 0.06148310 33491.78955794 0 436.39685977 0 10365.78869964 0 -124.80835259 0 -900.32726968 0 4083
0.06250000 0.06249100 33387.37753490 0 641.52717829 0 11441.80829784 0 994.66236990 0 -1044.98276450 0 4303
0.06350000 0.06350600 33007.04317738 0 953.53311213 0 10278.19553800 0 392.56263305 0 -2094.73991547 0 4470
0.06450000 0.06451750 31545.93919431 0 1031.03495693 0 9957.34170941 0 -126.25882714 0 -3685.29044799 0 4479
0.06550000 0.06550280 31407.42441083 0 1459.12203693 0 11630.48071275 0 148.37247427 0 -3319.52726993 0 4636
0.06650000 0.06648880 29852.87000629 0 516.41433677 0 10320.90149483 0 -195.68783991 0 832.73183389 0 4653
0.06750000 0.06749660 30476.90623307 0 -716.04060263 0 10320.10428744 0 2992.89368778 0 -336.84226563 0 5220
0.06850000 0.06852730 30852.81166066 0 -462.59398030 0 9988.32207425 0 1819.71443929 0 -227.42001561 0 5029
0.06950000 0.06949320 30557.95565074 0 711.76114908 0 9676.80221548 0 2087.29931319 0 -1225.10845188 0 5040
0.07050000 0.07048030 29588.68433612 0 1760.13425945 0 9203.26102763 0 229.81495947 0 635.49386850 0 5475
0.07150000 0.07148790 28187.14946057 0 1165.43969344 0 8314.05369377 0 223.68753492 0 83.62594766 0 5509
0.07250000 0.07249820 27589.90825985 0 -544.02428594 0 7317.55553242 0 1093.94347762 0 -1133.08636032 0 5916
0.07350000 0.07351270 27619.02847413 0 -159.13698846 0 7592.07168165 0 -277.22111818 0 -764.85183936 0 5721
0.07450000 0.07449140 27987.40472084 0 -34.29707974 0 6586.44992465 0 1597.72539901 0 -984.31860405 0 6028
0.07550000 0.07549160 27071.28056535 0 1394.27143046 0 6389.26289195 0 -128.02154125 0 -1325.73373984 0 6183
0.07650000 0.07648840 26789.82206846 0 1747.51180915 0 6671.74004272 0 -674.12520979 0 34.77263609 0 6330
0.07750000 0.07749960 25396.03782029 0 781.05950843 0 7257.17814518 0 419.36651697 0 216.41412474 0 6583
0.07850000 0.07848650 24727.38012449 0 613.44554809 0 8104.86426098 0 -468.19989835 0 738.24282835 0 6549
0.07950000 0.07947320 24481.46379027 0 430.29600880 0 8285.14385367 0 -226.25409981 0 -399.26692573 0 6828
0.08050000 0.08048110 24162.47011224 0 94.92935190 0 8510.22207259 0 -616.96654738 0 -934.03364089 0 7147
0.08150000 0.08149960 23122.77881177 0 1059.29706603 0 8668.27950937 0 -13.82634417 0 -536.37663119 0 7386
0.08250000 0.08250610 23155.88506298 0 876.32246947 0 7452.39430406 0 383.28070315 0 -663.06727900 0 7227
0.08350000 0.08350160 22264.56291508 0 -236.82374108 0 8571.65133068 0 1498.20734354 0 -939.91083090 0 7798
0.08450000 0.08449610 22119.62618320 0 97.58914576 0 7338.54866028 0 546.97948944 0 -347.07087930 0 7371
0.08550000 0.08548940 22404.62782403 0 393.99317742 0 7536.62147896 0 1050.53885710 0 -232.11578857 0 8256
0.08650000 0.08650700 22345.72305600 0 149.54614070 0 7950.69321020 0 -315.62769128 0 869.56060070 0 8037
0.08750000 0.08749060 22340.74050983 0 73.07158619 0 8488.85248569 0 -597.46264721 0 1468.88782742 0 8155
0.08850000 0.08849210 22467.51862900 0 531.18260362 0 9383.35239081 0 -421.80464290 0 1472.61920088 0 8718
0.08950000 0.08949900 21596.68028202 0 359.16517970 0 8316.75534103 0 174.00822792 0 1812.26276469 0 8571
0.09050000 0.09049190 21803.51130963 0 310.18342917 0 8546.50608102 0 1179.20259319 0 1476.70488874 0 8932
0.09150000 0.09150830 20851.62354497 0 591.61756694 0 7645.61744447 0 1040.98676247 0 334.56358119 0 9285
0.09250000 0.09250820 20452.24478876 0 441.83669296 0 6647.54701299 0 1388.07092856 0 -704.58628260 0 9204
0.09350000 0.09350330 19704.75214026 0 914.42123194 0 6638.46770664 0 794.02187909 0 -118.64660383 0 9349
0.09450000 0.09448040 18852.29385247 0 615.43967379 0 4975.80312258 0 234.38340069 0 409.70037740 0 9564
0.09550000 0.09549270 18881.85695973 0 -88.04546611 0 5339.11931685 0 769.05821556 0 -62.05285143 0 10155
0.09650000 0.09649430 18773.01600677 0 -38.11404228 0 5226.90130481 0 94.00470205 0 808.95623081 0 9913
0.09750000 0.09749140 18942.86546948 0 348.69961828 0 5589.86318469 0 660.22722768 0 127.41477785 0 10476
0.09850000 0.09850240 18514.92011524 0 284.44359566 0 5443.34311037 0 -445.55699410 0 935.87164681 0 10575
0.09950000 0.09950330 18488.67870542 0 127.15679268 0 5765.93529396 0 178.54345217 0 884.15724651 0 10882
0.10050000 0.10051200 18005.26100384 0 364.57843930 0 5914.79162882 0 -118.00662345 0 429.35707566 0 10875
0.10150000 0.10150300 17975.36572683 0 491.32444874 0 5879.91380564 0 165.78924121 0 -140.12359228 0 11118
0.10250000 0.10250800 16869.24047745 0 578.50904159 0 5693.31191547 0 -268.78068497 0 -338.59169295 0 11575
0.10350000 0.10349800 17030.78569655 0 472.14496768 0 5533.05108605 0 788.12143720 0 -434.89877423 0 11364
0.10450000 0.10450100 16446.38839262 0 43.59539668 0 5369.10317246 0 -9.46402535 0 -975.45188634 0 12093
0.10550000 0.10551000 16180.09898074 0 631.18784138 0 5145.37577717 0 -38.04749760 0 -148.43780098 0 12067
0.10650000 0.10649700 16296.69056108 0 225.86103228 0 5261.14800548 0 182.07220209 0 -768.27097326 0 12054
0.10750000 0.10749900 15538.12558775 0 107.06705581 0 5201.19136658 0 109.11676458 0 544.11507901 0 12807
0.10850000 0.10850100 15856.23347979 0 88.44240895 0 5479.52746788 0 133.61970868 0 -211.08280034 0 12736
0.10950000 0.10950300 15295.19878123 0 296.02081849 0 5547.38974669 0 726.75196966 0 -194.93602906 0 12933
0.11050000 0.11050200 15279.14391024 0 385.74983159 0 4793.98447673 0 674.61682102 0 122.75665080 0 13428
0.11150000 0.11150900 14918.51829090 0 125.25235281 0 4426.66010087 0 266.22629964 0 225.15683242 0 13453
0.11250000 0.11250000 14894.49134604 0 319.32141884 0 4720.71890340 0 -266.47985588 0 762.02507483 0 13668
0.11350000 0.11349100 14593.43483422 0 203.90129047 0 4384.17559054 0 -167.37922705 0 73.61745181 0 13791
0.11450000 0.11448600 14307.43668416 0 222.33781852 0 4456.45572696 0 228.55271444 0 296.55118285 0 14205
0.11550000 0.11549300 14274.55187945 0 151.05529857 0 4561.74246366 0 216.13620939 0 -141.56853067 0 14776
0.11650000 0.11649800 14361.80179902 0 -258.73476466 0 4680.64815989 0 5.31281147 0 -273.99464273 0 14553
0.11750000 0.11747300 14418.04920910 0 -76.67784239 0 4829.34948220 0 -93.78690942 0 -649.91335711 0 14568
0.11850000 0.11849100 14454.58788100 0 96.08795996 0 4686.41684112 0 -216.32665338 0 -419.16610789 0 16015
0.11950000 0.11950300 14481.38290706 0 480.79688230 0 4772.11663521 0 -306.66685880 0 -365.22838477 0 15270
0.12050000 0.12050700 14081.11836487 0 313.70664292 0 4616.43974826 0 194.05024307 0 88.34951215 0 15999
0.12150000 0.12150000 13732.34013308 0 -116.66687215 0 4197.31903690 0 830.49633151 0 -186.73032914 0 15670
0.12250000 0.12250700 14108.24556067 0 -233.33042260 0 4196.95365018 0 623.16483482 0 -894.42129162 0 16887
0.12350000 0.12352200 13980.36020902 0 -33.03095940 0 4249.42539750 0 354.06415966 0 -850.28479043 0 16407
0.12450000 0.12449800 13790.24839188 0 409.15340456 0 4082.10042484 0 490.83615921 0 -589.25473283 0 16306
0.12550000 0.12549900 13568.24827927 0 337.51435575 0 4187.66396966 0 185.29203414 0 177.60009009 0 17523
0.12650000 0.12650100 13544.44278091 0 276.37519257 0 3895.52067932 0 -256.69856413 0 -370.78447736 0 17154
0.12750000 0.12750600 13284.79676391 0 240.57172303 0 4487.51359807 0 119.90331269 0 466.18141354 0 18007
0.12850000 0.12850300 12972.44648077 0 191.53350364 0 4341.85716508 0 173.10140452 0 544.85138861 0 17496
0.12950000 0.12949900 13084.27696144 0 129.18081366 0 4317.46483351 0 111.78729860 0 428.91639713 0 18405
0.13050000 0.13049000 12805.25437601 0 348.77158839 0 4499.60457678 0 -22.98703211 0 336.68503862 0 18100
0.13150000 0.13148800 12661.97849286 0 327.89804164 0 4161.03502847 0 -10.60114204 0 783.96820816 0 19059
0.13250000 0.13249300 12263.48552264 0 140.97173236 0 4034.04653513 0 458.78177886 0 866.28097809 0 18957
0.13350000 0.13349100 12241.45159625 0 60.72461534 0 3367.70295522 0 818.21047989 0 627.17633810 0 19468
0.13450000 0.13450700 12207.90245205 0 -30.48465686 0 3278.67039135 0 744.15434257 0 -136.48079741 0 19953
0.13550000 0.13551000 12071.60213353 0 19.31090955 0 2865.47337377 0 116.20294174 0 191.41613700 0 19956
0.13650000 0.13649900 11948.58860479 0 477.44971850 0 2724.10193048 0 -369.91640710 0 120.41485410 0 19723
0.13750000 0.13749600 11550.64925081 0 487.66504538 0 3137.56468386 0 -649.19144153 0 298.71139342 0 20946
0.13850000 0.13851100 11280.15235549 0 181.07237115 0 3488.85633338 0 -406.13619605 0 175.49081221 0 20955
0.13950000 0.13949800 11118.71785964 0 174.58952497 0 3789.42566291 0 -253.74225340 0 85.88193384 0 20506
0.14050000 0.14048300 11205.08199322 0 -107.32016915 0 3848.81761324 0 429.31721529 0 -158.91554196 0 21447
0.14150000 0.14148400 11320.23417134 0 -242.85372918 0 3637.31406455 0 641.33230538 0 34.54919658 0 21771
0.14250000 0.14249400 11351.67957382 0 156.27147079 0 3611.32731820 0 141.05477479 0 -301.99323050 0 22470
0.14350000 0.14350900 11313.59077644 0 281.40867143 0 3414.18457480 0 116.96582492 0 -300.60586820 0 22519
0.14450000 0.14449900 11002.63560624 0 140.21549257 0 3197.90885412 0 173.21212777 0 317.80008141 0 22218
0.14550000 0.14550500 10859.97977327 0 5.59008463 0 3226.73011562 0 309.11162812 0 -29.34232511 0 23559
0.14650000 0.14650700 10935.98021083 0 -45.98491510 0 3051.76523884 0 430.40783928 0 -27.62810778 0 23044
0.14750000 0.14750500 10856.76879908 0 167.01273310 0 3077.04335640 0 60.92292068 0 -135.54850766 0 23649
0.14850000 0.14849900 10830.61596786 0 439.32881139 0 2853.83636038 0 -165.64087205 0 109.97320890 0 23640
0.14950000 0.14949500 10375.75379198 0 354.06194519 0 3043.07346386 0 -134.44127518 0 428.74477609 0 24457
0.15050000 0.15050000 10218.68179210 0 72.29076585 0 3088.29283842 0 91.34756554 0 359.29472590 0 24591
0.15150000 0.15149900 10121.95396249 0 114.96505582 0 3305.27718789 0 352.70890710 0 403.17767085 0 25020
0.15250000 0.15250500 10059.83822025 0 240.06682502 0 3153.30952975 0 58.93787429 0 228.41098868 0 25297
0.15350000 0.15350100 9899.54417386 0 53.07696059 0 2997.75443837 0 8.55075785 0 619.73905752 0 25452
0.15450000 0.15450400 9783.43977581 0 50.98185529 0 2963.58524398 0 57.14548634 0 642.61448059 0 26061
0.15550000 0.15549900 9851.15811440 0 102.05328568 0 2888.86919611 0 -20.35801930 0 174.61166962 0 26128
0.15650000 0.15649500 9718.25699960 0 109.49023409 0 2742.42662806 0 -141.71911428 0 -22.45378895 0 26331
0.15750000 0.15749700 9627.26463424 0 234.96801944 0 2960.54035466 0 -124.94011325 0 -225.61190497 0 27345
0.15850000 0.15849900 9380.61752658 0 282.74177934 0 2815.70327371 0 128.51093801 0 -441.74700713 0 26980
0.15950000 0.15949700 9194.25922756 0 124.32117030 0 2728.73016226 0 247.18079372 0 -106.42563603 0 27777
0.16050000 0.16050000 9199.39678627 0 83.19866664 0 2651.04673133 0 270.83570846 0 -241.54719485 0 28224
0.16150000 0.16150500 9143.86907731 0 -16.69640149 0 2746.35730337 0 363.52878291 0 -26.95347103 0 28075
0.16250000 0.16249700 9094.37578537 0 114.60409804 0 2740.44468191 0 157.57689789 0 398.06225679 0 28590
0.16350000 0.16349900 9146.71466479 0 99.96903126 0 2645.06767593 0 96.32667929 0 352.85063286 0 29163
0.16450000 0.16449100 8955.47347052 0 51.58108951 0 2926.71440234 0 -2.64940803 0 683.13808220 0 28996
0.16550000 0.16550500 8951.81960333 0 127.56868317 0 2580.28350341 0 -31.74047994 0 418.62134951 0 30777
0.16650000 0.16650700 8891.09897402 0 38.84415138 0 2760.65167471 0 1.45062956 0 359.13306996 0 29211
0.16750000 0.16749900 8762.66000613 0 15.73753816 0 2341.92956704 0 182.68117995 0 -33.53120703 0 30922
0.16850000 0.16850800 8790.78371117 0 52.19261401 0 2453.37251634 0 242.21928497 0 -182.38001272 0 30867
0.16950000 0.16949900 8656.29925392 0 222.52604804 0 1856.55206397 0 296.74937746 0 -256.54687328 0 30852
0.17050000 0.17049200 8391.72605238 0 136.23720627 0 1675.89601223 0 195.85724648 0 -154.52204347 0 31257
0.17150000 0.17149500 8299.13927224 0 215.48847839 0 1600.19452744 0 210.95436137 0 -267.96686910 0 32608
0.17250000 0.17250900 8094.00231033 0 197.36418989 0 1721.41433955 0 257.85230038 0 -241.08215721 0 32361
0.17350000 0.17350400 7950.36104046 0 108.13143839 0 1715.66780297 0 -25.40622436 0 -36.40491822 0 32508
0.17450000 0.17449800 7852.45954441 0 165.53568497 0 1561.77356032 0 94.49210579 0 294.87040394 0 32791
0.17550000 0.17549800 7781.03197700 0 64.98934269 0 1679.61631336 0 12.99193377 0 239.73244081 0 33633
0.17650000 0.17650100 7763.43805287 0 76.43425124 0 1777.50673709 0 -198.38284378 0 201.40115952 0 33984
0.17750000 0.17750300 7747.08422911 0 125.05747990 0 1780.70663896 0 -41.22115807 0 123.88270623 0 34069
0.17850000 0.17849800 7660.78652947 0 105.56952388 0 1794.73527450 0 -261.41205281 0 205.38830369 0 34536
