### header ###
fiducial parameters:
Omega_m = 0.31
Omega_nu = 0
Omega_de = 0.69
Omega_k = 0
H_0 = 100
w_de = -1
zeff = 0
beta = 0
fgrowth = 0
b_1 = 2
gamma = 0.55
Lx = 3500 Ly = 3500 Lz = 3500
nx = 700 ny = 700 nz = 700
xoffset = -685.467585 yoffset = -31.7331281 zoffset = 572.489161
bins = 400 dk = 0.001
kx_ny = 0.628318531 ky_ny = 0.628318531 kz_ny = 0.628318531
############################
A(data) = 8.03269032 (not used)
A(ran) = 8.03283205 (used)
Ngal = 477085
weighted Ngal = 0
Nran = 23820508
weighted Nran = 0
SN(data) = 3484.63122
SN(ran) = 69.9688804
SN(data+ran) = 3554.6001
############################
13 columns: k_central k_mean P_0(k) sigma^{lin}_{P_0(k)} P^img_1(k) sigma^{lin}_{P_1(k)} P_2(k) sigma^{lin}_{P_2(k)} P^img_3(k) sigma^{lin}_{P_3(k)} P_4(k) sigma^{lin}_{P_4(k)} N_modes
### header ###
0.00050000 0 0 0 0 0 0 0 0 0 0 0 0
0.00150000 0.00179520 104371.38760775 0 -72327.74741284 0 19812.26441424 0 91529.48383659 0 -188480.86369037 0 3
0.00250000 0.00253879 164259.04591710 0 -38845.92294724 0 31673.71382272 0 -45413.25096693 0 79118.73639386 0 6
0.00350000 0.00331552 143643.48433726 0 30377.91964919 0 19742.28732139 0 -80520.49271590 0 207810.92835876 0 7
0.00450000 0.00420575 108365.95023257 0 44657.34335156 0 -6593.38119998 0 -22488.99893915 0 79273.41677158 0 24
0.00550000 0.00557378 89170.41431073 0 -15269.06809466 0 4754.62236200 0 45576.01414176 0 -8677.05986295 0 45
0.00650000 0.00659388 114212.13773682 0 -30142.41130030 0 31752.21660568 0 68359.20475134 0 15608.43485035 0 40
0.00750000 0.00754703 119543.46213700 0 -9393.63858057 0 13607.11213938 0 -6945.68043106 0 25572.86284764 0 57
0.00850000 0.00846663 110845.04375947 0 22939.31038953 0 -393.66986553 0 19834.29834063 0 57220.22453729 0 75
0.00950000 0.00948925 111621.21372926 0 9020.84447625 0 13306.94141355 0 -7931.83704103 0 27145.35441839 0 112
0.01050000 0.01054430 97481.96565909 0 9746.38070464 0 45001.36048367 0 9737.88823150 0 55184.90978913 0 105
0.01150000 0.01145670 95935.71549817 0 9981.59010076 0 37858.49301992 0 10927.10020632 0 25929.72387655 0 144
0.01250000 0.01249090 87816.37970865 0 3878.81254117 0 47989.89167547 0 4289.46292404 0 46687.78627680 0 169
0.01350000 0.01339930 91046.95192099 0 3655.81591932 0 39768.24760464 0 9652.13307578 0 13879.49132992 0 180
0.01450000 0.01448870 78411.10411470 0 368.49029166 0 39197.24781374 0 6156.91015563 0 16554.01138986 0 267
0.01550000 0.01550050 83766.67690624 0 -2991.84181692 0 36399.16060882 0 14732.06034095 0 2434.66028740 0 238
0.01650000 0.01653350 77886.38664155 0 3099.60875438 0 22876.53030781 0 -3728.60538268 0 -10628.65676316 0 315
0.01750000 0.01747870 79436.40139291 0 5011.86568451 0 29071.71749033 0 -817.72661930 0 -8778.02839297 0 297
0.01850000 0.01844180 81770.11529494 0 1534.40277337 0 19979.89941200 0 -14392.02924577 0 -20514.91414724 0 388
0.01950000 0.01947590 72652.38797653 0 7486.45277520 0 25357.06323693 0 -10595.42871638 0 -14090.75128746 0 399
0.02050000 0.02045430 70411.57087973 0 3789.79104963 0 34410.34962489 0 -7250.80048609 0 -18643.46980639 0 462
0.02150000 0.02154770 69580.92507183 0 959.62289078 0 33657.76370697 0 8187.96205874 0 -22122.06209466 0 571
0.02250000 0.02255340 73192.93887417 0 -5169.52451760 0 34834.86255844 0 -10012.59261025 0 -26694.15718203 0 510
0.02350000 0.02348930 73106.79618708 0 2342.87071465 0 32295.86775428 0 11642.54954681 0 -18478.93505958 0 555
0.02450000 0.02439640 74135.74733248 0 873.68504170 0 35133.81532854 0 5003.79395972 0 -9108.39334859 0 592
0.02550000 0.02547300 71969.44698171 0 -588.99785489 0 24281.38688079 0 8570.17871148 0 -15712.07181065 0 837
0.02650000 0.02652900 74829.20703587 0 620.22070365 0 28612.88034985 0 11302.18628188 0 -19737.74766822 0 723
0.02750000 0.02749970 70716.39198199 0 2185.27831551 0 13276.49252029 0 625.16449668 0 -19378.00783486 0 826
0.02850000 0.02848090 66505.58685345 0 4708.20717636 0 18728.83743074 0 -4567.71044674 0 -15303.39230160 0 831
0.02950000 0.02946900 59642.29559137 0 6642.16586313 0 20656.08628867 0 -2983.60400726 0 -14037.71485158 0 996
0.03050000 0.03053250 59636.31653597 0 4231.23356782 0 19999.38670368 0 -6635.27887710 0 -10553.74141344 0 1041
0.03150000 0.03150510 55822.78642193 0 2811.32970540 0 26092.70849788 0 1698.80465228 0 -6440.51668354 0 1036
0.03250000 0.03246190 52455.58172133 0 2998.18625904 0 25135.17384756 0 -407.68964322 0 -6194.31246887 0 1059
0.03350000 0.03345080 50658.43268002 0 1492.81512135 0 28592.17510244 0 5127.80399769 0 -1405.38804458 0 1302
0.03450000 0.03451200 51095.56806386 0 461.33727143 0 27546.50474657 0 3679.14530771 0 -4004.77130831 0 1339
0.03550000 0.03553350 48799.94295921 0 980.42446741 0 26502.49523942 0 3842.74997923 0 -2240.94996470 0 1365
0.03650000 0.03647120 49679.97133579 0 2795.51842556 0 28051.07058855 0 -712.23061566 0 -2762.98793525 0 1308
0.03750000 0.03744890 47749.62222691 0 1559.60338466 0 24098.13990505 0 1969.58942804 0 -1455.44602509 0 1579
0.03850000 0.03847530 46608.84060084 0 -1444.50656817 0 20203.67109658 0 4458.98021702 0 -5443.76385871 0 1662
0.03950000 0.03950240 49833.76592752 0 -2830.47375501 0 21775.71977434 0 -608.85496222 0 -13571.90214646 0 1683
0.04050000 0.04050350 48789.53497388 0 -37.30454461 0 20142.10897059 0 3486.22112007 0 -14004.27643062 0 1822
0.04150000 0.04152450 51746.73148644 0 976.47607638 0 20104.68451271 0 -1815.42944959 0 -11493.07316175 0 1887
0.04250000 0.04250150 45786.72048306 0 1856.10917097 0 14365.12349646 0 2402.66126867 0 -2391.17926783 0 1920
0.04350000 0.04349210 48751.00328351 0 2138.57524942 0 19115.92590640 0 5843.89553301 0 -8902.85778298 0 2005
0.04450000 0.04448520 44560.34978615 0 311.94503605 0 14650.90020003 0 2427.71793974 0 -2267.78928006 0 2151
0.04550000 0.04548030 44407.99459664 0 3998.64831268 0 15184.03264005 0 -168.48313784 0 78.00353184 0 2274
0.04650000 0.04648670 39629.73282115 0 4580.79793467 0 14744.01845176 0 301.85039751 0 1805.16540448 0 2311
0.04750000 0.04749250 37801.35982385 0 1438.99255041 0 16391.02676853 0 -1709.29014388 0 5126.72998218 0 2568
0.04850000 0.04851840 35985.83072334 0 549.54273263 0 16882.30582073 0 1523.43009947 0 2026.96621525 0 2493
0.04950000 0.04949480 36941.15090869 0 -1477.11456476 0 16875.21953285 0 1350.20357769 0 1264.19375849 0 2644
0.05050000 0.05050630 36593.92280238 0 -52.75398088 0 17633.67378293 0 1373.04578379 0 -1949.05026550 0 2829
0.05150000 0.05149060 37540.49585112 0 1350.60218138 0 15973.04650663 0 -397.00042084 0 -525.15372275 0 2784
0.05250000 0.05249300 37335.76856523 0 859.87563818 0 18810.32974141 0 -111.60571247 0 579.20659805 0 3055
0.05350000 0.05348950 36221.67124198 0 127.34059327 0 14161.28199655 0 1554.08936690 0 2260.80264310 0 3009
0.05450000 0.05448610 37064.16443743 0 -567.49872179 0 15373.48011770 0 2139.29495054 0 -899.69946886 0 3336
0.05550000 0.05550870 36659.80313505 0 -310.48459640 0 13757.14214067 0 3597.43155055 0 -2222.28202505 0 3349
0.05650000 0.05647670 37184.52060820 0 -47.23453768 0 14285.40275777 0 1950.67789725 0 -44.63132339 0 3324
0.05750000 0.05747970 36813.15483379 0 436.87850590 0 10407.95211255 0 264.63520656 0 -3966.92610208 0 3639
0.05850000 0.05849280 35268.45479834 0 2116.85134813 0 11960.65743885 0 576.40972880 0 -2145.86083915 0 3846
0.05950000 0.05951020 33478.39204491 0 2731.64218368 0 10721.14389237 0 323.19894699 0 -1587.89317457 0 3787
0.06050000 0.06049470 31054.99231185 0 1441.43953419 0 10860.90984856 0 1071.17102716 0 377.27507417 0 3930
0.06150000 0.06148310 31145.01031263 0 -198.90213581 0 9902.88801595 0 949.27912493 0 -688.02651360 0 4083
0.06250000 0.06249100 31478.95162916 0 -1286.06160001 0 11237.30245844 0 1124.71568275 0 -394.07621985 0 4303
0.06350000 0.06350600 32347.24334143 0 226.04926180 0 11469.26766339 0 -1238.95993023 0 -636.42947995 0 4470
0.06450000 0.06451750 31613.48037570 0 1481.60992863 0 11414.68110204 0 -1314.71677664 0 -313.03012388 0 4479
0.06550000 0.06550280 31078.35491722 0 909.59923448 0 12262.82118315 0 48.59953388 0 -1444.47335119 0 4636
0.06650000 0.06648880 30820.81264194 0 -142.39120440 0 12670.06128998 0 118.37754633 0 -495.14329357 0 4653
0.06750000 0.06749660 30356.88223203 0 -6.66881695 0 11716.95556959 0 723.60300048 0 -1413.38226310 0 5220
0.06850000 0.06852730 30878.94234723 0 -203.33106574 0 11557.29264570 0 3100.06271970 0 -2675.88195590 0 5029
0.06950000 0.06949320 31445.84537795 0 -550.22589507 0 10902.12104153 0 1110.34380514 0 -2776.49617152 0 5040
0.07050000 0.07048030 30614.42450732 0 1381.41646135 0 10192.42930996 0 678.81101766 0 -1493.31337597 0 5475
0.07150000 0.07148790 29163.17489334 0 1483.80224895 0 10636.75063261 0 -421.86775515 0 -287.99338300 0 5509
0.07250000 0.07249820 29046.14042000 0 1098.85294644 0 9960.15407991 0 1355.82831869 0 -220.14549821 0 5916
0.07350000 0.07351270 27786.22057889 0 -83.95878174 0 11385.00727152 0 -258.01506355 0 531.17153129 0 5721
0.07450000 0.07449140 28471.92965491 0 429.74128533 0 10766.49613483 0 874.09803941 0 1232.96980251 0 6028
0.07550000 0.07549160 28290.67569763 0 0.71106359 0 10475.49329395 0 527.15449185 0 1707.10889589 0 6183
0.07650000 0.07648840 27433.67775666 0 641.97892915 0 8482.38624799 0 1532.97444347 0 690.37163200 0 6330
0.07750000 0.07749960 27206.47365138 0 687.01228865 0 9488.41768101 0 1450.35275567 0 -1008.09420714 0 6583
0.07850000 0.07848650 25654.13371181 0 1421.74186834 0 8123.68721317 0 -692.61820671 0 -1582.37915681 0 6549
0.07950000 0.07947320 24868.44154268 0 1455.41280811 0 9013.60317582 0 -199.36717345 0 -2283.35696875 0 6828
0.08050000 0.08048110 23769.84547417 0 604.03185753 0 9210.28088157 0 -278.96058041 0 395.64073935 0 7147
0.08150000 0.08149960 23841.70486225 0 254.96131637 0 9463.89248154 0 642.27788192 0 -133.34954395 0 7386
0.08250000 0.08250610 23231.61976474 0 -75.94651533 0 9547.39995532 0 1092.32138203 0 2152.68139124 0 7227
0.08350000 0.08350160 23746.48286881 0 -219.24088927 0 8675.96370280 0 2220.76511655 0 1614.66605598 0 7798
0.08450000 0.08449610 23535.66580426 0 -289.51693489 0 8158.95256771 0 1086.22938892 0 1601.00280715 0 7371
0.08550000 0.08548940 23423.61387709 0 716.64182986 0 7645.76138470 0 1245.83584394 0 1799.99462879 0 8256
0.08650000 0.08650700 23151.78830280 0 232.13128982 0 7484.12758699 0 -360.58133004 0 1237.85269775 0 8037
0.08750000 0.08749060 22282.27863479 0 618.50006437 0 6800.14579365 0 69.53541782 0 907.43902391 0 8155
0.08850000 0.08849210 21807.49734656 0 1007.33353842 0 6182.80832338 0 1025.52204640 0 862.86959481 0 8718
0.08950000 0.08949900 20843.65147110 0 520.56092242 0 5370.77509351 0 1018.66938457 0 378.76098016 0 8571
0.09050000 0.09049190 20346.39336350 0 361.35307108 0 4616.40653129 0 453.42388088 0 -1648.50308062 0 8932
0.09150000 0.09150830 19928.85599459 0 367.46610162 0 5121.91352088 0 -399.45183355 0 -2232.04781554 0 9285
0.09250000 0.09250820 19881.02355137 0 177.49047408 0 4666.54201807 0 -802.74465658 0 -1257.61679755 0 9204
0.09350000 0.09350330 19875.93028195 0 -155.63370488 0 5258.34670730 0 -229.72084471 0 -1553.77934180 0 9349
0.09450000 0.09448040 19820.01504162 0 441.66175023 0 5612.06319595 0 338.29384742 0 -1285.93980444 0 9564
0.09550000 0.09549270 19548.52163706 0 640.14313769 0 5299.87899769 0 115.08463693 0 -1289.25042956 0 10155
0.09650000 0.09649430 18989.92284996 0 622.63225599 0 5435.39318115 0 -142.33916447 0 -83.08218579 0 9913
0.09750000 0.09749140 18635.82990226 0 588.31247798 0 6290.33166970 0 672.43003686 0 335.28328230 0 10476
0.09850000 0.09850240 18185.40772864 0 381.87451790 0 6620.10979209 0 825.39863316 0 855.24076301 0 10575
0.09950000 0.09950330 18007.14329906 0 247.43213549 0 6349.45788423 0 -90.20346222 0 853.81354035 0 10882
0.10050000 0.10051200 17898.08089960 0 633.82859085 0 6610.97512412 0 -319.56833168 0 1205.08968861 0 10875
0.10150000 0.10150300 17327.85617144 0 653.05236120 0 6927.02356374 0 -802.37705540 0 1913.17593309 0 11118
0.10250000 0.10250800 16937.44599833 0 309.90883551 0 7291.00409751 0 -146.25544576 0 2193.05108753 0 11575
0.10350000 0.10349800 16983.61759283 0 -27.88077823 0 7545.83365321 0 359.61803778 0 2044.64871799 0 11364
0.10450000 0.10450100 16750.54515539 0 17.70032918 0 6816.23388161 0 860.47132926 0 1866.94897697 0 12093
0.10550000 0.10551000 16865.80805675 0 52.91353308 0 6784.93241934 0 926.34723300 0 957.51250567 0 12067
0.10650000 0.10649700 16539.94953734 0 92.32204085 0 6180.78208794 0 402.17894716 0 915.64140213 0 12054
0.10750000 0.10749900 16334.00429572 0 453.99299838 0 6491.79261977 0 405.23158711 0 497.87815780 0 12807
0.10850000 0.10850100 16110.56478087 0 297.26534780 0 5866.46093099 0 -88.90700370 0 1133.21922821 0 12736
0.10950000 0.10950300 15709.08228295 0 -149.47306335 0 5251.61473381 0 716.25983466 0 547.29062176 0 12933
0.11050000 0.11050200 15911.92727363 0 -24.06946258 0 5526.16410001 0 407.62099480 0 -161.10786227 0 13428
0.11150000 0.11150900 15852.24744286 0 150.92575237 0 4948.59842050 0 704.31390341 0 -284.27861802 0 13453
0.11250000 0.11250000 15586.29020071 0 287.36558218 0 5002.94139071 0 345.59493840 0 225.07046829 0 13668
0.11350000 0.11349100 15424.63425836 0 144.18602825 0 4825.41880689 0 109.20689330 0 177.30445902 0 13791
0.11450000 0.11448600 15323.43320952 0 226.30946143 0 5235.09482518 0 -58.48446259 0 75.17632442 0 14205
0.11550000 0.11549300 15184.80770279 0 432.32002978 0 5395.63246272 0 -779.99988694 0 705.60382925 0 14776
0.11650000 0.11649800 14733.83191292 0 467.97845185 0 5270.81414504 0 4.81514369 0 1406.96031471 0 14553
0.11750000 0.11747300 14624.65879021 0 231.88548421 0 5417.88783561 0 170.12959254 0 1456.37610037 0 14568
0.11850000 0.11849100 14562.32160148 0 -82.21422624 0 4947.98944263 0 759.27249488 0 1537.22621620 0 16015
0.11950000 0.11950300 14547.48468623 0 193.14231244 0 5206.80503527 0 912.55775967 0 1167.12268681 0 15270
0.12050000 0.12050700 14348.40428599 0 106.18425935 0 4594.49440047 0 81.65607035 0 765.59368512 0 15999
0.12150000 0.12150000 14282.63467656 0 254.98235378 0 4846.09083733 0 -144.51487630 0 1027.97788805 0 15670
0.12250000 0.12250700 14081.33981136 0 255.83492279 0 4832.12863573 0 -643.86897499 0 626.77109101 0 16887
0.12350000 0.12352200 14021.77070384 0 -0.26486108 0 5418.59646440 0 -302.92441302 0 401.49689195 0 16407
0.12450000 0.12449800 13966.29835650 0 51.11948429 0 5139.98355499 0 -158.32870874 0 214.57611882 0 16306
0.12550000 0.12549900 13937.51031197 0 203.90239770 0 5333.47243119 0 92.57039309 0 137.52381041 0 17523
0.12650000 0.12650100 13989.10734562 0 79.35955946 0 5208.49910096 0 395.28753219 0 398.36785295 0 17154
0.12750000 0.12750600 13743.30173465 0 222.39982354 0 5079.27399801 0 1025.56633570 0 312.08344011 0 18007
0.12850000 0.12850300 13670.99945358 0 124.32006306 0 4935.58843883 0 932.39272235 0 900.55093064 0 17496
0.12950000 0.12949900 13403.71353246 0 212.63292582 0 4502.27300706 0 618.93077781 0 1039.03249714 0 18405
0.13050000 0.13049000 13340.93345074 0 303.42598933 0 4659.52216413 0 582.75306369 0 1574.57316781 0 18100
0.13150000 0.13148800 12761.29724648 0 318.12450053 0 4133.63102455 0 118.80161637 0 1551.95240821 0 19059
0.13250000 0.13249300 12748.67479619 0 289.34199216 0 4386.36791086 0 -56.51768553 0 1644.49489904 0 18957
0.13350000 0.13349100 12448.50407036 0 216.49605995 0 4565.56241572 0 -549.85940112 0 1429.80252081 0 19468
0.13450000 0.13450700 12242.55882873 0 370.02270142 0 4901.90642674 0 -246.63049917 0 1496.41362692 0 19953
0.13550000 0.13551000 11986.23450918 0 380.00661671 0 5073.43888283 0 -220.74118928 0 1555.17445473 0 19956
0.13650000 0.13649900 11768.22043350 0 135.39017342 0 4644.09841566 0 498.81598371 0 1556.14881931 0 19723
0.13750000 0.13749600 11574.56547242 0 70.93030930 0 4641.51856398 0 657.25984463 0 1196.24290108 0 20946
0.13850000 0.13851100 11610.88269783 0 -66.06047940 0 4248.27387572 0 466.40286003 0 788.41706827 0 20955
0.13950000 0.13949800 11519.42529482 0 -35.45524492 0 4100.32547149 0 272.62721061 0 799.06864474 0 20506
0.14050000 0.14048300 11488.42278533 0 156.90370054 0 3852.29432323 0 64.34150097 0 706.69998941 0 21447
0.14150000 0.14148400 11511.12105121 0 138.53028474 0 3434.11475948 0 -65.35683315 0 640.69011054 0 21771
0.14250000 0.14249400 11238.63113742 0 137.07205956 0 3703.44906069 0 -276.32758157 0 222.03665129 0 22470
0.14350000 0.14350900 11102.44154215 0 208.32136253 0 3578.76361091 0 -117.37550094 0 -115.84530565 0 22519
0.14450000 0.14449900 10918.25341879 0 204.97862767 0 3547.35142540 0 51.28014372 0 -313.58595458 0 22218
0.14550000 0.14550500 10849.80430677 0 96.15273306 0 3653.96684108 0 186.86651873 0 -63.06010082 0 23559
0.14650000 0.14650700 10708.42179116 0 68.94725592 0 3397.02247134 0 431.31466268 0 -23.68602798 0 23044
0.14750000 0.14750500 10629.60898310 0 124.75188373 0 3215.54706756 0 380.95440771 0 -366.65450021 0 23649
0.14850000 0.14849900 10547.05372925 0 163.92909064 0 3106.96077806 0 143.12087061 0 -31.10293548 0 23640
0.14950000 0.14949500 10379.04227245 0 176.39099222 0 2956.18893101 0 281.69544464 0 -44.10217699 0 24457
0.15050000 0.15050000 10180.28296963 0 133.97291584 0 2674.68614482 0 185.12594927 0 91.69645449 0 24591
0.15150000 0.15149900 10110.52732327 0 167.65271347 0 2712.28775990 0 237.34524758 0 103.46312480 0 25020
0.15250000 0.15250500 9961.62669911 0 120.93857506 0 2635.64512751 0 279.40568787 0 223.40519063 0 25297
0.15350000 0.15350100 9855.07771738 0 103.75930949 0 2518.93175159 0 120.46910849 0 577.86131059 0 25452
0.15450000 0.15450400 9786.03069981 0 118.72411010 0 2530.52447568 0 -77.68387382 0 185.82793466 0 26061
0.15550000 0.15549900 9943.54559268 0 111.18717860 0 2802.12860348 0 -265.77787048 0 188.61705329 0 26128
0.15650000 0.15649500 9694.08611452 0 229.72748810 0 2893.63029578 0 -260.73996269 0 -14.43133600 0 26331
0.15750000 0.15749700 9582.68745452 0 215.69774533 0 3117.09195527 0 -381.28768469 0 211.02522425 0 27345
0.15850000 0.15849900 9447.12898177 0 71.07646399 0 3133.65615320 0 -99.59478668 0 -351.49427307 0 26980
0.15950000 0.15949700 9326.30777334 0 325.21853904 0 3172.58644726 0 182.80961892 0 -272.99481180 0 27777
0.16050000 0.16050000 9021.04377809 0 333.41205940 0 2932.20627545 0 -27.15875193 0 -405.03339249 0 28224
0.16150000 0.16150500 8846.63251755 0 165.24891176 0 2836.02098975 0 346.19948734 0 27.71159311 0 28075
0.16250000 0.16249700 8692.78256420 0 -96.43175565 0 2470.32424564 0 648.84377054 0 16.47871958 0 28590
0.16350000 0.16349900 8770.55457372 0 -106.29553621 0 2350.96458409 0 643.52019676 0 133.61970868 0 29163
0.16450000 0.16449100 8809.89454380 0 -10.78246243 0 1920.07399145 0 584.65750356 0 252.98158469 0 28996
0.16550000 0.16550500 8758.47466734 0 156.80072792 0 2093.94270808 0 230.17923896 0 477.80181843 0 30777
0.16650000 0.16650700 8624.04557172 0 163.82722525 0 1901.15138834 0 51.43404903 0 975.99885918 0 29211
0.16750000 0.16749900 8540.70418281 0 179.74922834 0 2178.24738925 0 -117.67223924 0 670.03287854 0 30922
0.16850000 0.16850800 8349.81730294 0 155.16977447 0 2032.32522046 0 -221.43320958 0 1178.13965000 0 30867
0.16950000 0.16949900 8476.25218004 0 114.62181376 0 2429.42307776 0 -200.15884468 0 938.26880513 0 30852
0.17050000 0.17049200 8485.88510263 0 -130.82616113 0 2311.44745682 0 -18.83513175 0 1125.36894992 0 31257
0.17150000 0.17149500 8465.82205006 0 10.22717427 0 2366.43262187 0 181.72563832 0 790.73672032 0 32608
0.17250000 0.17250900 8586.15607619 0 50.04270070 0 2508.86700833 0 25.47520494 0 837.32352699 0 32361
0.17350000 0.17350400 8371.40833633 0 124.75299096 0 2601.68630729 0 115.63714594 0 1003.41947160 0 32508
0.17450000 0.17449800 8265.32439225 0 235.76744129 0 2503.68516032 0 98.45278710 0 844.50725134 0 32791
0.17550000 0.17549800 8089.56230808 0 87.78980613 0 2422.02676478 0 216.17606976 0 1060.45190951 0 33633
0.17650000 0.17650100 8159.96014927 0 54.69208061 0 2311.22601032 0 198.38505824 0 1054.64668960 0 33984
0.17750000 0.17750300 8013.78331702 0 -47.97582982 0 2173.67451910 0 271.26974359 0 818.67108860 0 34069
