### header ###
fiducial parameters:
Omega_m = 0.31
Omega_nu = 0
Omega_de = 0.69
Omega_k = 0
H_0 = 100
w_de = -1
zeff = 0
beta = 0
fgrowth = 0
b_1 = 2
gamma = 0.55
Lx = 3500 Ly = 3500 Lz = 3500
nx = 700 ny = 700 nz = 700
xoffset = -685.467585 yoffset = -31.7331281 zoffset = 572.489161
bins = 400 dk = 0.001
kx_ny = 0.628318531 ky_ny = 0.628318531 kz_ny = 0.628318531
############################
A(data) = 7.99932095 (not used)
A(ran) = 7.99778436 (used)
Ngal = 475654
weighted Ngal = 0
Nran = 23820508
weighted Nran = 0
SN(data) = 3493.00898
SN(ran) = 69.6636023
SN(data+ran) = 3562.67258
############################
13 columns: k_central k_mean P_0(k) sigma^{lin}_{P_0(k)} P^img_1(k) sigma^{lin}_{P_1(k)} P_2(k) sigma^{lin}_{P_2(k)} P^img_3(k) sigma^{lin}_{P_3(k)} P_4(k) sigma^{lin}_{P_4(k)} N_modes
### header ###
0.00050000 0 0 0 0 0 0 0 0 0 0 0 0
0.00150000 0.00179520 16256.60874523 0 -15139.85406402 0 1824.65269616 0 13929.31679160 0 -37657.86249420 0 3
0.00250000 0.00253879 34985.33545272 0 -22998.65805055 0 1301.34140826 0 5312.28000149 0 15626.15057006 0 6
0.00350000 0.00331552 36059.68312988 0 -2786.38375759 0 13189.13187748 0 896.94799614 0 79119.51145660 0 7
0.00450000 0.00420575 44223.86183491 0 2392.36400659 0 13380.79382009 0 -5123.70723750 0 2017.54366683 0 24
0.00550000 0.00557378 47310.71527110 0 -11892.89481096 0 29574.06886736 0 24754.06442730 0 1669.67336568 0 45
0.00650000 0.00659388 66204.97323463 0 -15484.97842862 0 3016.11235292 0 50110.68477124 0 13993.64699880 0 40
0.00750000 0.00754703 63925.40300097 0 -13190.01766346 0 11737.66081700 0 5851.18112274 0 -18671.81495792 0 57
0.00850000 0.00846663 78378.77292623 0 4271.19358809 0 8709.70107652 0 10676.97638867 0 76.39771257 0 75
0.00950000 0.00948925 90332.56552369 0 621.18731760 0 23928.51188882 0 -18102.58673900 0 -15139.63261753 0 112
0.01050000 0.01054430 82749.01953215 0 4512.52597984 0 11287.68153637 0 -35477.61101416 0 10889.84183331 0 105
0.01150000 0.01145670 91427.39700176 0 594.25167302 0 25289.07916254 0 -14832.59705031 0 -14180.99073473 0 144
0.01250000 0.01249090 90310.86376705 0 -277.78137782 0 21904.04801898 0 -11083.39714346 0 -29321.17696850 0 169
0.01350000 0.01339930 91901.62467374 0 4629.94798454 0 34869.85110487 0 7867.14144712 0 -27175.91403489 0 180
0.01450000 0.01448870 81730.58709533 0 15280.47258922 0 22383.70113013 0 2332.04198098 0 -23828.86096546 0 267
0.01550000 0.01550050 75402.08912199 0 4931.09307496 0 23193.30952087 0 23910.57472262 0 -23838.82605779 0 238
0.01650000 0.01653350 67752.55207453 0 615.65558412 0 20299.33598302 0 18795.04993316 0 -26834.88643047 0 315
0.01750000 0.01747870 66887.13916671 0 2375.99911051 0 4991.82477659 0 16766.15713339 0 -13650.62637592 0 297
0.01850000 0.01844180 67350.40523712 0 -1795.99751953 0 2015.68351626 0 -1474.78937654 0 -21183.90401278 0 388
0.01950000 0.01947590 65288.73835589 0 4.31549396 0 5572.24711591 0 -2685.89133753 0 -6863.82273368 0 399
0.02050000 0.02045430 68239.73436655 0 -2936.44697585 0 1853.49610232 0 -1483.73581500 0 -7213.16565403 0 462
0.02150000 0.02154770 71899.35916561 0 -4455.63637492 0 3510.18163098 0 3748.25875923 0 -9226.86722415 0 571
0.02250000 0.02255340 71858.50228703 0 650.99401601 0 2358.01765500 0 468.99932020 0 -4939.34195695 0 510
0.02350000 0.02348930 71022.32031672 0 6666.44747146 0 6701.39172859 0 -1442.11494600 0 -17389.52902068 0 555
0.02450000 0.02439640 64780.85081645 0 2256.67266594 0 8573.55577055 0 -852.32541989 0 5626.94440051 0 592
0.02550000 0.02547300 62056.06240183 0 2717.48068024 0 11041.67662355 0 -847.81676922 0 1316.56585489 0 837
0.02650000 0.02652900 61387.29398279 0 -1433.72212379 0 7486.99531912 0 2545.12887211 0 5063.66202001 0 723
0.02750000 0.02749970 66334.29798851 0 -3198.53997664 0 15427.62378606 0 1360.26832095 0 -259.98925907 0 826
0.02850000 0.02848090 65148.67344693 0 24.23001129 0 6541.98346817 0 1472.81850273 0 5101.62902182 0 831
0.02950000 0.02946900 66462.95840290 0 1151.53285346 0 11242.94934410 0 -1091.93827959 0 2793.44790082 0 996
0.03050000 0.03053250 64517.10803927 0 2836.95106503 0 7249.18392667 0 105.55169743 0 -3584.95304048 0 1041
0.03150000 0.03150510 61187.21707331 0 3633.70448666 0 4314.96248810 0 2490.91876980 0 -4867.26112238 0 1036
0.03250000 0.03246190 59371.90941930 0 544.67533864 0 1888.52893804 0 -4215.01261196 0 -16098.27450033 0 1059
0.03350000 0.03345080 57545.41871721 0 977.11162783 0 4353.46096149 0 -1390.15252563 0 -16336.55093042 0 1302
0.03450000 0.03451200 55595.47159340 0 2803.49049943 0 3622.03425630 0 -5749.32680673 0 -17897.63800660 0 1339
0.03550000 0.03553350 52480.16228243 0 2952.57935311 0 3834.87755629 0 -2923.56986209 0 -14057.31286651 0 1365
0.03650000 0.03647120 52298.68687865 0 2363.80848088 0 5322.46654032 0 -1075.29546816 0 -16505.18243741 0 1308
0.03750000 0.03744890 49973.05577374 0 1853.41859604 0 8783.71956793 0 -535.71007724 0 -12317.18629801 0 1579
0.03850000 0.03847530 49896.43528600 0 515.62045108 0 12766.27979265 0 -2860.92264827 0 -10476.31264598 0 1662
0.03950000 0.03950240 48663.75336394 0 1807.60131594 0 15930.97167232 0 -5080.58053234 0 -11131.67247967 0 1683
0.04050000 0.04050350 48514.60914863 0 2389.24161099 0 21138.72892752 0 -1484.92055375 0 -7635.39768866 0 1822
0.04150000 0.04152450 47692.15686110 0 51.28911230 0 15964.18864677 0 -298.99927387 0 -10191.47709002 0 1887
0.04250000 0.04250150 48665.96782890 0 -910.57581353 0 16324.59281962 0 293.74656297 0 -10076.26955029 0 1920
0.04350000 0.04349210 48807.13997034 0 1012.81323197 0 18019.10140987 0 2851.33401497 0 -10143.00245197 0 2005
0.04450000 0.04448520 46404.88837768 0 1449.86557338 0 13444.90258079 0 5134.25916306 0 -7383.33621417 0 2151
0.04550000 0.04548030 45503.37969095 0 476.91603245 0 11601.91411472 0 4118.98233881 0 -10786.80277855 0 2274
0.04650000 0.04648670 44109.26327303 0 1300.74350272 0 7886.44050928 0 5404.41281631 0 -8681.35592498 0 2311
0.04750000 0.04749250 44100.29468993 0 -264.11148560 0 10847.24659973 0 2489.72295872 0 -9360.27766589 0 2568
0.04850000 0.04851840 41595.51336946 0 2525.98482250 0 8935.69829839 0 -3533.63281495 0 -3753.92778954 0 2493
0.04950000 0.04949480 41299.43940381 0 3449.53850795 0 12522.02430715 0 -2293.73173711 0 107.18564041 0 2644
0.05050000 0.05050630 38787.01817921 0 579.36936123 0 12697.63137878 0 -253.15431296 0 1138.74431830 0 2829
0.05150000 0.05149060 39292.91270017 0 -764.96588430 0 12327.48356009 0 861.13234705 0 -333.25040346 0 2784
0.05250000 0.05249300 39362.44690003 0 110.84172206 0 12592.44429300 0 -150.24923332 0 220.69689998 0 3055
0.05350000 0.05348950 40475.54771405 0 672.27723878 0 13008.76370618 0 658.26410449 0 -2871.07597012 0 3009
0.05450000 0.05448610 38524.82552750 0 1596.24170748 0 13674.65332077 0 -2454.34688093 0 -178.14927740 0 3336
0.05550000 0.05550870 37022.53249611 0 1779.95372087 0 14712.46232602 0 -1523.48546110 0 -2037.61779173 0 3349
0.05650000 0.05647670 36866.30199292 0 1152.31898853 0 15989.87644035 0 1595.41128312 0 -1759.93495760 0 3324
0.05750000 0.05747970 35305.76853298 0 1135.27868063 0 13926.77015689 0 -155.17641787 0 -2424.29659137 0 3639
0.05850000 0.05849280 35742.46102382 0 -642.04204140 0 15236.29401319 0 2483.56674612 0 -1822.54895445 0 3846
0.05950000 0.05951020 36029.78785287 0 -428.30852649 0 15987.66197539 0 1591.00449784 0 -2108.82391263 0 3787
0.06050000 0.06049470 35091.18687799 0 1049.90884181 0 14779.00699818 0 2379.80799025 0 1345.92966031 0 3930
0.06150000 0.06148310 35318.39098327 0 626.48099610 0 13729.46132863 0 1079.97131093 0 494.90523858 0 4083
0.06250000 0.06249100 34231.42085582 0 83.24660981 0 13817.92920393 0 612.81110388 0 930.30891082 0 4303
0.06350000 0.06350600 33156.85173217 0 1608.39912013 0 15017.94776777 0 -570.00771059 0 -829.91835615 0 4470
0.06450000 0.06451750 32289.44580588 0 1884.78649225 0 14695.07877606 0 -327.15730311 0 -1235.71573906 0 4479
0.06550000 0.06550280 30374.48722850 0 1641.05140602 0 14864.59606903 0 582.96897403 0 -264.87879771 0 4636
0.06650000 0.06648880 30275.16847487 0 362.93752077 0 13299.30150942 0 -409.32281113 0 -1468.34528350 0 4653
0.06750000 0.06749660 28298.42632500 0 754.31098613 0 12874.56712938 0 1877.98808482 0 -2329.71679277 0 5220
0.06850000 0.06852730 29131.84021410 0 50.71490154 0 12087.32483477 0 689.27879354 0 -2409.26037426 0 5029
0.06950000 0.06949320 29244.99937375 0 -879.82686027 0 11408.36987689 0 495.52861047 0 -3566.83871708 0 5040
0.07050000 0.07048030 29732.07094252 0 134.73247732 0 11722.93462499 0 1055.45829101 0 -3640.97900406 0 5475
0.07150000 0.07148790 29392.48274033 0 423.90727738 0 11638.23134013 0 -203.93229297 0 -2466.64823380 0 5509
0.07250000 0.07249820 29128.07562366 0 728.37627971 0 10975.55269973 0 348.37077023 0 -2622.41369935 0 5916
0.07350000 0.07351270 28535.04190637 0 411.87830370 0 11381.79629733 0 829.49982228 0 -1165.65006761 0 5721
0.07450000 0.07449140 28700.68388566 0 485.91451083 0 11354.77982477 0 1383.87451746 0 -987.24280504 0 6028
0.07550000 0.07549160 27277.00436048 0 780.73841101 0 10894.69151158 0 1390.27432120 0 -702.26663055 0 6183
0.07650000 0.07648840 26734.46044437 0 650.07058412 0 9218.30831706 0 2580.75961338 0 -1026.78096973 0 6330
0.07750000 0.07749960 26168.77536938 0 624.89543918 0 10400.63330585 0 560.38253863 0 -929.80179834 0 6583
0.07850000 0.07848650 25432.02287595 0 1190.34135195 0 9316.25410241 0 465.89353309 0 -745.89601927 0 6549
0.07950000 0.07947320 24641.45888390 0 231.25768339 0 9574.13961976 0 -578.66626860 0 14.99635673 0 6828
0.08050000 0.08048110 24858.47645034 0 63.16296271 0 9678.69558302 0 137.64006982 0 -213.69144007 0 7147
0.08150000 0.08149960 24613.88879510 0 -38.97270107 0 9569.77712378 0 -151.68309939 0 -1160.75610004 0 7386
0.08250000 0.08250610 24531.28925195 0 548.24505616 0 8627.63300496 0 972.77791989 0 -537.95443748 0 7227
0.08350000 0.08350160 24481.02089728 0 378.97024710 0 8815.74073131 0 574.11886480 0 -2103.28775023 0 7798
0.08450000 0.08449610 24035.24910008 0 601.99344253 0 8322.40222669 0 -165.50578969 0 -915.42770626 0 7371
0.08550000 0.08548940 23196.85266481 0 939.03722447 0 8683.57038995 0 1276.37331579 0 -99.19197550 0 8256
0.08650000 0.08650700 22174.65563755 0 483.02684852 0 7765.77431340 0 614.04677533 0 462.72352650 0 8037
0.08750000 0.08749060 21847.35771591 0 320.76635723 0 7977.59895951 0 2092.50330585 0 -230.82475549 0 8155
0.08850000 0.08849210 21862.19463117 0 138.16600525 0 7099.50823977 0 368.15147852 0 -1085.24616647 0 8718
0.08950000 0.08949900 21161.31647015 0 827.05948189 0 6985.04254579 0 -868.71467509 0 -1010.78256760 0 8571
0.09050000 0.09049190 20386.36445609 0 1089.81239323 0 7465.71431082 0 -1179.06972529 0 -939.14019710 0 8932
0.09150000 0.09150830 19635.32866364 0 835.62613960 0 7633.16107905 0 -431.80627390 0 226.41797022 0 9285
0.09250000 0.09250820 19149.69649710 0 318.51203190 0 7469.39032266 0 121.06922850 0 -848.75570237 0 9204
0.09350000 0.09350330 18942.09040675 0 131.93782254 0 7807.79378609 0 1335.55489195 0 -910.69096571 0 9349
0.09450000 0.09448040 18724.40850081 0 51.38311634 0 6808.18430146 0 1261.74677471 0 -1204.42534912 0 9564
0.09550000 0.09549270 18442.17494119 0 307.44856494 0 6526.28291158 0 1383.18803332 0 372.41432358 0 10155
0.09650000 0.09649430 18521.78495663 0 97.66011937 0 5505.23740610 0 1341.45644108 0 867.89200135 0 9913
0.09750000 0.09749140 18267.12148580 0 -328.24681988 0 5260.98192061 0 1596.81746837 0 1026.65142353 0 10476
0.09850000 0.09850240 18250.40227533 0 582.21051978 0 4870.93713422 0 157.65440416 0 1843.61958858 0 10575
0.09950000 0.09950330 17683.05635162 0 609.92122710 0 5473.31589365 0 -80.21932548 0 1824.15444155 0 10882
0.10050000 0.10051200 17579.53011456 0 507.75577877 0 5758.30646216 0 -314.51824433 0 1459.06667530 0 10875
0.10150000 0.10150300 16924.49137829 0 487.80455668 0 5851.26970134 0 -1244.67324984 0 2197.52430676 0 11118
0.10250000 0.10250800 16815.65042533 0 178.34525755 0 6754.90427444 0 -156.73097227 0 1750.91101287 0 11575
0.10350000 0.10349800 16696.40148703 0 184.42950004 0 6661.19918950 0 -254.00245304 0 1726.52975362 0 11364
0.10450000 0.10450100 16626.64584067 0 214.03357491 0 6823.17622927 0 991.69830854 0 998.14240159 0 12093
0.10550000 0.10551000 16344.85517404 0 365.49079887 0 6454.84427185 0 258.16011101 0 461.87095749 0 12067
0.10650000 0.10649700 15950.68041049 0 325.21743181 0 6216.61213105 0 638.61404964 0 778.19952693 0 12054
0.10750000 0.10749900 15556.83781669 0 216.21703736 0 5737.65657637 0 363.19550593 0 717.86975069 0 12807
0.10850000 0.10850100 15313.57884043 0 394.00535697 0 5730.85816893 0 62.13567242 0 225.12472268 0 12736
0.10950000 0.10950300 15163.88100888 0 195.80742102 0 5467.55828475 0 204.22903128 0 534.87411671 0 12933
0.11050000 0.11050200 14918.40756765 0 212.72814781 0 5575.79025985 0 -307.15514833 0 361.90115116 0 13428
0.11150000 0.11150900 15030.79166456 0 56.09538706 0 5658.24586277 0 239.69479491 0 297.45911349 0 13453
0.11250000 0.11250000 14806.90925673 0 -27.15177637 0 5238.56046285 0 665.52312064 0 850.34679544 0 13668
0.11350000 0.11349100 14946.97416568 0 162.42546893 0 5255.39039657 0 762.32292037 0 268.07205618 0 13791
0.11450000 0.11448600 14893.71628331 0 86.33401686 0 4888.61963695 0 965.39710817 0 886.39053443 0 14205
0.11550000 0.11549300 14357.04069935 0 372.78303199 0 4830.96604162 0 584.54788755 0 840.54225182 0 14776
0.11650000 0.11649800 14145.78074181 0 363.42027413 0 4332.61177386 0 282.25348981 0 1020.49963986 0 14553
0.11750000 0.11747300 13909.38660693 0 126.90987984 0 4382.74726064 0 645.23087095 0 1201.94514836 0 14568
0.11850000 0.11849100 13723.15010348 0 119.95424539 0 3993.71005581 0 -272.25296604 0 1003.74721241 0 16015
0.11950000 0.11950300 14159.51042458 0 -189.01012082 0 4428.61990236 0 -242.83933516 0 641.02670921 0 15270
0.12050000 0.12050700 13984.01407621 0 45.17408875 0 4544.54714321 0 -207.15433950 0 465.28012630 0 15999
0.12150000 0.12150000 13826.78706378 0 373.05762565 0 4231.54359292 0 -256.90008044 0 979.79113043 0 15670
0.12250000 0.12250700 13745.84836936 0 97.45074170 0 4463.54201484 0 233.84971463 0 527.67932004 0 16887
0.12350000 0.12352200 13453.42827090 0 11.36817734 0 4231.61002687 0 709.56218538 0 921.19749473 0 16407
0.12450000 0.12449800 13623.49918011 0 328.56238113 0 4086.83937986 0 928.01804681 0 840.47471064 0 16306
0.12550000 0.12549900 13417.99683148 0 34.12999836 0 3485.13603224 0 513.48792132 0 843.95695679 0 17523
0.12650000 0.12650100 12953.62352858 0 326.22501336 0 3245.59735712 0 357.72356301 0 628.93019435 0 17154
0.12750000 0.12750600 12928.71079774 0 179.52003121 0 3400.45489203 0 -367.35427114 0 713.64455154 0 18007
0.12850000 0.12850300 12862.83046507 0 342.32528088 0 4003.53120793 0 -665.34707068 0 655.00330483 0 17496
0.12950000 0.12949900 12617.57847034 0 231.24439660 0 4031.80992551 0 -732.36342387 0 826.61548166 0 18405
0.13050000 0.13049000 12570.52108986 0 90.15884075 0 4574.68601137 0 -147.36710717 0 1016.41395200 0 18100
0.13150000 0.13148800 12632.52610884 0 18.23888706 0 4743.15143349 0 -242.74522039 0 353.78513707 0 19059
0.13250000 0.13249300 12663.63934158 0 27.96514935 0 4937.27143221 0 148.69467892 0 98.39576463 0 18957
0.13350000 0.13349100 12679.80493582 0 131.11182711 0 5011.04633247 0 4.10970373 0 736.58640856 0 19468
0.13450000 0.13450700 12387.93845360 0 267.36453463 0 4454.96096311 0 415.00734269 0 56.75341532 0 19953
0.13550000 0.13551000 12118.54879076 0 193.67932019 0 4715.91351443 0 356.36166706 0 116.02578454 0 19956
0.13650000 0.13649900 11916.47886282 0 279.14770270 0 4144.07222685 0 243.01759958 0 -671.68044047 0 19723
0.13750000 0.13749600 11810.18454456 0 164.10514060 0 3974.90924827 0 -76.76210278 0 -208.89601619 0 20946
0.13850000 0.13851100 11530.49761964 0 44.74138230 0 3709.63849026 0 204.91551542 0 -347.08195163 0 20955
0.13950000 0.13949800 11666.90866141 0 112.25897964 0 3861.42899120 0 104.33584545 0 -327.58580208 0 20506
0.14050000 0.14048300 11455.75942712 0 160.91631105 0 3613.59714479 0 454.80349255 0 -585.27644652 0 21447
0.14150000 0.14148400 11302.73989812 0 192.47575848 0 3392.21708236 0 260.74328439 0 -324.42465335 0 21771
0.14250000 0.14249400 11174.96526972 0 194.90613378 0 3364.11552197 0 317.70707388 0 -199.54433065 0 22470
0.14350000 0.14350900 11008.41535979 0 70.06378916 0 3021.31634559 0 436.49540347 0 -144.90683660 0 22519
0.14450000 0.14449900 11000.67580474 0 148.02037434 0 2918.60946057 0 568.67570992 0 70.16731539 0 22218
0.14550000 0.14550500 10642.86255591 0 157.92899782 0 2691.43857227 0 317.71150281 0 -130.69107876 0 23559
0.14650000 0.14650700 10641.22385183 0 247.79420051 0 2472.39477038 0 164.00548968 0 466.79924926 0 23044
0.14750000 0.14750500 10417.43002260 0 243.79930572 0 2388.18974013 0 99.56278766 0 264.30414405 0 23649
0.14850000 0.14849900 10330.29082628 0 23.14237683 0 2560.69656081 0 44.29428182 0 515.05133359 0 23640
0.14950000 0.14949500 10379.89484146 0 41.07334253 0 2535.85026392 0 209.90138328 0 641.02560198 0 24457
0.15050000 0.15050000 10271.81787891 0 85.26243727 0 2676.84524816 0 270.69176824 0 688.34318209 0 24591
0.15150000 0.15149900 10173.77244264 0 159.91869459 0 2717.32566769 0 -158.71070395 0 734.93884663 0 25020
0.15250000 0.15250500 10188.70900882 0 198.57439500 0 2901.22591061 0 -104.13233611 0 858.77726356 0 25297
0.15350000 0.15350100 10007.89794453 0 30.82324855 0 2908.53364499 0 -293.04568481 0 699.89936751 0 25452
0.15450000 0.15450400 9960.50839431 0 61.89429574 0 2995.10815274 0 -120.14579661 0 760.42180220 0 26061
0.15550000 0.15549900 9947.84165471 0 163.58695580 0 3287.65004678 0 2.74393246 0 528.39459223 0 26128
0.15650000 0.15649500 9843.30783610 0 211.91876087 0 3108.15658914 0 134.21761422 0 378.43213212 0 26331
0.15750000 0.15749700 9509.89799116 0 316.79582155 0 3228.63455549 0 -51.03312015 0 767.19917222 0 27345
0.15850000 0.15849900 9443.02114926 0 332.07784426 0 3343.53207014 0 124.01114520 0 538.21020818 0 26980
0.15950000 0.15949700 8974.18569946 0 207.75003057 0 3242.76284196 0 -25.96836629 0 823.04022798 0 27777
0.16050000 0.16050000 9046.33296798 0 139.61537257 0 3240.70338955 0 383.73688294 0 849.65477514 0 28224
0.16150000 0.16150500 8932.93021719 0 -89.10121228 0 3235.56583083 0 52.35548790 0 836.76437459 0 28075
0.16250000 0.16249700 8934.75715078 0 -14.72353465 0 3004.77429231 0 254.59482241 0 601.72881397 0 28590
0.16350000 0.16349900 8985.08086708 0 -7.31087892 0 2899.62042351 0 196.68545638 0 514.66048052 0 29163
0.16450000 0.16449100 8934.75715078 0 41.64921414 0 2518.25633978 0 -74.31954792 0 280.34683548 0 28996
0.16550000 0.16550500 8978.95787146 0 213.67593882 0 2915.09953360 0 -68.19533434 0 323.94743615 0 30777
0.16650000 0.16650700 8782.57911848 0 187.31162619 0 2886.47757395 0 -28.39276253 0 313.37004425 0 29211
0.16750000 0.16749900 8523.73030886 0 188.53511808 0 2767.07362310 0 125.53026817 0 220.08238596 0 30922
0.16850000 0.16850800 8534.73619973 0 56.42811042 0 2718.93115479 0 144.19599335 0 290.07608730 0 30867
0.16950000 0.16949900 8562.14020366 0 -80.39471111 0 2881.07427944 0 78.15256533 0 -119.42055933 0 30852
0.17050000 0.17049200 8486.22834470 0 168.66361673 0 2675.42799058 0 -1.74996987 0 295.19593029 0 31257
0.17150000 0.17149500 8326.70936104 0 273.65361513 0 2604.95264311 0 -0.91083269 0 240.92382296 0 32608
0.17250000 0.17250900 8196.03378353 0 104.54555528 0 2579.20948791 0 239.67597195 0 468.29179865 0 32361
0.17350000 0.17350400 8066.27720898 0 -21.30868911 0 2325.56467096 0 391.71117127 0 358.74553859 0 32508
0.17450000 0.17449800 8192.23597612 0 -15.31590403 0 2223.42247451 0 519.77478736 0 178.47480375 0 32791
0.17550000 0.17549800 8161.20024965 0 7.28668589 0 2140.70113579 0 236.87578101 0 422.72586032 0 33633
0.17650000 0.17650100 8162.93860465 0 189.11752237 0 2138.49774315 0 -90.88662466 0 434.49906330 0 33984
0.17750000 0.17750300 7976.98998164 0 127.53768066 0 2214.68641023 0 -35.29513910 0 913.58970034 0 34069
0.17850000 0.17849800 7831.20068076 0 154.91953993 0 2297.70670172 0 131.77505936 0 950.00104051 0 34536
