### header ###
fiducial parameters:
Omega_m = 0.31
Omega_nu = 0
Omega_de = 0.69
Omega_k = 0
H_0 = 100
w_de = -1
zeff = 0
beta = 0
fgrowth = 0
b_1 = 2
gamma = 0.55
Lx = 3500 Ly = 3500 Lz = 3500
nx = 700 ny = 700 nz = 700
xoffset = -685.467585 yoffset = -31.7331281 zoffset = 572.489161
bins = 400 dk = 0.001
kx_ny = 0.628318531 ky_ny = 0.628318531 kz_ny = 0.628318531
############################
A(data) = 8.00003138 (not used)
A(ran) = 7.99328415 (used)
Ngal = 475121
weighted Ngal = 0
Nran = 23820508
weighted Nran = 0
SN(data) = 3492.91523
SN(ran) = 69.6244038
SN(data+ran) = 3562.53964
############################
13 columns: k_central k_mean P_0(k) sigma^{lin}_{P_0(k)} P^img_1(k) sigma^{lin}_{P_1(k)} P_2(k) sigma^{lin}_{P_2(k)} P^img_3(k) sigma^{lin}_{P_3(k)} P_4(k) sigma^{lin}_{P_4(k)} N_modes
### header ###
0.00050000 0 0 0 0 0 0 0 0 0 0 0 0
0.00150000 0.00179520 9161.92803909 0 -6312.16629424 0 -1699.18111132 0 10704.30288632 0 -7163.39555397 0 3
0.00250000 0.00253879 14990.93129521 0 -4191.33998150 0 2156.32418611 0 -16220.84513607 0 -18673.80797639 0 6
0.00350000 0.00331552 18058.07599323 0 -1214.16899496 0 -2223.92072912 0 5806.85860649 0 36772.18723196 0 7
0.00450000 0.00420575 17598.79595975 0 -120.50564716 0 2702.45553546 0 -2708.95499013 0 15053.37920719 0 24
0.00550000 0.00557378 21863.08041715 0 -2596.03942163 0 5058.57982292 0 8795.72196803 0 629.06970564 0 45
0.00650000 0.00659388 29361.25878434 0 -11357.43718273 0 1837.12013391 0 18859.71231010 0 14342.20378409 0 40
0.00750000 0.00754703 34614.30184805 0 -12588.67970256 0 -9089.28251595 0 4801.21470484 0 -15526.16747695 0 57
0.00850000 0.00846663 45744.97781849 0 -10105.62228338 0 -4026.51735425 0 -4533.58554164 0 10432.68768620 0 75
0.00950000 0.00948925 57147.25791673 0 -6377.62587857 0 4846.54480264 0 -9803.59140698 0 -6395.38588757 0 112
0.01050000 0.01054430 51632.13292457 0 -3503.00676450 0 7331.66167424 0 -18531.63932572 0 8032.07479762 0 105
0.01150000 0.01145670 61579.62026489 0 -4283.90461698 0 12829.50276737 0 -7955.52074382 0 9784.23698319 0 144
0.01250000 0.01249090 62858.91667443 0 -3887.75897962 0 18894.14724028 0 13704.99149078 0 14135.70492622 0 169
0.01350000 0.01339930 73493.44176975 0 -5562.00521545 0 10664.14356421 0 15952.23053597 0 -8282.30933852 0 180
0.01450000 0.01448870 66694.14854512 0 -109.94962485 0 18360.12901428 0 7452.00677269 0 11945.59907709 0 267
0.01550000 0.01550050 74680.39499031 0 4677.47040266 0 15738.86683671 0 -1053.31579616 0 13373.70753220 0 238
0.01650000 0.01653350 65864.60996970 0 2187.94674579 0 18271.66113898 0 -6694.61546580 0 19271.49207010 0 315
0.01750000 0.01747870 68478.12151990 0 11344.92545568 0 25593.56809505 0 -6081.37475572 0 20738.57510857 0 297
0.01850000 0.01844180 67151.54628337 0 4363.75822358 0 23883.00463382 0 -7074.24119453 0 15233.19376225 0 388
0.01950000 0.01947590 68440.58633876 0 -868.02929818 0 35798.81915715 0 -8626.02751786 0 18765.92971888 0 399
0.02050000 0.02045430 68251.91392385 0 1846.75305650 0 37600.72929814 0 -160.96060035 0 -796.50429432 0 462
0.02150000 0.02154770 70103.20663353 0 1410.74704979 0 37562.30833102 0 829.54078988 0 -7944.22697251 0 571
0.02250000 0.02255340 67507.07863330 0 4476.15339281 0 34796.22014482 0 -37.12672307 0 841.66609279 0 510
0.02350000 0.02348930 62864.67428334 0 3352.31242372 0 39567.50635567 0 13110.40764801 0 -6091.11840156 0 555
0.02450000 0.02439640 64714.74903729 0 -110.98787675 0 37388.58355461 0 20705.57958061 0 11813.06334901 0 592
0.02550000 0.02547300 62011.44093281 0 -2022.71444252 0 27615.15316044 0 10342.01641826 0 -5257.08446227 0 837
0.02650000 0.02652900 61454.94588743 0 786.76839910 0 23374.56347815 0 11646.31413724 0 5108.58244180 0 723
0.02750000 0.02749970 62446.36185169 0 1642.72332707 0 27936.58274993 0 779.39865970 0 -3649.46040488 0 826
0.02850000 0.02848090 59534.34042439 0 1538.90920957 0 21972.47498636 0 1719.62062293 0 7088.56878285 0 831
0.02950000 0.02946900 57668.87513894 0 5516.70833462 0 24781.08089986 0 -311.94946498 0 4730.38504297 0 996
0.03050000 0.03053250 52073.47579184 0 4830.09132796 0 22461.65029685 0 336.11813559 0 7086.31002858 0 1041
0.03150000 0.03150510 51749.49956764 0 3206.46776121 0 27644.71626771 0 9202.72955604 0 6314.44719315 0 1036
0.03250000 0.03246190 46172.03738675 0 2650.89171878 0 20821.72826796 0 7390.56644227 0 8466.82963162 0 1059
0.03350000 0.03345080 46461.91085050 0 72.41001479 0 21385.75249422 0 10425.92249573 0 11141.74829526 0 1302
0.03450000 0.03451200 46202.26483350 0 -1524.00586036 0 15379.90206609 0 3297.19439077 0 7052.53943789 0 1339
0.03550000 0.03553350 47509.46350159 0 -1072.81305293 0 16191.94636829 0 2715.91948244 0 3894.11449407 0 1365
0.03650000 0.03647120 46617.91990719 0 -606.79440257 0 12016.24050944 0 -4642.86938760 0 -1062.11275823 0 1308
0.03750000 0.03744890 47864.99585152 0 623.86792744 0 13016.73578005 0 -3012.27025621 0 1369.33655497 0 1579
0.03850000 0.03847530 46503.65351507 0 1664.83475973 0 13789.58405239 0 -3158.20349732 0 -3901.77654284 0 1662
0.03950000 0.03950240 44354.40454452 0 3341.33974982 0 15411.23674533 0 149.67347243 0 -2348.29615381 0 1683
0.04050000 0.04050350 42962.83476131 0 1463.99385985 0 13660.03785201 0 4754.46734945 0 715.71729074 0 1822
0.04150000 0.04152450 42661.22463325 0 -825.94560601 0 13108.30390630 0 4023.41710330 0 330.03167864 0 1887
0.04250000 0.04250150 43175.53412108 0 -1094.16935304 0 14750.10823041 0 4948.44340795 0 7341.10636731 0 1920
0.04350000 0.04349210 45278.05788089 0 -653.70562836 0 14632.18797109 0 1236.92262247 0 -1278.96423980 0 2005
0.04450000 0.04448520 44327.05590222 0 1112.81293357 0 14896.70581101 0 2411.74057502 0 8251.31790135 0 2151
0.04550000 0.04548030 45201.10522340 0 1843.51993765 0 15217.13889126 0 -2847.93481125 0 1735.75300020 0 2274
0.04650000 0.04648670 41297.44638534 0 2166.72109911 0 16880.20207902 0 -1047.09093515 0 5461.88925444 0 2311
0.04750000 0.04749250 42732.64112833 0 1641.39464809 0 15373.36939445 0 -161.40460058 0 1985.55572043 0 2568
0.04850000 0.04851840 39706.02113915 0 687.71759574 0 14314.85514179 0 3731.27381296 0 411.10434819 0 2493
0.04950000 0.04949480 40159.54356373 0 -253.20192395 0 12893.05791182 0 1743.01644528 0 1443.31075709 0 2644
0.05050000 0.05050630 38773.95283592 0 432.16723169 0 11713.41242565 0 2402.60590705 0 -408.92642190 0 2829
0.05150000 0.05149060 39629.73282115 0 812.23142449 0 12128.07099010 0 1419.26166758 0 -1298.80584588 0 2784
0.05250000 0.05249300 37701.93034698 0 2495.84595435 0 13007.65647370 0 -1270.38318807 0 -2925.30821709 0 3055
0.05350000 0.05348950 34791.90193814 0 3554.17197749 0 12757.31120955 0 -2713.45035401 0 -550.33108216 0 3009
0.05450000 0.05448610 34100.10308347 0 103.68888951 0 13412.34994582 0 -291.49002318 0 1059.48308108 0 3336
0.05550000 0.05550870 33656.98864423 0 -1564.82952197 0 13030.35473958 0 3599.44671367 0 -1729.45284737 0 3349
0.05650000 0.05647670 35498.64843132 0 -1049.41390889 0 12931.14670920 0 3307.11519381 0 -943.22034879 0 3324
0.05750000 0.05747970 35303.77551451 0 -213.00274147 0 11292.44263604 0 3987.52062624 0 434.57103341 0 3639
0.05850000 0.05849280 35167.58591924 0 1164.22173771 0 10405.63799667 0 1330.60556276 0 2502.83259131 0 3846
0.05950000 0.05951020 33739.25601763 0 1872.65122425 0 10620.00927748 0 1489.42698995 0 4059.64575011 0 3787
0.06050000 0.06049470 32054.82324297 0 1274.41351430 0 10541.83866426 0 -450.94589459 0 3146.61077324 0 3930
0.06150000 0.06148310 32684.06346242 0 -26.84263706 0 13751.93814801 0 169.05779149 0 4473.92785552 0 4083
0.06250000 0.06249100 32239.39889770 0 -717.91293275 0 12891.95067934 0 -2103.78600484 0 2766.15462014 0 4303
0.06350000 0.06350600 32936.73391478 0 1664.43615604 0 14163.82863126 0 -3232.59844778 0 -1724.38172261 0 4470
0.06450000 0.06451750 31814.55379441 0 1640.59744070 0 14484.37243476 0 -2744.27570630 0 1342.82940936 0 4479
0.06550000 0.06550280 30166.77041490 0 1242.39235093 0 13261.43415854 0 -769.05600109 0 -948.89491526 0 4636
0.06650000 0.06648880 30210.72754443 0 170.39865003 0 14279.42370237 0 3673.73094088 0 499.55340054 0 4653
0.06750000 0.06749660 30111.40879081 0 -920.15669619 0 12248.42716088 0 3963.78156183 0 -374.77051430 0 5220
0.06850000 0.06852730 29745.91134854 0 100.46064248 0 10987.30043636 0 5435.49283207 0 71.01866645 0 5029
0.06950000 0.06949320 29675.26991620 0 520.18224891 0 10001.30991126 0 2676.97811605 0 3277.59637584 0 5040
0.07050000 0.07048030 29024.88155635 0 227.23953672 0 8306.31413873 0 1863.30618211 0 2901.58022500 0 5475
0.07150000 0.07148790 28467.16855524 0 538.30543017 0 8420.35908436 0 110.81957741 0 3807.00851472 0 5509
0.07250000 0.07249820 28143.41377754 0 543.58582188 0 8830.92088863 0 -311.44456696 0 3146.19002489 0 5916
0.07350000 0.07351270 28208.62977072 0 488.98818820 0 8776.56684610 0 -1376.47820448 0 2945.92488590 0 5721
0.07450000 0.07449140 27455.26879006 0 1020.48081691 0 8564.62040442 0 -162.90490059 0 3168.89936310 0 6028
0.07550000 0.07549160 26209.96441771 0 413.07079308 0 8103.51343735 0 399.00894056 0 2300.79588034 0 6183
0.07650000 0.07648840 26294.99987231 0 171.33979764 0 8043.43500288 0 692.32368287 0 1668.34468670 0 6330
0.07750000 0.07749960 26552.65287084 0 103.26160849 0 9102.30356994 0 1842.37948820 0 1151.89824018 0 6583
0.07850000 0.07848650 25605.52620586 0 677.69049839 0 6887.78324458 0 184.07297118 0 446.47267536 0 6549
0.07950000 0.07947320 25173.59481468 0 1169.66932152 0 8449.74503443 0 670.30857943 0 232.29516023 0 6828
0.08050000 0.08048110 24503.60843991 0 796.25073808 0 7598.06180938 0 -519.90211909 0 2832.78787090 0 7147
0.08150000 0.08149960 23886.76922426 0 150.64340809 0 8341.54627630 0 512.57888346 0 2803.35763153 0 7386
0.08250000 0.08250610 24487.11067593 0 -455.12901890 0 8342.38777298 0 401.70615889 0 1389.51033079 0 7227
0.08350000 0.08350160 24185.72199436 0 -126.34297681 0 8228.09923621 0 750.35927340 0 1220.87882380 0 7798
0.08450000 0.08449610 24955.47001575 0 1000.45873194 0 7668.11640850 0 -766.45621922 0 592.69268968 0 7371
0.08550000 0.08548940 23971.47250912 0 509.38673221 0 9006.42830933 0 -626.09235750 0 2328.18881194 0 8256
0.08650000 0.08650700 23089.45111407 0 1067.89583348 0 9571.54869575 0 -658.87751129 0 330.37159901 0 8037
0.08750000 0.08749060 22221.60229478 0 989.22142948 0 8905.90267231 0 254.63357555 0 1705.99059108 0 8155
0.08850000 0.08849210 21765.75468200 0 615.75966398 0 8828.00886721 0 1153.75839075 0 328.49041102 0 8718
0.08950000 0.08949900 21559.80944037 0 -213.15000339 0 7611.49253938 0 1490.64494568 0 1293.87866133 0 8571
0.09050000 0.09049190 21299.72053038 0 -267.31249470 0 6676.05824940 0 976.56354775 0 282.80489159 0 8932
0.09150000 0.09150830 21520.50268727 0 152.40612220 0 6570.73829573 0 1946.08288245 0 1975.42454322 0 9285
0.09250000 0.09250820 20823.05694694 0 432.27906217 0 6292.86723208 0 663.21011199 0 1347.15868836 0 9204
0.09350000 0.09350330 20458.00239767 0 715.14706601 0 5635.84654967 0 541.11669344 0 807.83571154 0 9349
0.09450000 0.09448040 20201.45663162 0 539.97070783 0 6152.03833271 0 145.72175971 0 1796.86116087 0 9564
0.09550000 0.09549270 19070.30792815 0 575.35453625 0 5989.36373648 0 -226.65713243 0 1643.23265401 0 10155
0.09650000 0.09649430 19361.73151737 0 535.27714934 0 5853.10770726 0 -5.77897849 0 1307.59727178 0 9913
0.09750000 0.09749140 18401.20733936 0 420.98529086 0 5800.18199462 0 146.09046812 0 1729.17603925 0 10476
0.09850000 0.09850240 18078.67051739 0 560.15998490 0 5612.93790962 0 246.34372596 0 1024.34395104 0 10575
0.09950000 0.09950330 17663.01544370 0 333.47738612 0 4888.80786648 0 660.18958178 0 327.18609116 0 10882
0.10050000 0.10051200 16921.94474359 0 470.27263756 0 4844.82859230 0 779.23589653 0 489.10001868 0 10875
0.10150000 0.10150300 16979.18866290 0 257.54116805 0 4529.59950471 0 303.79248328 0 814.33848790 0 11118
0.10250000 0.10250800 16925.70933402 0 -344.55081817 0 4082.75369200 0 360.53593351 0 618.13910658 0 11575
0.10350000 0.10349800 16854.73573194 0 240.73116451 0 4302.76078615 0 -19.11769748 0 801.02401731 0 11364
0.10450000 0.10450100 16830.48734058 0 49.45597820 0 4074.21692957 0 -260.11105464 0 524.42516378 0 12093
0.10550000 0.10551000 16404.97789780 0 534.23967250 0 4409.64193762 0 365.74435511 0 38.84404065 0 12067
0.10650000 0.10649700 16102.92487675 0 583.64106414 0 3818.24692441 0 -244.73048823 0 393.27790523 0 12054
0.10750000 0.10749900 15750.93567077 0 239.54974745 0 4058.69353017 0 490.47077249 0 -23.76907041 0 12807
0.10850000 0.10850100 15664.79298368 0 259.47661043 0 3670.35388181 0 -102.53194229 0 40.20981192 0 12736
0.10950000 0.10950300 15350.56040532 0 168.74776640 0 3709.29524820 0 160.75354788 0 722.54559346 0 12933
0.11050000 0.11050200 15316.67909138 0 148.39572615 0 3883.62900247 0 254.01795429 0 618.61189485 0 13428
0.11150000 0.11150900 15178.16430790 0 81.46773010 0 4112.59360739 0 -263.65087688 0 368.45043129 0 13453
0.11250000 0.11250000 14989.27044649 0 387.73952836 0 4458.14979265 0 472.17154126 0 917.27678451 0 13668
0.11350000 0.11349100 14738.59301260 0 386.67215625 0 4568.37478622 0 146.34956052 0 641.53271446 0 13791
0.11450000 0.11448600 14537.29814739 0 0.71091190 0 4159.80600042 0 235.32344107 0 1247.67384986 0 14205
0.11550000 0.11549300 14522.90412513 0 145.94652790 0 4381.29678609 0 106.60633637 0 574.67469550 0 14776
0.11650000 0.11649800 14243.54936995 0 448.65503058 0 4481.10272200 0 -62.38247454 0 1432.78097618 0 14553
0.11750000 0.11747300 14123.63609217 0 262.75069688 0 4622.90598596 0 -285.01824932 0 1069.90878213 0 14568
0.11850000 0.11849100 13956.88688040 0 83.94660218 0 4598.56901601 0 -70.06478567 0 1290.21372182 0 16015
0.11950000 0.11950300 14170.13985641 0 -145.26336546 0 4749.18585051 0 372.20505664 0 914.10456345 0 15270
0.12050000 0.12050700 14191.28799681 0 -26.88260815 0 4620.41471287 0 326.53946739 0 1006.77881495 0 15999
0.12150000 0.12150000 14189.95931783 0 212.74032737 0 4636.98998313 0 415.68164727 0 885.66861885 0 15670
0.12250000 0.12250700 13835.86637013 0 229.59129851 0 4112.54931809 0 142.65694020 0 740.65327347 0 16887
0.12350000 0.12352200 13716.72815508 0 336.62746253 0 4097.03699102 0 272.97488161 0 1163.63490449 0 16407
0.12450000 0.12449800 13319.56386384 0 222.55594332 0 3735.35950082 0 71.75021495 0 107.74900029 0 16306
0.12550000 0.12549900 13174.62713196 0 365.39557688 0 3943.96210040 0 -193.11795332 0 277.17793612 0 17523
0.12650000 0.12650100 12900.91926245 0 266.86074385 0 3741.13925437 0 -215.77414437 0 112.40845602 0 17154
0.12750000 0.12750600 12642.04830819 0 158.47264897 0 3799.66756337 0 600.08457373 0 424.23280373 0 18007
0.12850000 0.12850300 12673.16154093 0 -136.88715173 0 3445.15386732 0 604.94975326 0 323.36392463 0 17496
0.12950000 0.12949900 12733.72715768 0 -27.65501353 0 3128.04248452 0 729.56876909 0 197.95766650 0 18405
0.13050000 0.13049000 12768.93715061 0 -16.71090623 0 3029.38807038 0 353.34224408 0 78.45030014 0 18100
0.13150000 0.13148800 12497.66519255 0 170.75517889 0 2882.66869421 0 132.12273036 0 133.71382344 0 19059
0.13250000 0.13249300 12624.88620472 0 200.08023117 0 2997.54406420 0 -339.25492521 0 37.78995533 0 18957
0.13350000 0.13349100 12283.63715381 0 241.00354370 0 3077.47517707 0 -261.31350911 0 203.57465688 0 19468
0.13450000 0.13450700 12167.82063620 0 221.82516988 0 3134.07690154 0 -405.85163730 0 -41.60093881 0 19953
0.13550000 0.13551000 11998.41406648 0 274.33899203 0 3248.88583759 0 26.35279741 0 24.15638033 0 19956
0.13650000 0.13649900 11712.30519316 0 238.36833039 0 3226.91834515 0 220.81869556 0 -438.46517005 0 19723
0.13750000 0.13749600 11757.59100167 0 121.92954814 0 3289.93094569 0 163.74529005 0 -185.97741105 0 20946
0.13850000 0.13851100 11467.82826117 0 234.54505663 0 3480.64066837 0 27.96979972 0 -176.07653820 0 20955
0.13950000 0.13949800 11396.41176609 0 178.83022538 0 3344.06354173 0 189.62463484 0 602.92905398 0 20506
0.14050000 0.14048300 11130.34380070 0 113.75706519 0 3303.12915687 0 481.83325190 0 462.14001498 0 21447
0.14150000 0.14148400 11142.52335800 0 188.83185639 0 3071.47397702 0 684.05819239 0 784.62922595 0 21771
0.14250000 0.14249400 11003.65426012 0 163.75857684 0 3057.13531638 0 48.40510386 0 597.94872227 0 22470
0.14350000 0.14350900 10860.85448693 0 216.45841404 0 3024.37230724 0 -50.55390993 0 834.32957036 0 22519
0.14450000 0.14449900 10686.36572012 0 174.58509604 0 3023.56402753 0 -308.04204155 0 1168.69495693 0 22218
0.14550000 0.14550500 10663.26885055 0 53.58374090 0 3262.95876243 0 -47.22147233 0 943.82489773 0 23559
0.14650000 0.14650700 10631.90095434 0 -99.44519957 0 3313.90252892 0 137.10527653 0 1055.75835102 0 23044
0.14750000 0.14750500 10626.19870705 0 139.77813574 0 3234.17071790 0 364.86631975 0 744.17537999 0 23649
0.14850000 0.14849900 10651.67612646 0 139.77813574 0 3439.80593443 0 303.99399959 0 1100.06758047 0 23640
0.14950000 0.14949500 10460.72281264 0 30.92921070 0 3052.69531412 0 112.31434126 0 842.41015301 0 24457
0.15050000 0.15050000 10474.80680981 0 181.70127920 0 3018.70327693 0 62.11751380 0 898.66088479 0 24591
0.15150000 0.15149900 10286.45549232 0 128.65598546 0 2679.61332936 0 67.05632429 0 780.06299919 0 25020
0.15250000 0.15250500 10223.47610875 0 9.56166111 0 2636.79664929 0 249.59898946 0 911.76830291 0 25297
0.15350000 0.15350100 10009.85774602 0 137.12963565 0 2145.60617568 0 280.35680057 0 406.29010136 0 25452
0.15450000 0.15450400 10001.68637031 0 223.52145004 0 1935.25414878 0 325.33258398 0 559.28748570 0 26061
0.15550000 0.15549900 9741.09920570 0 175.97578004 0 1787.98115636 0 44.06563831 0 227.65807060 0 26128
0.15650000 0.15649500 9461.93268005 0 283.81579484 0 2007.09139220 0 20.78851129 0 272.20092611 0 26331
0.15750000 0.15749700 9386.64087128 0 262.67872677 0 2132.41903682 0 -158.36856911 0 143.28363378 0 27345
0.15850000 0.15849900 8997.62581110 0 240.53629159 0 2400.54645463 0 -245.08148093 0 696.37393928 0 26980
0.15950000 0.15949700 9045.22573550 0 116.82299193 0 2501.51498465 0 30.11616989 0 548.69902148 0 27777
0.16050000 0.16050000 8984.26151505 0 -3.66878161 0 2531.72028676 0 201.17196240 0 554.80319415 0 28224
0.16150000 0.16150500 9094.06576027 0 -39.09017843 0 2427.34148069 0 195.35124124 0 500.70935125 0 28075
0.16250000 0.16249700 9040.20997236 0 112.84027669 0 2351.55141731 0 105.47042657 0 500.97730151 0 28590
0.16350000 0.16349900 8967.94090826 0 114.58638232 0 2327.48018315 0 -220.14106928 0 93.67330737 0 29163
0.16450000 0.16449100 8883.99054149 0 83.60668181 0 2213.45738217 0 -155.96144570 0 48.42027294 0 28996
0.16550000 0.16550500 8668.68918539 0 208.35568674 0 2107.32914878 0 -114.69046217 0 -317.17560229 0 30777
0.16650000 0.16650700 8529.31076057 0 216.22146629 0 2130.48137998 0 115.94606380 0 132.68852616 0 29211
0.16750000 0.16749900 8453.45426324 0 4.87493424 0 2035.48083304 0 515.12994710 0 -117.75638891 0 30922
0.16850000 0.16850800 8455.09296731 0 7.77527437 0 1962.77994828 0 412.62900732 0 -358.82636656 0 30867
0.16950000 0.16949900 8366.04933112 0 137.26028908 0 1830.13349695 0 238.55655992 0 -184.33981421 0 30852
0.17050000 0.17049200 8367.97591564 0 156.49402452 0 1761.23041960 0 -199.03168201 0 -30.55718059 0 31257
0.17150000 0.17149500 8195.73483076 0 160.35383695 0 2082.42749027 0 -284.71376039 0 321.02766409 0 32608
0.17250000 0.17250900 8218.42202432 0 184.61994403 0 2254.14817588 0 -147.67602504 0 204.24231807 0 32361
0.17350000 0.17350400 8009.42082104 0 144.71196368 0 2047.97041543 0 63.93160350 0 488.00607299 0 32508
0.17450000 0.17449800 7993.21093750 0 104.30938259 0 2155.70413592 0 127.79012966 0 265.59960605 0 32791
0.17550000 0.17549800 7813.67319057 0 193.94616322 0 2346.08168885 0 122.96148881 0 63.39791745 0 33633
0.17650000 0.17650100 7671.74813104 0 60.90254760 0 2279.70310156 0 82.83505150 0 234.60816888 0 33984
0.17750000 0.17750300 7673.19860560 0 -31.24288966 0 2013.92301661 0 219.19992167 0 177.33767599 0 34069
0.17850000 0.17849800 7692.77447587 0 -83.15736687 0 1845.16971405 0 237.74828020 0 195.20619379 0 34536
