### header ###
fiducial parameters:
Omega_m = 0.31
Omega_nu = 0
Omega_de = 0.69
Omega_k = 0
H_0 = 100
w_de = -1
zeff = 0
beta = 0
fgrowth = 0
b_1 = 2
gamma = 0.55
Lx = 3500 Ly = 3500 Lz = 3500
nx = 700 ny = 700 nz = 700
xoffset = -685.467585 yoffset = -31.7331281 zoffset = 572.489161
bins = 400 dk = 0.001
kx_ny = 0.628318531 ky_ny = 0.628318531 kz_ny = 0.628318531
############################
A(data) = 8.03780222 (not used)
A(ran) = 8.03099596 (used)
Ngal = 477723
weighted Ngal = 0
Nran = 23820508
weighted Nran = 0
SN(data) = 3491.33184
SN(ran) = 69.9528874
SN(data+ran) = 3561.28473
############################
13 columns: k_central k_mean P_0(k) sigma^{lin}_{P_0(k)} P^img_1(k) sigma^{lin}_{P_1(k)} P_2(k) sigma^{lin}_{P_2(k)} P^img_3(k) sigma^{lin}_{P_3(k)} P_4(k) sigma^{lin}_{P_4(k)} N_modes
### header ###
0.00050000 0 0 0 0 0 0 0 0 0 0 0 0
0.00150000 0.00179520 74629.46229614 0 -71204.34933674 0 28978.82068511 0 124259.16527726 0 -168290.47938357 0 3
0.00250000 0.00253879 123444.24217061 0 -52276.43150576 0 67355.83067628 0 -36933.84317431 0 102772.76535043 0 6
0.00350000 0.00331552 129156.45454455 0 5060.45104581 0 44670.40869484 0 -100796.57681680 0 15568.90665075 0 7
0.00450000 0.00420575 107354.27191389 0 59099.30878226 0 37717.09943198 0 -24740.77763752 0 85791.47294582 0 24
0.00550000 0.00557378 68517.98188924 0 23399.80837873 0 36431.93469028 0 31416.06082419 0 46189.53165996 0 45
0.00650000 0.00659388 64979.70977020 0 -12814.44440561 0 48534.76077980 0 88578.04493293 0 4115.04059117 0 40
0.00750000 0.00754703 88162.05768949 0 -16621.10967826 0 27757.21108786 0 78259.85615768 0 -21954.75926665 0 57
0.00850000 0.00846663 81775.54073410 0 -14660.20095288 0 6840.61514086 0 40779.37230707 0 -14597.31014791 0 75
0.00950000 0.00948925 97114.03230537 0 -3924.26443455 0 -12097.62209685 0 26415.02387335 0 16642.70071166 0 112
0.01050000 0.01054430 94725.17822575 0 136.73435365 0 -31095.18485094 0 1261.33709869 0 21643.18404626 0 105
0.01150000 0.01145670 84924.50991252 0 8827.03450262 0 -6823.49732669 0 -1425.26286763 0 43963.33003192 0 144
0.01250000 0.01249090 82818.22156227 0 6048.00276871 0 -16791.29131073 0 732.06557834 0 40861.97185022 0 169
0.01350000 0.01339930 76763.09928870 0 3777.87722812 0 -10828.82225123 0 -11254.46456191 0 33455.02943954 0 180
0.01450000 0.01448870 79110.09998051 0 613.04251547 0 -3491.01543672 0 -6234.91468398 0 16180.43115048 0 267
0.01550000 0.01550050 76139.06306192 0 2566.45416971 0 15841.95018077 0 -14618.67973481 0 24292.23775912 0 238
0.01650000 0.01653350 82046.70196891 0 -1949.12777178 0 8775.81392801 0 -8658.04868124 0 13640.99345332 0 315
0.01750000 0.01747870 80753.01153710 0 -8175.60534424 0 28817.27546600 0 -3188.68560755 0 13035.00511600 0 297
0.01850000 0.01844180 91388.53314165 0 -3637.04832875 0 30213.93851863 0 -1282.96134906 0 -8049.34762433 0 388
0.01950000 0.01947590 91561.92574831 0 4095.18791277 0 33864.26256484 0 -5335.57617291 0 -16575.71314651 0 399
0.02050000 0.02045430 82430.80091687 0 13640.77200683 0 34990.53944539 0 -8605.42192138 0 -13412.01777607 0 462
0.02150000 0.02154770 71744.56806465 0 9838.75711060 0 33381.73064924 0 -6971.57859881 0 -3345.06005096 0 571
0.02250000 0.02255340 68443.79731296 0 2131.65504641 0 33030.73795249 0 16442.51307894 0 7863.14433786 0 510
0.02350000 0.02348930 67412.85314909 0 -4700.32368109 0 27762.41508053 0 13768.10374224 0 -12050.12182338 0 555
0.02450000 0.02439640 73721.42093777 0 -4421.52254215 0 26517.77504767 0 15810.94767128 0 -11228.11242884 0 592
0.02550000 0.02547300 70804.85985729 0 3959.02046216 0 17797.10129725 0 6079.24886935 0 -8114.81828099 0 837
0.02650000 0.02652900 67288.73238788 0 4149.96270365 0 9113.12123129 0 13956.00109441 0 6502.58813647 0 723
0.02750000 0.02749970 62406.50148234 0 -3412.83375118 0 2084.27656851 0 9815.53844546 0 4248.49532221 0 826
0.02850000 0.02848090 66527.17788685 0 91.53590578 0 5714.46005588 0 10889.76432704 0 7745.01370437 0 831
0.02950000 0.02946900 62397.53289924 0 2019.39274507 0 1955.02932090 0 544.20697930 0 10261.03343453 0 996
0.03050000 0.03053250 61373.01068377 0 3542.13636041 0 542.97020062 0 -646.25284653 0 13484.20933389 0 1041
0.03150000 0.03150510 60262.89939745 0 3695.82022889 0 3514.49983766 0 -7836.13893763 0 11547.10610687 0 1036
0.03250000 0.03246190 54048.00347675 0 3570.74724774 0 12107.69791244 0 -4403.64073757 0 7489.86305125 0 1059
0.03350000 0.03345080 55611.30501789 0 2093.06799442 0 11120.93232460 0 -9910.59435402 0 6261.63220377 0 1302
0.03450000 0.03451200 53128.66834706 0 3441.27855364 0 17418.87068145 0 -9717.72552801 0 -137.79840407 0 1339
0.03550000 0.03553350 52865.47918612 0 1427.46626027 0 21399.81434674 0 -8643.21176598 0 -1986.81796546 0 1365
0.03650000 0.03647120 51171.63493536 0 -294.73421435 0 25005.18475419 0 -2812.20441906 0 -670.44587626 0 1308
0.03750000 0.03744890 52319.83501905 0 1084.82541813 0 26045.42967090 0 4255.13871711 0 -3404.08661457 0 1579
0.03850000 0.03847530 51524.73137383 0 1693.56744264 0 24123.82769863 0 7049.93744155 0 -3135.11770007 0 1662
0.03950000 0.03950240 48756.20727617 0 1984.09417355 0 23556.59249817 0 11206.41067220 0 -4293.68147980 0 1683
0.04050000 0.04050350 47454.87694024 0 1185.14843161 0 15373.70156419 0 9498.72601542 0 1116.94291073 0 1822
0.04150000 0.04152450 46097.74208721 0 -371.42999390 0 17077.73235378 0 4738.02494710 0 2425.47025780 0 1887
0.04250000 0.04250150 47211.28579423 0 -1417.98835022 0 13321.00326607 0 501.08138137 0 7044.84417214 0 1920
0.04350000 0.04349210 46706.05561275 0 -17.09888049 0 13711.30271592 0 1011.57313159 0 4686.87080643 0 2005
0.04450000 0.04448520 48117.44485738 0 1057.74029716 0 13552.63630127 0 -3977.04620696 0 7486.53028148 0 2151
0.04550000 0.04548030 46605.07601041 0 1537.56945827 0 15303.83519459 0 760.62221128 0 1199.61996015 0 2274
0.04650000 0.04648670 45515.78069475 0 1341.84397245 0 15083.82810044 0 402.44025402 0 2978.00141090 0 2311
0.04750000 0.04749250 44693.43913047 0 3070.58819103 0 14958.48938349 0 -151.12948315 0 -2909.15369518 0 2568
0.04850000 0.04851840 41294.23541114 0 1602.68580052 0 13825.90127780 0 874.53207455 0 1660.26188958 0 2493
0.04950000 0.04949480 39637.48344853 0 1564.55271385 0 14271.56235175 0 1258.60223446 0 -3508.86402433 0 2644
0.05050000 0.05050630 38232.29470579 0 2033.41030829 0 12839.91075270 0 629.20589524 0 -1725.17892999 0 2829
0.05150000 0.05149060 37007.25268786 0 2946.79959956 0 13622.39194763 0 -699.08555163 0 -2092.72475235 0 2784
0.05250000 0.05249300 34381.89375011 0 1276.15186930 0 11281.25958797 0 2644.72443386 0 -6.92666925 0 3055
0.05350000 0.05348950 33605.72378032 0 -439.50264689 0 10374.86800599 0 3485.53463594 0 1436.31304780 0 3009
0.05450000 0.05448610 34985.55689922 0 -2313.67299410 0 8246.08069171 0 3745.70105220 0 -2595.81797513 0 3336
0.05550000 0.05550870 34853.13189439 0 -1080.09532097 0 6552.25858561 0 5632.04874225 0 -719.13531741 0 3349
0.05650000 0.05647670 36447.76811477 0 387.35421146 0 3795.69259876 0 991.94300692 0 -221.81188309 0 3324
0.05750000 0.05747970 35591.21306680 0 230.80371808 0 2524.42362470 0 1689.20494666 0 2904.29294458 0 3639
0.05850000 0.05849280 35073.02826529 0 1646.79794260 0 5126.92928403 0 -2900.59478809 0 918.12824629 0 3846
0.05950000 0.05951020 34162.21882571 0 1681.37681301 0 5725.95312904 0 -2280.31207943 0 923.70759076 0 3787
0.06050000 0.06049470 32691.59264329 0 1726.33045177 0 8088.10076120 0 -1110.16664794 0 1884.39896089 0 3930
0.06150000 0.06148310 31286.18245406 0 1489.60414715 0 7598.03966473 0 -2375.09117987 0 3729.80119376 0 4083
0.06250000 0.06249100 31341.21190841 0 -642.57462022 0 8579.03657133 0 1198.93347601 0 1847.81599968 0 4303
0.06350000 0.06350600 31999.57234213 0 -733.88365407 0 10741.94879071 0 1090.57970534 0 1240.03394574 0 4470
0.06450000 0.06451750 32114.83524349 0 337.07921338 0 8625.99430089 0 864.21045335 0 1406.99353168 0 4479
0.06550000 0.06550280 31712.57768283 0 432.81053377 0 9589.68516381 0 -445.47616613 0 77.79127537 0 4636
0.06650000 0.06648880 30957.44513020 0 2040.61839175 0 10415.31520856 0 -1072.62814511 0 2623.68701670 0 4653
0.06750000 0.06749660 28912.16528970 0 1853.41859604 0 9984.54641149 0 -147.68156120 0 2425.40382385 0 5220
0.06850000 0.06852730 28313.70613325 0 307.26919327 0 8833.45645102 0 2888.94670238 0 2068.79745842 0 5029
0.06950000 0.06949320 27976.66456577 0 -640.82076397 0 9216.37066022 0 2291.27368100 0 -136.88493727 0 5040
0.07050000 0.07048030 28185.37788860 0 579.30182005 0 8092.29717231 0 211.69842160 0 -2167.85047624 0 5475
0.07150000 0.07148790 27075.70949528 0 642.08190177 0 7074.21904988 0 -195.62362043 0 1033.95694345 0 5509
0.07250000 0.07249820 26967.75432829 0 71.72762741 0 6615.74729612 0 -608.50950569 0 1741.67669397 0 5916
0.07350000 0.07351270 27874.90990069 0 -903.74751081 0 8267.82673766 0 974.21621489 0 1387.31801048 0 5721
0.07450000 0.07449140 28042.32345194 0 234.51626859 0 7093.56240134 0 1963.26713057 0 -70.27194886 0 6028
0.07550000 0.07549160 27625.56114577 0 419.00998811 0 7362.25450771 0 282.33653225 0 1345.09923594 0 6183
0.07650000 0.07648840 27688.00905775 0 -323.95518678 0 7502.96161151 0 -444.20063431 0 2095.07208521 0 6330
0.07750000 0.07749960 28202.87216181 0 378.08446112 0 9368.49333090 0 -713.67333958 0 1727.09444219 0 6583
0.07850000 0.07848650 27667.08236384 0 811.16848131 0 9667.03642499 0 -1336.99429418 0 2515.41075230 0 6549
0.07950000 0.07947320 27196.06566606 0 1019.55627779 0 10873.76481767 0 -1162.31729784 0 2005.39732650 0 6828
0.08050000 0.08048110 26624.95515191 0 779.49388170 0 10566.10920026 0 221.95360885 0 2974.33647138 0 7147
0.08150000 0.08149960 25780.57966124 0 496.25938391 0 11607.67172363 0 227.75661429 0 3015.52551971 0 7386
0.08250000 0.08250610 25533.55609454 0 911.64982904 0 10607.67470763 0 1095.11492958 0 3122.83849185 0 7227
0.08350000 0.08350160 24830.13129881 0 702.67298487 0 10450.19303174 0 1863.05151864 0 1401.08091023 0 7798
0.08450000 0.08449610 23757.55519362 0 922.45420359 0 8925.17958981 0 844.87485252 0 1807.35772480 0 7371
0.08550000 0.08548940 22825.26544389 0 1100.74520675 0 9005.38751080 0 548.17640775 0 2656.79326791 0 8256
0.08650000 0.08650700 22324.46419235 0 428.41149912 0 8484.29068786 0 106.21005787 0 2259.76184456 0 8037
0.08750000 0.08749060 22007.24208629 0 -236.18486794 0 8576.92175729 0 138.78605544 0 1254.85978867 0 8155
0.08850000 0.08849210 21723.79057094 0 327.98994194 0 7921.04152434 0 104.96276048 0 305.55076846 0 8718
0.08950000 0.08949900 21948.33731826 0 313.92144603 0 8360.81212148 0 103.70383714 0 850.35565330 0 8571
0.09050000 0.09049190 21529.02837738 0 85.49097005 0 8526.11085870 0 156.05223876 0 462.84310760 0 8932
0.09150000 0.09150830 21643.29476950 0 175.84512661 0 8187.77382922 0 980.87068210 0 1787.70434824 0 9285
0.09250000 0.09250820 21179.36435960 0 337.07367722 0 7989.83387843 0 194.74669231 0 1462.02298603 0 9204
0.09350000 0.09350330 20826.37864438 0 1080.30348067 0 8741.67795059 0 509.58714129 0 1104.16544789 0 9349
0.09450000 0.09448040 19779.49033278 0 1347.29155626 0 8552.15296667 0 -288.40638071 0 2087.38789179 0 9564
0.09550000 0.09549270 18208.99178050 0 1241.16332287 0 8086.83851617 0 252.24084616 0 2111.41483664 0 10155
0.09650000 0.09649430 18010.35427326 0 220.86519932 0 8065.22533812 0 1119.57812404 0 2201.55463299 0 9913
0.09750000 0.09749140 17424.73901360 0 -320.38436202 0 7709.80371145 0 1516.62061971 0 1311.67188732 0 10476
0.09850000 0.09850240 18070.47699702 0 -364.12225952 0 6560.05350228 0 1690.34539611 0 1011.79347086 0 10575
0.09950000 0.09950330 17656.92566505 0 -236.80713259 0 5766.30068068 0 1000.36018825 0 595.91362897 0 10882
0.10050000 0.10051200 18076.56677567 0 100.82248606 0 4553.72610049 0 580.83644427 0 781.10379773 0 10875
0.10150000 0.10150300 17476.88966350 0 345.87285375 0 5053.19867306 0 266.06796539 0 608.44971513 0 11118
0.10250000 0.10250800 17692.13565797 0 474.93851524 0 4518.75969871 0 -338.20969775 0 -54.70924271 0 11575
0.10350000 0.10349800 16953.94376231 0 320.87597324 0 4758.47553104 0 -293.73327618 0 376.46347276 0 11364
0.10450000 0.10450100 16695.29425455 0 430.93931087 0 4592.44602038 0 -410.90393911 0 -471.77958097 0 12093
0.10550000 0.10551000 16391.91255452 0 287.40212085 0 4646.33502527 0 -237.00864891 0 -210.03203672 0 12067
0.10650000 0.10649700 16116.87600602 0 305.01708241 0 4840.74290444 0 -16.13149147 0 -889.24055084 0 12054
0.10750000 0.10749900 15990.87294959 0 53.04850472 0 4136.80878177 0 170.36432582 0 -507.90082622 0 12807
0.10850000 0.10850100 15997.62706772 0 124.43189354 0 4228.08902757 0 90.95527307 0 -1605.26565221 0 12736
0.10950000 0.10950300 15846.37911070 0 301.30231743 0 4359.44001690 0 388.70724955 0 -953.30280777 0 12933
0.11050000 0.11050200 15680.62640817 0 131.18933338 0 4243.95566904 0 -120.38828052 0 -1405.36589993 0 13428
0.11150000 0.11150900 15373.92301069 0 129.08337720 0 4409.74158855 0 78.58615757 0 -808.65727804 0 13453
0.11250000 0.11250000 15430.28114402 0 269.22357797 0 4436.27087881 0 368.64641144 0 -826.04747140 0 13668
0.11350000 0.11349100 15278.70101725 0 315.91889342 0 4522.94503749 0 -71.00715123 0 -974.69343209 0 13791
0.11450000 0.11448600 14858.39556713 0 467.77804278 0 4651.21792052 0 -297.73149268 0 -429.39029263 0 14205
0.11550000 0.11549300 14654.33262073 0 462.59508753 0 4835.84893687 0 -237.18691334 0 -724.27951952 0 14776
0.11650000 0.11649800 14351.72598343 0 99.89451451 0 5011.25670665 0 -14.10592037 0 -82.72034221 0 14553
0.11750000 0.11747300 14426.57489921 0 246.55520736 0 4942.04360420 0 111.65110901 0 -526.10040653 0 14568
0.11850000 0.11849100 14271.23018200 0 92.52975766 0 5152.24061856 0 227.21074867 0 -613.62713422 0 16015
0.11950000 0.11950300 14125.29694089 0 -0.03254046 0 4991.26008802 0 253.61049274 0 -380.81157472 0 15270
0.12050000 0.12050700 14255.39675751 0 20.92248642 0 4984.77170568 0 -167.34711731 0 -1618.88461173 0 15999
0.12150000 0.12150000 13944.81804635 0 193.94173429 0 5294.91859617 0 -76.50134953 0 -273.94592450 0 15670
0.12250000 0.12250700 14085.43657154 0 458.79174395 0 5530.70375319 0 26.07809303 0 -1333.28506536 0 16887
0.12350000 0.12352200 13408.58535538 0 325.02366612 0 5113.78643447 0 -41.83091100 0 41.66748348 0 16407
0.12450000 0.12449800 13436.93050692 0 169.60919327 0 5309.12438892 0 1106.62461123 0 -126.97852825 0 16306
0.12550000 0.12549900 13303.61971610 0 -128.32603018 0 4434.48823452 0 1223.01578249 0 299.29711941 0 17523
0.12650000 0.12650100 13344.80876443 0 -110.34833927 0 4297.74502301 0 973.81428950 0 154.23748472 0 17154
0.12750000 0.12750600 13345.25165742 0 241.41986311 0 3717.26732206 0 573.67597181 0 553.57084440 0 18007
0.12850000 0.12850300 13233.08900701 0 87.52683841 0 3632.25401211 0 41.24274910 0 -94.01832101 0 17496
0.12950000 0.12949900 12937.12576460 0 277.33184143 0 3477.21932000 0 -564.92551350 0 159.45365695 0 18405
0.13050000 0.13049000 12832.82446481 0 371.04024807 0 3693.40646208 0 -664.88756920 0 -514.75902421 0 18100
0.13150000 0.13148800 12495.67217408 0 160.85873497 0 3880.56196849 0 -447.81021220 0 -467.88655156 0 19059
0.13250000 0.13249300 12474.19186394 0 35.36998802 0 4157.18185943 0 29.82098171 0 -617.94423366 0 18957
0.13350000 0.13349100 12305.78180344 0 75.75252820 0 3964.94415593 0 446.80595234 0 -683.98290058 0 19468
0.13450000 0.13450700 12560.33455102 0 68.89012273 0 3966.40570281 0 158.79706808 0 -665.28285119 0 19953
0.13550000 0.13551000 12633.19044833 0 -38.47965044 0 3953.76110787 0 379.94461169 0 -647.18513628 0 19956
0.13650000 0.13649900 12264.81420161 0 138.16046909 0 3767.50245977 0 12.07282009 0 -412.32894732 0 19723
0.13750000 0.13749600 12433.11353886 0 270.79695532 0 3700.94671528 0 -56.46786007 0 -273.67465254 0 20946
0.13850000 0.13851100 12150.54780949 0 -47.56382862 0 3695.64307169 0 168.14543193 0 -483.20289848 0 20955
0.13950000 0.13949800 11966.74721750 0 153.46574368 0 3502.23170176 0 404.34469389 0 -427.28101475 0 20506
0.14050000 0.14048300 12084.88892331 0 176.72759090 0 3513.38153285 0 147.84321714 0 -963.33211959 0 21447
0.14150000 0.14148400 11568.03280078 0 270.77148898 0 2946.72209329 0 530.52490752 0 -319.94921966 0 21771
0.14250000 0.14249400 11544.00585592 0 326.02349705 0 3037.93590514 0 272.37808331 0 -50.33977117 0 22470
0.14350000 0.14350900 11084.06148295 0 265.73025949 0 2741.90622879 0 397.25840601 0 -22.17698083 0 22519
0.14450000 0.14449900 11034.93357773 0 149.07667413 0 2961.90225061 0 215.52058813 0 219.98937843 0 22218
0.14550000 0.14550500 10972.83998015 0 53.67630553 0 2798.00969865 0 138.39852407 0 -410.09233770 0 23559
0.14650000 0.14650700 10862.40461241 0 161.34591726 0 2784.36859447 0 -370.44898592 0 264.71714176 0 23044
0.14750000 0.14750500 10832.68649260 0 247.91599608 0 3332.53725159 0 -171.67750355 0 38.36161946 0 23649
0.14850000 0.14849900 10502.14437979 0 347.41855030 0 3261.12075651 0 -178.08727238 0 509.26493664 0 23640
0.14950000 0.14949500 10320.64683136 0 169.82288914 0 3135.37236355 0 281.92353453 0 314.74411976 0 24457
0.15050000 0.15050000 10293.97360087 0 60.18539312 0 3006.82267240 0 462.76227963 0 484.16397627 0 24591
0.15150000 0.15149900 10062.34056566 0 48.71402172 0 2887.99448245 0 178.68407069 0 291.12574369 0 25020
0.15250000 0.15250500 9986.35120043 0 196.74413970 0 2821.67125678 0 306.32361674 0 72.94934773 0 25297
0.15350000 0.15350100 9846.52988262 0 226.49990542 0 2505.99927620 0 -40.49459211 0 481.47450858 0 25452
0.15450000 0.15450400 9738.25361822 0 0.09454913 0 2382.67572237 0 -29.61215766 0 92.44826535 0 26061
0.15550000 0.15549900 9817.77505507 0 0.89397286 0 2510.58321868 0 103.59776427 0 222.44411284 0 26128
0.15650000 0.15649500 9745.70529283 0 32.21791859 0 2428.03903716 0 40.57320562 0 -109.45303108 0 26331
0.15750000 0.15749700 9661.56669653 0 77.51812112 0 2333.91320387 0 249.01990687 0 -270.96857636 0 27345
0.15850000 0.15849900 9590.50451584 0 143.07547407 0 2274.86449561 0 114.57198829 0 -127.75359099 0 26980
0.15950000 0.15949700 9555.99207938 0 216.33440400 0 2592.87273673 0 -84.27633602 0 7.10234275 0 27777
0.16050000 0.16050000 9272.62914262 0 235.59139133 0 2515.68756042 0 -82.38230413 0 151.81707452 0 28224
0.16150000 0.16150500 9252.61037935 0 156.48073773 0 2741.20867233 0 18.83756766 0 794.20900138 0 28075
0.16250000 0.16249700 9102.43643784 0 122.69353855 0 2686.24565193 0 160.73140323 0 436.09347807 0 28590
0.16350000 0.16349900 9014.63290202 0 203.39639245 0 2767.23970798 0 69.64713757 0 438.93020769 0 29163
0.16450000 0.16449100 8796.22022265 0 225.65508704 0 2773.51771615 0 -212.19667622 0 553.27521333 0 28996
0.16550000 0.16550500 8644.05326267 0 286.61820026 0 3121.68697007 0 -93.79953187 0 704.16885596 0 30777
0.16650000 0.16650700 8506.72321794 0 -31.03694442 0 2945.20518479 0 107.75597586 0 458.01225229 0 29211
0.16750000 0.16749900 8503.41259282 0 -36.22598945 0 2960.80609045 0 335.81475389 0 382.41374012 0 30922
0.16850000 0.16850800 8549.58418732 0 136.12980472 0 2897.83777921 0 204.51580449 0 363.25197479 0 30867
0.16950000 0.16949900 8503.84441349 0 51.49395031 0 2577.96938753 0 384.54516265 0 360.53925521 0 30852
0.17050000 0.17049200 8370.57791197 0 -28.50603242 0 2372.20130310 0 106.52938371 0 599.31615439 0 31257
0.17150000 0.17149500 8416.06302233 0 84.25474498 0 2176.39831100 0 234.78754055 0 370.78115567 0 32608
0.17250000 0.17250900 8371.17581751 0 87.79534229 0 2188.53357900 0 290.24106494 0 397.28165789 0 32361
0.17350000 0.17350400 8173.64554275 0 109.32647441 0 1852.30029124 0 121.63280983 0 475.08688439 0 32508
0.17450000 0.17449800 8145.10108937 0 130.07656474 0 2043.79614897 0 106.80309158 0 298.91623143 0 32791
0.17550000 0.17549800 8109.07174441 0 55.76509961 0 1905.41423339 0 -49.45199217 0 471.87701742 0 33633
0.17650000 0.17650100 7978.81691524 0 63.60441630 0 2029.52392228 0 48.03517748 0 238.53441527 0 33984
0.17750000 0.17750300 7976.21491891 0 138.32101780 0 2091.80574939 0 -267.04675891 0 572.84776191 0 34069
0.17850000 0.17849800 7998.20455600 0 19.25920179 0 2203.37049426 0 35.31639796 0 202.39877599 0 34536
