### header ###
fiducial parameters:
Omega_m = 0.31
Omega_nu = 0
Omega_de = 0.69
Omega_k = 0
H_0 = 100
w_de = -1
zeff = 0
beta = 0
fgrowth = 0
b_1 = 2
gamma = 0.55
Lx = 3500 Ly = 3500 Lz = 3500
nx = 700 ny = 700 nz = 700
xoffset = -685.467585 yoffset = -31.7331281 zoffset = 572.489161
bins = 400 dk = 0.001
kx_ny = 0.628318531 ky_ny = 0.628318531 kz_ny = 0.628318531
############################
A(data) = 8.08984794 (not used)
A(ran) = 8.08543058 (used)
Ngal = 480764
weighted Ngal = 0
Nran = 23820508
weighted Nran = 0
SN(data) = 3493.81917
SN(ran) = 70.4270326
SN(data+ran) = 3564.24621
############################
13 columns: k_central k_mean P_0(k) sigma^{lin}_{P_0(k)} P^img_1(k) sigma^{lin}_{P_1(k)} P_2(k) sigma^{lin}_{P_2(k)} P^img_3(k) sigma^{lin}_{P_3(k)} P_4(k) sigma^{lin}_{P_4(k)} N_modes
### header ###
0.00050000 0 0 0 0 0 0 0 0 0 0 0 0
0.00150000 0.00179520 98168.44979785 0 -26610.67185289 0 131193.76231118 0 19473.34055155 0 -258085.92643031 0 3
0.00250000 0.00253879 161837.52847926 0 -4187.50895711 0 49158.90772983 0 9632.78972432 0 62222.36872061 0 6
0.00350000 0.00331552 149207.32755863 0 -3406.33429651 0 -39320.26134247 0 44515.72831713 0 178243.39216305 0 7
0.00450000 0.00420575 124129.61907688 0 -5832.81213586 0 -56058.40549407 0 -32607.11080493 0 -22266.11304055 0 24
0.00550000 0.00557378 117048.86735536 0 21419.63380817 0 -4000.64133115 0 -28725.37517001 0 -33287.72661153 0 45
0.00650000 0.00659388 102495.95722997 0 27751.78564870 0 5260.84905271 0 -39563.40959549 0 49857.68214913 0 40
0.00750000 0.00754703 74242.26309724 0 26145.08059427 0 30160.01629676 0 -24689.06988062 0 42374.45142045 0 57
0.00850000 0.00846663 69071.37668368 0 6239.38790321 0 51704.87809863 0 14102.70939826 0 24268.10009101 0 75
0.00950000 0.00948925 67778.35059136 0 -8834.45296025 0 47890.57292185 0 32751.71536706 0 16498.76048902 0 112
0.01050000 0.01054430 89994.74889348 0 -15897.97614436 0 70954.11479584 0 20447.37296584 0 17460.17045302 0 105
0.01150000 0.01145670 114695.99833139 0 -12720.99398414 0 99766.07554593 0 8535.72163664 0 -2850.45930131 0 144
0.01250000 0.01249090 105881.09909677 0 12286.62668151 0 89627.25843274 0 2904.58082503 0 63588.80432648 0 169
0.01350000 0.01339930 95188.44429616 0 31809.34980174 0 79591.08177063 0 2893.32027069 0 48496.22908943 0 180
0.01450000 0.01448870 91954.99327937 0 3487.93733042 0 91486.74466279 0 39319.59700298 0 36861.09800025 0 267
0.01550000 0.01550050 90882.30645094 0 -2758.75830716 0 107486.03257924 0 24194.80130071 0 16069.81862554 0 238
0.01650000 0.01653350 79001.25902754 0 13529.38441915 0 67042.59460716 0 32252.24279449 0 -7305.36490280 0 315
0.01750000 0.01747870 74344.34993206 0 6759.24462577 0 73059.62808336 0 9506.79774021 0 19092.67402428 0 297
0.01850000 0.01844180 63303.13834616 0 330.13686572 0 30993.87307885 0 33827.72389294 0 3134.38692664 0 388
0.01950000 0.01947590 65763.85181385 0 -6557.23005945 0 33393.46731355 0 23359.17294665 0 -13730.56856111 0 399
0.02050000 0.02045430 64183.16672274 0 -2309.08905163 0 13090.03457035 0 12890.95417011 0 -11882.92971862 0 462
0.02150000 0.02154770 68917.13919896 0 -1265.65530537 0 6324.37906851 0 -751.96918943 0 -11696.58249192 0 571
0.02250000 0.02255340 67741.36902646 0 -11375.04217919 0 262.38198846 0 5702.93376574 0 -2102.30231332 0 510
0.02350000 0.02348930 80455.38744597 0 -5247.05293598 0 8165.00912939 0 -1743.97973754 0 -20682.99203798 0 555
0.02450000 0.02439640 79220.82322869 0 -1500.12285573 0 5260.51688296 0 -5715.65586696 0 2824.58327821 0 592
0.02550000 0.02547300 82359.60586828 0 7027.56027310 0 9016.41554632 0 -4062.71278408 0 -7046.85933525 0 837
0.02650000 0.02652900 72699.00246401 0 3988.15174875 0 9603.28197868 0 -2593.93567991 0 7468.12807763 0 723
0.02750000 0.02749970 73368.10305280 0 323.25763031 0 10710.61411147 0 5271.74422033 0 -3629.14268883 0 826
0.02850000 0.02848090 73714.99898937 0 2520.06112872 0 16312.85615531 0 -442.60732677 0 2195.67522851 0 831
0.02950000 0.02946900 69575.38890942 0 5837.91647761 0 19382.10459504 0 2156.76707910 0 2635.30188544 0 996
0.03050000 0.03053250 64496.84568486 0 7255.81624923 0 16781.21549514 0 -3412.86696815 0 5994.12483615 0 1041
0.03150000 0.03150510 60918.60247321 0 4848.17243439 0 21594.02292406 0 5634.38500279 0 10046.26355003 0 1036
0.03250000 0.03246190 55184.46689613 0 -1251.03983661 0 14211.43962798 0 4907.44258915 0 8292.54016665 0 1059
0.03350000 0.03345080 57035.64888256 0 1664.91226601 0 17811.71676601 0 2886.09004258 0 -4262.81183820 0 1302
0.03450000 0.03451200 53660.36138485 0 2849.60673230 0 18022.64455381 0 -4611.71186556 0 -7237.79050443 0 1339
0.03550000 0.03553350 48934.25025926 0 4986.74257950 0 18161.60223028 0 -8448.91461007 0 -4991.47046219 0 1365
0.03650000 0.03647120 49007.43832631 0 3676.45473278 0 13086.60214965 0 -5875.38522479 0 -2841.20283776 0 1308
0.03750000 0.03744890 47593.05955397 0 -2076.11626512 0 18052.53983082 0 265.98824465 0 -10953.45233939 0 1579
0.03850000 0.03847530 49179.50225399 0 -1666.44024683 0 13611.31962281 0 3379.52819812 0 -14343.08957007 0 1662
0.03950000 0.03950240 51645.86260734 0 -2016.20391553 0 15406.91853865 0 -3160.26294974 0 -22941.52485449 0 1683
0.04050000 0.04050350 50098.50521394 0 2482.13841622 0 13533.81334908 0 -2160.68668209 0 -15855.23697056 0 1822
0.04150000 0.04152450 49667.79177849 0 4841.24115906 0 20100.91992227 0 -3234.18179023 0 -15517.19889384 0 1887
0.04250000 0.04250150 45922.35646209 0 2170.99501649 0 17659.36157651 0 -162.69784812 0 -7888.47781704 0 1920
0.04350000 0.04349210 46143.13861897 0 -819.29999665 0 20950.83157535 0 7968.14319411 0 -11948.36715830 0 2005
0.04450000 0.04448520 44155.21342103 0 907.59625092 0 16364.89608196 0 6157.55235047 0 -10367.34989744 0 2151
0.04550000 0.04548030 45477.58117412 0 -103.64404659 0 16317.39580849 0 7655.27251171 0 -10506.92762411 0 2274
0.04650000 0.04648670 43430.64048490 0 -543.06431538 0 12126.96375762 0 4510.17864698 0 -1055.19366245 0 2311
0.04750000 0.04749250 43556.42209484 0 1302.38220679 0 9623.45575450 0 2943.71042093 0 1322.68885051 0 2568
0.04850000 0.04851840 42695.88100993 0 2131.92078221 0 8070.68399426 0 1276.84942576 0 -3621.38098914 0 2493
0.04950000 0.04949480 40363.82795663 0 2304.93692982 0 11663.03334772 0 -2307.81573428 0 -1470.65939939 0 2644
0.05050000 0.05050630 37444.94168794 0 2852.03157144 0 10448.84220811 0 -2725.86243013 0 17.65891868 0 2829
0.05150000 0.05149060 35954.16387436 0 990.65640278 0 11035.71971280 0 -1349.63888912 0 -502.70126249 0 2784
0.05250000 0.05249300 35728.73134105 0 -309.87783300 0 12964.25296041 0 -48.59410844 0 -2674.21003485 0 3055
0.05350000 0.05348950 37633.50337960 0 -728.90332237 0 11597.37446155 0 3590.63314311 0 -4781.40631574 0 3009
0.05450000 0.05448610 35935.34092216 0 744.72013837 0 10608.81515709 0 326.23276399 0 -4888.35390116 0 3336
0.05550000 0.05550870 35779.22114222 0 846.72725246 0 9083.04879708 0 180.00610627 0 -4147.41606894 0 3349
0.05650000 0.05647670 35040.47563032 0 288.28569237 0 9525.50996916 0 -2347.45465713 0 -3465.98091031 0 3324
0.05750000 0.05747970 35107.57391872 0 920.41800306 0 11004.47361216 0 87.50026484 0 -2231.28382513 0 3639
0.05850000 0.05849280 34494.72074001 0 277.15689870 0 11440.14744912 0 1992.08839207 0 148.84415530 0 3846
0.05950000 0.05951020 34117.59735669 0 173.75577891 0 10337.60963298 0 2608.39613613 0 -2283.88844034 0 3787
0.06050000 0.06049470 33619.45346310 0 764.76436799 0 11473.25370033 0 2919.10771519 0 -405.28694873 0 3930
0.06150000 0.06148310 33517.36662827 0 779.53927823 0 10730.65501939 0 781.32192253 0 -142.76987791 0 4083
0.06250000 0.06249100 31900.47503500 0 531.26896775 0 9888.43863206 0 747.32434917 0 2423.92013232 0 4303
0.06350000 0.06350600 32495.83394050 0 183.64225774 0 11048.30894611 0 507.50886592 0 3418.15953941 0 4470
0.06450000 0.06451750 31828.83709343 0 487.87099062 0 9940.37890779 0 -302.21246253 0 504.61123852 0 4479
0.06550000 0.06550280 31960.15486577 0 788.90203610 0 11197.55281235 0 -1512.11418351 0 -167.73464868 0 4636
0.06650000 0.06648880 30478.56708179 0 857.53605595 0 10634.25935952 0 550.43626924 0 1759.27061811 0 4653
0.06750000 0.06749660 30332.74456393 0 666.48419844 0 10292.52312632 0 -290.84672110 0 -393.65879321 0 5220
0.06850000 0.06852730 29791.75077329 0 554.00709400 0 10058.86385567 0 2152.32707685 0 -1256.75315622 0 5029
0.06950000 0.06949320 30161.67714548 0 -220.46548839 0 10069.86974654 0 1981.99043184 0 -826.46821974 0 5040
0.07050000 0.07048030 29535.75862348 0 569.45520159 0 9516.85141115 0 1471.54518537 0 -2354.56308966 0 5475
0.07150000 0.07148790 29015.91297325 0 1320.66261507 0 8732.63186122 0 -35.21320390 0 522.55615535 0 5509
0.07250000 0.07249820 28026.49002745 0 891.72628776 0 10074.56441226 0 -429.49547972 0 -413.11618961 0 5916
0.07350000 0.07351270 27743.48140509 0 979.97935996 0 11461.40631277 0 -672.39017649 0 3196.30336702 0 5721
0.07450000 0.07449140 27052.56833641 0 658.09580515 0 12573.62134081 0 -1000.56834796 0 2009.33907414 0 6028
0.07550000 0.07549160 25963.71591374 0 474.63291907 0 12254.51693953 0 -264.16795445 0 2866.48095532 0 6183
0.07650000 0.07648840 25727.98611835 0 917.36425587 0 12998.13427435 0 988.10866084 0 2062.41979932 0 6330
0.07750000 0.07749960 25145.69255614 0 281.35884597 0 12023.32679732 0 1192.78833574 0 1036.84682022 0 6583
0.07850000 0.07848650 24812.52630235 0 205.86552089 0 11439.26166314 0 1215.73019276 0 775.86769532 0 6549
0.07950000 0.07947320 24701.58160766 0 213.48217313 0 9713.67305712 0 1419.47204175 0 -1185.65775856 0 6828
0.08050000 0.08048110 24436.62087475 0 -195.15083216 0 8889.77029504 0 -828.63950264 0 -1761.08647938 0 7147
0.08150000 0.08149960 24529.40695673 0 394.69294835 0 8885.77318578 0 -311.14672143 0 -3190.83363856 0 7386
0.08250000 0.08250610 23896.40214685 0 968.04450103 0 9231.90513194 0 -1223.71333896 0 -2064.50139639 0 7227
0.08350000 0.08350160 23431.69667421 0 701.29005150 0 9231.20757548 0 -273.67686701 0 -2513.96027775 0 7798
0.08450000 0.08449610 23632.21647668 0 83.61066785 0 10046.46285187 0 391.83075238 0 -1805.87403327 0 7371
0.08550000 0.08548940 22991.57176267 0 134.80555467 0 10366.09872474 0 926.13907329 0 -1973.44259708 0 8256
0.08650000 0.08650700 23027.44609508 0 280.24829179 0 10408.36178857 0 818.89364233 0 -2203.59194076 0 8037
0.08750000 0.08749060 22388.01933681 0 771.08223653 0 8721.48203013 0 653.40003220 0 -1526.89573714 0 8155
0.08850000 0.08849210 22332.65771271 0 331.17544979 0 9259.59701631 0 839.59888974 0 -1092.63362159 0 8718
0.08950000 0.08949900 21594.02292406 0 467.01294513 0 7946.38607585 0 679.33141692 0 -1063.31853440 0 8571
0.09050000 0.09049190 20881.29737549 0 634.30027189 0 7347.59474965 0 1318.42600546 0 -1616.74765304 0 8932
0.09150000 0.09150830 20101.58426176 0 733.53930477 0 6890.65097671 0 1394.20499651 0 -1529.28735930 0 9285
0.09250000 0.09250820 19787.46240665 0 371.75219855 0 6284.19760175 0 836.08674831 0 -1795.57677119 0 9204
0.09350000 0.09350330 19137.29549330 0 362.12481212 0 7045.50851163 0 682.69518920 0 -693.73318981 0 9349
0.09450000 0.09448040 19149.25360410 0 291.50109550 0 6420.95188558 0 -154.18655203 0 -88.14179534 0 9564
0.09550000 0.09549270 18606.93113449 0 334.55029440 0 6589.80483907 0 49.55474334 0 767.58338189 0 10155
0.09650000 0.09649430 19093.33836377 0 -386.78287949 0 7045.94033229 0 70.08759466 0 1291.47596685 0 9913
0.09750000 0.09749140 18995.90190537 0 127.78902243 0 7125.11852707 0 1091.45331177 0 191.42831656 0 10476
0.09850000 0.09850240 19043.07000909 0 451.51501208 0 7392.14978472 0 299.40119926 0 851.44074114 0 10575
0.09950000 0.09950330 18587.11167306 0 726.95016427 0 6638.33483875 0 1.30417592 0 1622.16201988 0 10882
0.10050000 0.10051200 17778.05689856 0 459.08516056 0 6608.55028498 0 615.63343947 0 1651.93550132 0 10875
0.10150000 0.10150300 17853.34870733 0 133.76364890 0 6092.03740452 0 1121.21682811 0 1827.47613899 0 11118
0.10250000 0.10250800 17285.44916738 0 37.36511023 0 5865.38691548 0 197.92666399 0 396.76347309 0 11575
0.10350000 0.10349800 17466.03878517 0 418.67338944 0 5899.52289290 0 244.84674764 0 162.08997749 0 11364
0.10450000 0.10450100 16940.54624928 0 332.97802427 0 5657.33793214 0 -486.50134404 0 1454.49380515 0 12093
0.10550000 0.10551000 16659.08775239 0 231.57213742 0 5404.03635726 0 498.29336998 0 1501.00864171 0 12067
0.10650000 0.10649700 16484.47719000 0 23.81225248 0 5217.46768407 0 670.29750710 0 331.06472654 0 12054
0.10750000 0.10749900 16851.52475774 0 -7.34532492 0 5620.12384842 0 516.64131943 0 197.37415498 0 12807
0.10850000 0.10850100 16581.58147866 0 123.13200261 0 5039.51327958 0 220.47102456 0 206.89524710 0 12736
0.10950000 0.10950300 16325.03571261 0 486.26218183 0 5246.23358395 0 -502.12217990 0 931.83135548 0 12933
0.11050000 0.11050200 15894.76517016 0 602.40976194 0 5784.20462991 0 -118.85476353 0 1691.12045885 0 13428
0.11150000 0.11150900 15637.55506462 0 406.87582734 0 6102.04678615 0 276.87787611 0 1470.52653149 0 13453
0.11250000 0.11250000 15470.36295986 0 218.35842498 0 5592.29909615 0 659.29936686 0 1377.06503770 0 13668
0.11350000 0.11349100 15237.51196892 0 -35.78985057 0 5860.42651396 0 100.77088902 0 620.28603036 0 13791
0.11450000 0.11448600 15279.91897298 0 221.07114456 0 5989.24194090 0 -540.32059329 0 650.82682391 0 14205
0.11550000 0.11549300 15211.60272885 0 435.82331335 0 6445.18920461 0 -688.53584054 0 565.16135402 0 14776
0.11650000 0.11649800 14613.14357240 0 352.14200407 0 6045.94331630 0 -116.31587945 0 1129.82002449 0 14553
0.11750000 0.11747300 14578.81936546 0 296.76155702 0 6290.44239294 0 115.30719066 0 98.64112734 0 14568
0.11850000 0.11849100 14286.73143675 0 71.94708089 0 5852.58730799 0 758.75209561 0 492.39735701 0 16015
0.11950000 0.11950300 14214.98277192 0 183.84377406 0 6015.27297655 0 610.81587095 0 513.00295350 0 15270
0.12050000 0.12050700 14099.71987056 0 69.29559126 0 5552.49408843 0 417.48422175 0 591.24885853 0 15999
0.12150000 0.12150000 14036.05400285 0 194.87734574 0 5479.06243023 0 322.15482676 0 1244.80611774 0 15670
0.12250000 0.12250700 13739.64786746 0 143.71434722 0 5001.94488147 0 201.78094026 0 678.57406991 0 16887
0.12350000 0.12352200 13646.64033898 0 224.62536083 0 5412.01950346 0 235.84384033 0 1345.81893706 0 16407
0.12450000 0.12449800 13690.04385227 0 196.75410479 0 5125.65596667 0 -165.30427338 0 202.59697060 0 16306
0.12550000 0.12549900 13385.77636625 0 -67.64791860 0 5061.72436317 0 90.00449254 0 846.77597069 0 17523
0.12650000 0.12650100 13610.87672982 0 106.98766724 0 5505.29276773 0 378.03795735 0 793.73178418 0 17154
0.12750000 0.12750600 13534.36696532 0 121.50437086 0 4951.68759912 0 192.23327457 0 1111.86071364 0 18007
0.12850000 0.12850300 13240.72891113 0 225.93189516 0 4965.19583540 0 694.36984849 0 1283.24922951 0 17496
0.12950000 0.12949900 13148.60716864 0 149.87831044 0 4718.84768051 0 760.50816633 0 819.15273473 0 18405
0.13050000 0.13049000 13134.54531612 0 17.95100661 0 4536.20968263 0 283.25332074 0 979.68705058 0 18100
0.13150000 0.13148800 12820.09129127 0 199.01507352 0 4193.37728927 0 318.08021123 0 901.03700570 0 19059
0.13250000 0.13249300 12885.19656120 0 57.26706047 0 3590.22346710 0 58.34229393 0 1072.94481360 0 18957
0.13350000 0.13349100 12598.09117866 0 58.93543837 0 3766.59452913 0 154.71359469 0 815.02054311 0 19468
0.13450000 0.13450700 12673.16154093 0 199.02060969 0 3642.72843139 0 -63.72909068 0 -64.08971630 0 19953
0.13550000 0.13551000 12235.47254085 0 251.56100541 0 3413.01090837 0 214.48643299 0 -319.99572342 0 19956
0.13650000 0.13649900 12148.22262127 0 307.80952273 0 3451.85262384 0 -521.64379579 0 -430.51524083 0 19723
0.13750000 0.13749600 11994.53875279 0 202.53275112 0 3435.26628126 0 -10.87717509 0 -165.99297198 0 20946
0.13850000 0.13851100 11778.18552584 0 279.15434610 0 3871.36086657 0 127.33173541 0 -75.97220313 0 20955
0.13950000 0.13949800 11621.95502264 0 159.63635031 0 3198.62855523 0 464.41537773 0 26.79314377 0 20506
0.14050000 0.14048300 11521.30759004 0 110.02181641 0 3361.14813892 0 655.77947480 0 0.92747440 0 21447
0.14150000 0.14148400 11315.80524141 0 165.05514607 0 3169.65228118 0 332.33250773 0 199.43139294 0 21771
0.14250000 0.14249400 11165.66451687 0 158.67416528 0 3183.97986950 0 82.71181652 0 60.25016622 0 22470
0.14350000 0.14350900 11030.33856293 0 169.14083393 0 3313.57035918 0 164.26901101 0 756.86980040 0 22519
0.14450000 0.14449900 10930.67656724 0 259.40796201 0 3046.99306684 0 245.77239400 0 701.26126346 0 22218
0.14550000 0.14550500 10842.14225799 0 -42.82753095 0 2697.36226604 0 286.31038963 0 984.61977129 0 23559
0.14650000 0.14650700 10860.74376369 0 -25.59888281 0 2783.93677380 0 369.98505551 0 824.87934113 0 23044
0.14750000 0.14750500 10793.68976459 0 268.85154785 0 2628.43704405 0 16.57770616 0 537.84371423 0 23649
0.14850000 0.14849900 10610.02204049 0 342.87003926 0 2764.32768655 0 -85.83044753 0 781.87221707 0 23640
0.14950000 0.14949500 10167.66051934 0 347.85369267 0 2555.52578512 0 86.01159076 0 1221.00061938 0 24457
0.15050000 0.15050000 10092.56801242 0 184.46825318 0 2773.21876338 0 217.63097324 0 1323.33104535 0 24591
0.15150000 0.15149900 9988.49923145 0 -38.47655019 0 2428.12761575 0 537.67320043 0 1176.31271641 0 25020
0.15250000 0.15250500 9908.26916581 0 -42.54020412 0 2364.04099970 0 477.87600301 0 1122.74480894 0 25297
0.15350000 0.15350100 9925.04373791 0 24.40783283 0 2171.91401945 0 388.54116468 0 1464.37031889 0 25452
0.15450000 0.15450400 9943.03626574 0 -1.25525839 0 2138.33165828 0 233.23962954 0 949.92021254 0 26061
0.15550000 0.15549900 9939.99137642 0 50.53807651 0 2035.80193046 0 -23.66100452 0 1477.86748284 0 26128
0.15650000 0.15649500 9902.81050968 0 207.91943714 0 2125.70920798 0 -233.99254762 0 763.51430252 0 26331
0.15750000 0.15749700 9638.18194651 0 322.78262758 0 1934.16906095 0 -306.95695371 0 1143.64935819 0 27345
0.15850000 0.15849900 9551.06489484 0 147.43797005 0 2380.81557180 0 -381.90662764 0 567.08904577 0 26980
0.15950000 0.15949700 9265.94145843 0 184.78602890 0 2368.25955546 0 -365.90047489 0 659.84855417 0 27777
0.16050000 0.16050000 9303.33269935 0 187.61168619 0 2645.45520730 0 -46.35063399 0 326.42320798 0 28224
0.16150000 0.16150500 9196.50690950 0 -42.50565847 0 2732.92657336 0 185.52676743 0 982.13735606 0 28075
0.16250000 0.16249700 9200.18292134 0 -5.81944784 0 2834.42657497 0 326.50403595 0 732.75649141 0 28590
0.16350000 0.16349900 9299.54596426 0 62.82337451 0 2808.55055187 0 416.30280469 0 1022.60005988 0 29163
0.16450000 0.16449100 9245.62374239 0 69.11411586 0 2825.53549815 0 151.80710943 0 1062.11940162 0 28996
0.16550000 0.16550500 9166.05801624 0 158.75499325 0 2686.33423053 0 -27.81700164 0 1537.00476970 0 30777
0.16650000 0.16650700 9104.28551608 0 140.18781176 0 2829.36652253 0 -87.65239858 0 1436.75594079 0 29211
0.16750000 0.16749900 8944.94368962 0 237.99962198 0 2953.29905423 0 -152.40833666 0 1166.56907057 0 30922
0.16850000 0.16850800 8816.40507080 0 177.04425939 0 2906.47419257 0 -87.17484921 0 1130.73902745 0 30867
0.16950000 0.16949900 8652.95541182 0 -20.39522232 0 2548.88239023 0 267.04232998 0 632.10573711 0 30852
0.17050000 0.17049200 8601.14800400 0 17.74196112 0 2538.25295840 0 267.26156201 0 796.82871343 0 31257
0.17150000 0.17149500 8496.18236472 0 73.28650002 0 2175.84469476 0 357.76563784 0 485.07633584 0 32608
0.17250000 0.17250900 8543.21760055 0 103.51228593 0 2233.62008567 0 157.47281804 0 642.40410642 0 32361
0.17350000 0.17350400 8368.67347210 0 108.31302452 0 2072.88314627 0 160.33279954 0 960.16654193 0 32508
0.17450000 0.17449800 8240.78812045 0 223.54470193 0 1964.92797929 0 168.84520286 0 899.55774310 0 32791
0.17550000 0.17549800 8111.74017469 0 130.15628548 0 1901.06280974 0 284.54213935 0 1175.44907507 0 33633
0.17650000 0.17650100 8007.19528375 0 61.69875848 0 2058.62199191 0 122.97699006 0 1126.05543406 0 33984
0.17750000 0.17750300 7937.25140787 0 117.82614456 0 1803.96959340 0 172.99178850 0 1099.90703176 0 34069
