### header ###
fiducial parameters:
Omega_m = 0.31
Omega_nu = 0
Omega_de = 0.69
Omega_k = 0
H_0 = 100
w_de = -1
zeff = 0
beta = 0
fgrowth = 0
b_1 = 2
gamma = 0.55
Lx = 3500 Ly = 3500 Lz = 3500
nx = 700 ny = 700 nz = 700
xoffset = -685.467585 yoffset = -31.7331281 zoffset = 572.489161
bins = 400 dk = 0.001
kx_ny = 0.628318531 ky_ny = 0.628318531 kz_ny = 0.628318531
############################
A(data) = 7.96124955 (not used)
A(ran) = 7.96072058 (used)
Ngal = 473355
weighted Ngal = 0
Nran = 23820508
weighted Nran = 0
SN(data) = 3487.32249
SN(ran) = 69.3407634
SN(data+ran) = 3556.66326
############################
13 columns: k_central k_mean P_0(k) sigma^{lin}_{P_0(k)} P^img_1(k) sigma^{lin}_{P_1(k)} P_2(k) sigma^{lin}_{P_2(k)} P^img_3(k) sigma^{lin}_{P_3(k)} P_4(k) sigma^{lin}_{P_4(k)} N_modes
### header ###
0.00050000 0 0 0 0 0 0 0 0 0 0 0 0
0.00150000 0.00179520 23556.70322141 0 -2539.89166247 0 47528.61862353 0 -9293.34546236 0 -68188.80167239 0 3
0.00250000 0.00253879 40043.28415313 0 4556.22844590 0 11988.44897414 0 23234.94146218 0 35357.25484338 0 6
0.00350000 0.00331552 26947.15980413 0 8304.90795347 0 -2710.30581376 0 8324.98207837 0 41684.20269125 0 7
0.00450000 0.00420575 19853.34273932 0 -6327.83363386 0 -23956.85704036 0 15024.36971617 0 1354.17854229 0 24
0.00550000 0.00557378 32199.87069810 0 -20792.05443745 0 -21007.18970867 0 15513.21285691 0 -14175.56529557 0 45
0.00650000 0.00659388 56912.30318408 0 -14971.33328028 0 -23884.44403605 0 14001.28690292 0 35776.56378427 0 40
0.00750000 0.00754703 51256.33822022 0 -3575.71872158 0 -29287.95999404 0 2597.17987109 0 32829.88598028 0 57
0.00850000 0.00846663 69544.94001617 0 -22713.65640972 0 -43780.63667242 0 6313.52819019 0 17453.85922787 0 75
0.00950000 0.00948925 73175.11243121 0 -3485.77822708 0 -19732.32222905 0 -29397.13311675 0 6325.19842055 0 112
0.01050000 0.01054430 83347.81085835 0 -569.48952579 0 -21144.04364343 0 -25554.37206519 0 35484.36513230 0 105
0.01150000 0.01145670 78317.10007699 0 8584.01911750 0 -13011.19961764 0 -10017.57515642 0 16414.61082039 0 144
0.01250000 0.01249090 83498.94809212 0 -9425.09505538 0 -19881.79861411 0 -2881.79398055 0 19439.23779110 0 169
0.01350000 0.01339930 77626.96207105 0 -16745.67333247 0 -9890.36521658 0 -702.28656074 0 -34044.85218263 0 180
0.01450000 0.01448870 94252.27923274 0 1151.27818999 0 -14385.16440439 0 -2121.35778433 0 -18472.51311119 0 267
0.01550000 0.01550050 96154.50463658 0 -1979.23342296 0 -26797.79414233 0 17781.71076575 0 -19545.75355586 0 238
0.01650000 0.01653350 82989.28898072 0 5126.86285008 0 -35297.79645911 0 -4956.65907296 0 -21661.34265896 0 315
0.01750000 0.01747870 82654.68332470 0 5924.73457651 0 -28701.01605541 0 -9291.81748153 0 -8576.62280452 0 297
0.01850000 0.01844180 75047.88545104 0 7318.03164239 0 -14705.37603814 0 -21688.91274776 0 -28198.44323189 0 388
0.01950000 0.01947590 73623.98447936 0 3959.21976400 0 -9704.80412494 0 -26817.39215726 0 -11566.92556830 0 399
0.02050000 0.02045430 71025.75273742 0 -3747.15152675 0 2611.47424243 0 -17543.65578215 0 -11363.19479163 0 462
0.02150000 0.02154770 81617.98155193 0 -4182.32710910 0 14749.88678391 0 -9582.82032242 0 -21622.36807560 0 571
0.02250000 0.02255340 83981.48000772 0 -1984.83601932 0 15700.11369985 0 3110.63678990 0 -8154.91116916 0 510
0.02350000 0.02348930 82436.66924902 0 5566.27913283 0 30898.42963891 0 2612.91364465 0 -13846.49580196 0 555
0.02450000 0.02439640 78808.15768270 0 8810.42601539 0 24354.35350135 0 10341.69532084 0 7472.37985036 0 592
0.02550000 0.02547300 74915.90333920 0 -188.44100332 0 21571.87827442 0 11012.85536205 0 11394.97236386 0 837
0.02650000 0.02652900 73571.94455271 0 1360.71121394 0 22532.62389894 0 1047.79402777 0 15258.88155582 0 723
0.02750000 0.02749970 73037.48343372 0 2482.95776826 0 25518.71917928 0 -2075.95018025 0 11929.10131311 0 826
0.02850000 0.02848090 72918.12377217 0 1133.29673449 0 20441.39391044 0 1700.47657332 0 16138.35631617 0 831
0.02950000 0.02946900 68271.06904579 0 1532.67549070 0 22431.09068035 0 175.69343576 0 4634.78659049 0 996
0.03050000 0.03053250 70377.80028903 0 3805.62447412 0 21149.35835934 0 10145.38300180 0 2903.72825601 0 1041
0.03150000 0.03150510 62119.28537655 0 3138.64977169 0 20967.66150907 0 7188.89511803 0 2230.35374984 0 1036
0.03250000 0.03246190 63133.17816019 0 4764.88640711 0 15632.01890221 0 1432.54845736 0 -2532.97145946 0 1059
0.03350000 0.03345080 56453.02315061 0 3655.71626840 0 17310.02972848 0 -2569.20010627 0 6572.83096512 0 1302
0.03450000 0.03451200 53608.32145820 0 5767.74008291 0 16497.43181004 0 -1104.22966737 0 2959.55491775 0 1339
0.03550000 0.03553350 48926.49963188 0 3278.90291017 0 16142.23162986 0 -1571.28468734 0 11433.83622398 0 1365
0.03650000 0.03647120 48726.64416891 0 950.60337498 0 17507.56000324 0 -227.42776624 0 -6019.02649466 0 1308
0.03750000 0.03744890 46643.27553103 0 1374.19730557 0 18087.30693075 0 1872.82838145 0 -2786.80450593 0 1579
0.03850000 0.03847530 46297.48682694 0 1688.39666695 0 17071.19968214 0 -884.24914681 0 -5361.98366760 0 1662
0.03950000 0.03950240 45232.21845614 0 1225.58456185 0 17342.47164020 0 -1483.69152570 0 -6212.98040851 0 1683
0.04050000 0.04050350 42690.67701727 0 898.82364797 0 17624.59447658 0 2602.23992353 0 -2403.63563326 0 1822
0.04150000 0.04152450 45173.20296486 0 -2847.51406291 0 16720.20698539 0 5445.80116648 0 -2805.04062491 0 1887
0.04250000 0.04250150 45981.48267662 0 -1337.83579086 0 15586.95454020 0 3855.84853950 0 -4505.63899380 0 1920
0.04350000 0.04349210 47331.86341150 0 1396.49696775 0 14836.02947100 0 -973.53305245 0 -5340.64729768 0 2005
0.04450000 0.04448520 43659.28399240 0 4319.32498408 0 14235.68801933 0 -1597.83612225 0 231.69393299 0 2151
0.04550000 0.04548030 40072.73653715 0 4350.61537402 0 14986.28091879 0 -1749.61555087 0 2351.59570661 0 2274
0.04650000 0.04648670 37500.19258878 0 2600.57907481 0 16230.14588892 0 1474.61221935 0 -194.75333570 0 2311
0.04750000 0.04749250 35531.97612902 0 893.19337080 0 14424.13898775 0 1872.75087518 0 -2818.86995860 0 2568
0.04850000 0.04851840 37446.27036692 0 -2015.00810445 0 14523.12557163 0 -98.57236821 0 -5704.93785653 0 2493
0.04950000 0.04949480 37600.28640514 0 -1917.70451394 0 14486.47617648 0 -1939.66093406 0 -3517.85475208 0 2644
0.05050000 0.05050630 39535.28589045 0 -921.52634277 0 16099.71390255 0 -1901.67178760 0 -5450.30760268 0 2829
0.05150000 0.05149060 40050.14899452 0 1528.06940357 0 20351.48663291 0 -1721.48077350 0 -6232.20196440 0 2784
0.05250000 0.05249300 39572.59962509 0 2059.75136904 0 18141.11842937 0 -406.83264528 0 -4477.06132345 0 3055
0.05350000 0.05348950 36386.75960502 0 2527.00347639 0 19018.71089449 0 3237.18239025 0 -819.92115408 0 3009
0.05450000 0.05448610 35205.56399337 0 1236.34686157 0 19287.54694109 0 2134.43419994 0 430.95702659 0 3336
0.05550000 0.05550870 34166.20486264 0 210.17597694 0 16759.07084550 0 6689.89865543 0 809.94277495 0 3349
0.05650000 0.05647670 34747.83408536 0 -845.60008979 0 15690.70222375 0 3279.89941940 0 944.60217493 0 3324
0.05750000 0.05747970 33578.59658452 0 29.15177040 0 12583.47570990 0 2372.99851048 0 -19.74782348 0 3639
0.05850000 0.05849280 35422.58155981 0 973.27728174 0 13900.19657733 0 -1150.58063353 0 -106.99109966 0 3846
0.05950000 0.05951020 32767.99168454 0 1510.84086615 0 12474.19186394 0 152.51463098 0 1748.27579956 0 3787
0.06050000 0.06049470 32535.69430985 0 1659.89650286 0 11445.79433478 0 -1516.72027063 0 659.59721240 0 3930
0.06150000 0.06148310 31498.54964409 0 -462.79549661 0 12225.17527876 0 3842.40673717 0 513.13692863 0 4083
0.06250000 0.06249100 32032.56787009 0 -596.62890116 0 13069.32932294 0 780.76166289 0 -3296.86222103 0 4303
0.06350000 0.06350600 31996.58281443 0 -36.07695596 0 9757.20943831 0 1666.86099517 0 -2414.03254626 0 4470
0.06450000 0.06451750 31979.42071096 0 916.69880915 0 9254.08299855 0 215.18177499 0 -2176.49796193 0 4479
0.06550000 0.06550280 30474.58104486 0 905.88889843 0 8514.29668812 0 107.61878975 0 -979.73576881 0 4636
0.06650000 0.06648880 31491.68480270 0 -491.98878822 0 9031.47390807 0 905.84571637 0 -1703.21143755 0 4653
0.06750000 0.06749660 30581.98259560 0 13.14406752 0 7593.27856505 0 764.92270224 0 -959.18664118 0 5220
0.06850000 0.06852730 30449.55759077 0 585.82341936 0 9195.64326816 0 772.90363397 0 -1451.13889073 0 5029
0.06950000 0.06949320 30378.58398868 0 453.54346199 0 7782.23886041 0 1242.72452067 0 -501.12677790 0 5040
0.07050000 0.07048030 29889.18723169 0 163.90805322 0 8571.54060743 0 1425.79433922 0 313.97680765 0 5475
0.07150000 0.07148790 29393.03635657 0 460.15806884 0 7497.77976349 0 1831.27394641 0 703.51780326 0 5509
0.07250000 0.07249820 29297.59291663 0 165.24780452 0 7107.57996456 0 845.53365585 0 595.61689067 0 5916
0.07350000 0.07351270 28632.03547179 0 1092.88717783 0 8397.14041921 0 -618.21882732 0 894.16773538 0 5721
0.07450000 0.07449140 28162.12600648 0 1420.65678051 0 8763.39077956 0 -1587.72708969 0 215.55934127 0 6028
0.07550000 0.07549160 27144.24718590 0 874.20876266 0 9082.04121552 0 -1640.45350048 0 988.44747398 0 6183
0.07650000 0.07648840 26462.19197708 0 518.06079147 0 10613.63161838 0 -1119.85493216 0 1704.59547816 0 6330
0.07750000 0.07749960 26732.91031889 0 274.55379513 0 11339.05712353 0 -34.54454620 0 -397.79984269 0 6583
0.07850000 0.07848650 26006.78725728 0 951.79918606 0 11935.30181501 0 -206.91849898 0 1066.36231649 0 6549
0.07950000 0.07947320 25538.42791746 0 452.94555645 0 10649.46166150 0 1273.19555857 0 -333.95349609 0 6828
0.08050000 0.08048110 24212.40629717 0 506.93199780 0 10302.27784448 0 1873.53701024 0 -102.11595504 0 7147
0.08150000 0.08149960 24595.61945915 0 745.19071218 0 9778.75618241 0 1078.92829793 0 -1323.70750439 0 7386
0.08250000 0.08250610 23288.75296080 0 354.43176084 0 9245.81197191 0 523.16291875 0 794.88109150 0 7227
0.08350000 0.08350160 23268.26915989 0 237.84903836 0 8730.18487743 0 491.37095250 0 727.15500228 0 7798
0.08450000 0.08449610 23159.31748367 0 -0.31204137 0 8490.28081559 0 1559.45944443 0 848.71141307 0 7371
0.08550000 0.08548940 22753.07388608 0 550.44844880 0 8194.89333408 0 842.65374416 0 -20.26335093 0 8256
0.08650000 0.08650700 22427.65825966 0 1100.99544129 0 7481.38165044 0 1019.02037727 0 710.67606125 0 8037
0.08750000 0.08749060 20980.72685236 0 959.72032724 0 7770.35825588 0 449.16546476 0 2429.26806521 0 8155
0.08850000 0.08849210 20576.58699648 0 534.09130335 0 6779.39625694 0 1125.26929899 0 2398.43164059 0 8718
0.08950000 0.08949900 20197.35987144 0 -218.49572181 0 7079.16837908 0 1874.92105084 0 2414.75224737 0 8571
0.09050000 0.09049190 19960.63356681 0 488.82210333 0 6298.41446681 0 1213.83682522 0 1424.29957537 0 8932
0.09150000 0.09150830 19688.14365303 0 420.22683661 0 5896.17905080 0 -410.54187409 0 2364.47282037 0 9285
0.09250000 0.09250820 19134.08451910 0 645.79555951 0 6272.09555072 0 -1187.49576447 0 2241.52572559 0 9204
0.09350000 0.09350330 18988.15127799 0 173.30070636 0 7027.13952475 0 -606.95162958 0 3073.62200803 0 9349
0.09450000 0.09448040 19138.62417228 0 217.98085870 0 7244.54462257 0 -404.79201581 0 2743.25705242 0 9564
0.09550000 0.09549270 18916.51333642 0 273.97581978 0 7492.99651917 0 42.90448361 0 1461.38079119 0 10155
0.09650000 0.09649430 18677.24039709 0 713.62351412 0 7091.10434523 0 144.72967940 0 1159.20597456 0 9913
0.09750000 0.09749140 17961.08242782 0 466.38292985 0 6644.18102625 0 -398.92368366 0 1042.04527673 0 10476
0.09850000 0.09850240 17674.19849176 0 167.49548646 0 6940.84182512 0 360.04985845 0 1364.24328556 0 10575
0.09950000 0.09950330 17488.73705105 0 125.35421820 0 6878.67072126 0 442.24083281 0 -135.32263224 0 10882
0.10050000 0.10051200 17250.34989771 0 36.09378589 0 6090.96338901 0 645.27183855 0 1.59104879 0 10875
0.10150000 0.10150300 17268.17634066 0 225.50007449 0 6432.97643033 0 395.83118334 0 -703.97841197 0 11118
0.10250000 0.10250800 16951.17568111 0 479.01755970 0 6092.51351449 0 138.12503765 0 -30.86787002 0 11575
0.10350000 0.10349800 16700.05535422 0 341.45388892 0 6141.94037248 0 -126.64635851 0 -135.61937054 0 11364
0.10450000 0.10450100 16713.56359050 0 -192.80571376 0 5753.55643481 0 681.86919377 0 591.29093336 0 12093
0.10550000 0.10551000 16768.81449134 0 69.65289518 0 5595.48792570 0 599.25525660 0 -186.32508205 0 12067
0.10650000 0.10649700 16525.00189884 0 402.62848354 0 5474.32347521 0 582.25813077 0 -352.07003396 0 12054
0.10750000 0.10749900 16077.23708317 0 500.83225406 0 5059.66491075 0 648.63228913 0 -372.96793982 0 12807
0.10850000 0.10850100 15866.42001862 0 240.46875041 0 5369.95574147 0 -61.24756124 0 880.92523490 0 12736
0.10950000 0.10950300 15492.50760950 0 307.08982161 0 5517.35052946 0 40.52725547 0 361.42282673 0 12933
0.11050000 0.11050200 15480.10660570 0 281.43303054 0 5710.92798426 0 -81.39265974 0 582.74088414 0 13428
0.11150000 0.11150900 15039.76024766 0 473.45593094 0 6128.23283435 0 -433.45826477 0 249.97212680 0 13453
0.11250000 0.11250000 15018.72283051 0 100.91261478 0 6012.87028207 0 -65.83836856 0 1460.74966867 0 13668
0.11350000 0.11349100 14734.71769891 0 119.08728235 0 5857.07159954 0 667.17954043 0 1316.95338625 0 13791
0.11450000 0.11448600 14991.26346496 0 -145.93988450 0 5835.05981780 0 740.45950778 0 520.60742618 0 14205
0.11550000 0.11549300 14698.62192000 0 209.70983207 0 5647.50570770 0 580.82537194 0 411.18074723 0 14776
0.11650000 0.11649800 14636.72762426 0 236.19040410 0 5406.77122149 0 553.99269998 0 1415.39742622 0 14553
0.11750000 0.11747300 14340.87510511 0 58.38171141 0 5198.48971933 0 369.22549403 0 806.35866341 0 14568
0.11850000 0.11849100 14250.74638109 0 202.39656152 0 4978.12831079 0 195.64465785 0 656.74276706 0 16015
0.11950000 0.11950300 14197.70994521 0 213.48992376 0 4999.89650138 0 552.27870409 0 618.91195485 0 15270
0.12050000 0.12050700 14026.97469650 0 3.90901784 0 3991.14127645 0 345.10554165 0 1015.14617081 0 15999
0.12150000 0.12150000 14002.94775165 0 -150.29352262 0 3925.84777700 0 747.70523714 0 1359.28288404 0 15670
0.12250000 0.12250700 14258.60773171 0 -245.11026898 0 3429.60832328 0 648.06427887 0 178.88669424 0 16887
0.12350000 0.12352200 14204.90695634 0 295.27565103 0 2995.09708042 0 321.13063672 0 507.22762887 0 16407
0.12450000 0.12449800 13813.05738101 0 441.97841872 0 3323.21435409 0 -655.61117546 0 300.71216252 0 16306
0.12550000 0.12549900 13566.69815379 0 412.76187522 0 3428.39036755 0 -800.54569288 0 221.24276560 0 17523
0.12650000 0.12650100 13170.53037178 0 321.01437730 0 3793.36741054 0 -289.55900973 0 -395.80239529 0 17154
0.12750000 0.12750600 12989.05496800 0 443.79317275 0 4182.72571279 0 -542.18074386 0 -379.89921516 0 18007
0.12850000 0.12850300 12807.13667123 0 162.85839683 0 4101.74272907 0 -252.06258173 0 -128.52422480 0 17496
0.12950000 0.12949900 12555.24128161 0 -61.75101985 0 4112.70433064 0 641.31016073 0 -145.14821328 0 18405
0.13050000 0.13049000 12555.46272810 0 39.65475628 0 3960.94704667 0 494.61071474 0 -303.41934594 0 18100
0.13150000 0.13148800 12746.23888473 0 240.31484510 0 3570.91333261 0 781.32635146 0 -432.16391000 0 19059
0.13250000 0.13249300 12136.37523372 0 155.10223329 0 3421.61410476 0 345.44324755 0 -54.50052939 0 18957
0.13350000 0.13349100 12200.48399442 0 285.11679301 0 3413.40951207 0 40.16452611 0 -88.38450070 0 19468
0.13450000 0.13450700 11938.40206596 0 260.19298984 0 3233.83854816 0 8.60902043 0 -305.01486794 0 19953
0.13550000 0.13551000 11677.87026298 0 233.35588895 0 3379.22924535 0 -137.86151632 0 -194.97478220 0 19956
0.13650000 0.13649900 11436.60430518 0 254.89931135 0 3187.50086879 0 37.56574075 0 -30.19589063 0 19723
0.13750000 0.13749600 11343.26460696 0 83.21638236 0 3107.59190058 0 352.23722606 0 -416.34377230 0 20946
0.13850000 0.13851100 11290.11744783 0 -48.85109710 0 2924.89854107 0 500.18452305 0 -546.86323003 0 20955
0.13950000 0.13949800 11347.25064389 0 78.43778842 0 2636.87415556 0 187.59175601 0 -424.73770174 0 20506
0.14050000 0.14048300 11297.09301246 0 112.93549869 0 2956.75361957 0 -75.44859289 0 -158.24123738 0 21447
0.14150000 0.14148400 11163.00715891 0 164.66982917 0 3037.89161584 0 -104.19013365 0 263.59108633 0 21771
0.14250000 0.14249400 11218.03661326 0 269.75615679 0 3328.89445673 0 -445.92127358 0 296.46149702 0 22470
0.14350000 0.14350900 10936.16844035 0 169.79742279 0 3529.43640384 0 -125.72735555 0 248.23820074 0 22519
0.14450000 0.14449900 10864.88481317 0 116.26716122 0 3705.43100683 0 93.59170433 0 662.00322858 0 22218
0.14550000 0.14550500 10909.38448662 0 174.09791375 0 3904.35639453 0 175.48195435 0 791.58596763 0 23559
0.14650000 0.14650700 10753.76296129 0 120.31077425 0 3741.62643667 0 709.34184611 0 1001.23490191 0 23044
0.14750000 0.14750500 10486.46596784 0 83.16888209 0 3440.69172042 0 379.03003766 0 1219.30655368 0 23649
0.14850000 0.14849900 10408.72717529 0 247.59932759 0 3275.53692342 0 335.50362156 0 988.45079568 0 23640
0.14950000 0.14949500 10244.00419896 0 172.57546909 0 3461.55198038 0 119.61543225 0 1278.95316748 0 24457
0.15050000 0.15050000 10095.75684197 0 205.67175520 0 3466.20235680 0 -227.80201082 0 1175.39371345 0 24591
0.15150000 0.15149900 9932.19645975 0 178.90994612 0 3443.78089904 0 -360.56139986 0 967.31372760 0 25020
0.15250000 0.15250500 9880.33369029 0 143.97454685 0 3560.05138196 0 -6.59945991 0 785.44525629 0 25297
0.15350000 0.15350100 9920.23834894 0 132.72838653 0 3633.11765344 0 106.07353610 0 647.07662749 0 25452
0.15450000 0.15450400 9608.15380160 0 243.59889664 0 3397.75324477 0 20.09593738 0 575.70442171 0 26061
0.15550000 0.15549900 9605.40786505 0 196.46068819 0 3457.98669179 0 198.40941736 0 650.37396583 0 26128
0.15650000 0.15649500 9184.96954703 0 132.96201258 0 3184.65528131 0 610.26668363 0 768.28647452 0 26331
0.15750000 0.15749700 9152.94838366 0 205.19453800 0 3016.35594407 0 359.50177837 0 619.17215449 0 27345
0.15850000 0.15849900 8973.46599835 0 147.09915691 0 2636.36482862 0 358.31482515 0 617.69067743 0 26980
0.15950000 0.15949700 8888.77378581 0 -61.87525134 0 2644.00473274 0 66.87927782 0 1103.11025533 0 27777
0.16050000 0.16050000 8848.30443860 0 -54.94585830 0 2361.94833031 0 291.98938503 0 609.93229942 0 28224
0.16150000 0.16150500 9050.64010233 0 -69.59664777 0 2579.10983698 0 17.33937139 0 490.86605449 0 28075
0.16250000 0.16249700 8895.89329067 0 130.48291906 0 2138.07699481 0 107.95882085 0 414.11712777 0 28590
0.16350000 0.16349900 8947.22458853 0 142.93596278 0 2383.11861537 0 -121.08583698 0 332.63256774 0 29163
0.16450000 0.16449100 8742.53051961 0 175.12653273 0 2281.79577095 0 55.16719407 0 416.17879466 0 28996
0.16550000 0.16550500 8613.56008012 0 297.15794625 0 2311.65783099 0 11.68351715 0 177.06418957 0 30777
0.16650000 0.16650700 8369.06100347 0 113.24441655 0 2230.70806424 0 -4.19775086 0 357.01493422 0 29211
0.16750000 0.16749900 8315.86955504 0 52.53596680 0 2361.05147200 0 39.27298252 0 101.11468471 0 30922
0.16850000 0.16850800 8371.62978283 0 28.78272981 0 2431.43824088 0 52.99170369 0 148.68028490 0 30867
0.16950000 0.16949900 8388.61472910 0 -75.80899706 0 2176.70833610 0 211.38064588 0 304.75799001 0 30852
0.17050000 0.17049200 8333.09809246 0 -18.64446632 0 2104.28425946 0 166.91751111 0 483.19736232 0 31257
0.17150000 0.17149500 8516.67723796 0 6.14034596 0 1985.76609460 0 275.33328680 0 274.51725646 0 32608
0.17250000 0.17250900 8340.36153754 0 87.20518738 0 1879.77072911 0 197.66646436 0 142.40338396 0 32361
0.17350000 0.17350400 8292.66196222 0 205.18457291 0 1750.20238408 0 -36.78348100 0 400.64100124 0 32508
0.17450000 0.17449800 8162.48463933 0 181.11887492 0 2044.48263311 0 -69.66684631 0 406.78724874 0 32791
0.17550000 0.17549800 8020.30491634 0 173.76463677 0 1977.69436981 0 -198.88331286 0 252.37592852 0 33633
0.17650000 0.17650100 7847.06732222 0 313.47744580 0 2211.26506186 0 -125.08516071 0 293.48414888 0 33984
0.17750000 0.17750300 7637.96646802 0 200.69142350 0 2248.43485627 0 -110.15889179 0 445.85373240 0 34069
0.17850000 0.17849800 7615.34570842 0 -109.65432595 0 2208.38625740 0 253.79761503 0 272.83979925 0 34536
