### header ###
fiducial parameters:
Omega_m = 0.31
Omega_nu = 0
Omega_de = 0.69
Omega_k = 0
H_0 = 100
w_de = -1
zeff = 0
beta = 0
fgrowth = 0
b_1 = 2
gamma = 0.55
Lx = 3500 Ly = 3500 Lz = 3500
nx = 700 ny = 700 nz = 700
xoffset = -685.467585 yoffset = -31.7331281 zoffset = 572.489161
bins = 400 dk = 0.001
kx_ny = 0.628318531 ky_ny = 0.628318531 kz_ny = 0.628318531
############################
A(data) = 7.99992773 (not used)
A(ran) = 7.99531824 (used)
Ngal = 475504
weighted Ngal = 0
Nran = 23820508
weighted Nran = 0
SN(data) = 3492.7439
SN(ran) = 69.6421216
SN(data+ran) = 3562.38603
############################
13 columns: k_central k_mean P_0(k) sigma^{lin}_{P_0(k)} P^img_1(k) sigma^{lin}_{P_1(k)} P_2(k) sigma^{lin}_{P_2(k)} P^img_3(k) sigma^{lin}_{P_3(k)} P_4(k) sigma^{lin}_{P_4(k)} N_modes
### header ###
0.00050000 0 0 0 0 0 0 0 0 0 0 0 0
0.00150000 0.00179520 63798.95705154 0 -37587.99612460 0 40140.38844179 0 65747.90766611 0 -162564.98021985 0 3
0.00250000 0.00253879 124464.00328640 0 -32596.48137310 0 65023.55617648 0 -52473.07599454 0 147340.53359421 0 6
0.00350000 0.00331552 110994.52014452 0 11983.02353498 0 30285.79790670 0 -79291.02176804 0 15027.80213686 0 7
0.00450000 0.00420575 95357.74014263 0 51726.46913202 0 50983.51613669 0 -58999.87930539 0 89438.14312484 0 24
0.00550000 0.00557378 64959.66886228 0 10821.83561427 0 85773.53577961 0 -9954.28574776 0 39189.71863286 0 45
0.00650000 0.00659388 75217.51346726 0 -8254.76139437 0 119268.86848149 0 58643.12899973 0 -16444.50609741 0 40
0.00750000 0.00754703 82115.01821304 0 -9525.52104148 0 94673.91336184 0 40695.22263845 0 -35655.87544374 0 57
0.00850000 0.00846663 94738.13284578 0 -4221.13560759 0 99566.99514569 0 37172.78394390 0 -27576.73219332 0 75
0.00950000 0.00948925 98597.61310782 0 2434.36133463 0 84080.02369860 0 10787.14602062 0 -11434.16839372 0 112
0.01050000 0.01054430 88050.89154831 0 12051.22905586 0 53267.18313054 0 33472.08081976 0 -10446.82704499 0 105
0.01150000 0.01145670 88690.31830659 0 7430.01713560 0 54899.35453205 0 28034.24065483 0 11820.14963690 0 144
0.01250000 0.01249090 84373.99392254 0 -1792.73118371 0 28880.71988721 0 30914.15234016 0 -18401.53950910 0 169
0.01350000 0.01339930 91334.16802679 0 -1007.01465547 0 18781.65242013 0 28226.45621368 0 -40925.30554818 0 180
0.01450000 0.01448870 90372.86878603 0 -6772.01101628 0 1574.06384087 0 6913.41567654 0 -16098.71739332 0 267
0.01550000 0.01550050 90757.52135023 0 956.32887414 0 1429.34855549 0 -17071.53185189 0 -6502.44419625 0 238
0.01650000 0.01653350 91918.01171447 0 4694.36677034 0 -4306.02712197 0 -2230.75235354 0 -1250.85160709 0 315
0.01750000 0.01747870 84534.98552540 0 2590.76899502 0 4080.37314217 0 2737.62123909 0 -15165.98475060 0 297
0.01850000 0.01844180 89499.70525083 0 2414.58616250 0 2888.90241308 0 -228.12532270 0 -14967.01507361 0 388
0.01950000 0.01947590 82733.96117040 0 -252.90075672 0 -3984.43144761 0 1132.75419057 0 -9127.86956794 0 399
0.02050000 0.02045430 85005.78077669 0 -1795.79821769 0 -2932.85954261 0 -5600.34867630 0 -4363.69178963 0 462
0.02150000 0.02154770 93161.87668460 0 -4290.28227608 0 1895.84774475 0 -13616.52361547 0 -16191.06058231 0 571
0.02250000 0.02255340 89408.80146407 0 -594.94369332 0 15444.78588953 0 -5469.29663974 0 -26198.67064639 0 510
0.02350000 0.02348930 88671.60607765 0 8796.87348982 0 21970.48196790 0 -13427.62975407 0 -24139.66112312 0 555
0.02450000 0.02439640 78521.49519315 0 12565.09565070 0 20615.78302633 0 -3178.55443034 0 -11401.50503550 0 592
0.02550000 0.02547300 72222.11743407 0 11707.76553999 0 27807.14727280 0 -602.82940305 0 -8696.23712954 0 837
0.02650000 0.02652900 59319.42659966 0 5746.66944878 0 19893.31383192 0 8542.98508172 0 -8569.70260151 0 723
0.02750000 0.02749970 59521.60725085 0 2374.24968319 0 21832.85297040 0 9984.57962846 0 -9212.47320188 0 826
0.02850000 0.02848090 54160.60902015 0 2817.12053128 0 14440.52602848 0 2509.43169690 0 -4885.81833878 0 831
0.02950000 0.02946900 53080.61445734 0 -1269.98458437 0 14715.23040723 0 3122.92707045 0 -10125.61890200 0 996
0.03050000 0.03053250 57244.36220539 0 -3027.81580026 0 17804.29830838 0 -4448.20684497 0 -12828.61698138 0 1041
0.03150000 0.03150510 55183.02749391 0 -253.21963967 0 20348.27565872 0 -7486.60778775 0 -11445.46216503 0 1036
0.03250000 0.03246190 60093.04993474 0 3475.43667570 0 16279.19628786 0 -3412.62337700 0 -9897.42935981 0 1059
0.03350000 0.03345080 56275.42306051 0 -658.36154095 0 17863.42452291 0 -4651.15148657 0 -5306.97635790 0 1302
0.03450000 0.03451200 59928.40446468 0 -1932.55250152 0 24823.04501092 0 7168.54418501 0 -16802.25291230 0 1339
0.03550000 0.03553350 58049.87383595 0 1348.07769132 0 21994.28746626 0 5107.02124400 0 -14419.59933457 0 1365
0.03650000 0.03647120 56674.58037023 0 5502.49146955 0 16701.93764944 0 4616.01899992 0 -19357.41331069 0 1308
0.03750000 0.03744890 50088.65084485 0 5376.93130611 0 18148.64761024 0 -198.19572149 0 -741.83469052 0 1579
0.03850000 0.03847530 46971.12706891 0 3716.60298258 0 16242.10399972 0 8954.78698638 0 2627.55125806 0 1662
0.03950000 0.03950240 44243.34912659 0 -1233.31304457 0 13868.30828185 0 6779.52912483 0 8018.12366835 0 1683
0.04050000 0.04050350 45753.61423185 0 -925.64967654 0 8289.25168618 0 10175.06790464 0 5084.10153163 0 1822
0.04150000 0.04152450 46869.04023408 0 -239.20761261 0 9165.01721771 0 3800.81908515 0 9641.58115023 0 1887
0.04250000 0.04250150 44989.95598911 0 1974.06264727 0 6837.31558806 0 673.74764352 0 10855.82765147 0 1920
0.04350000 0.04349210 44393.04695814 0 2133.16088259 0 9224.49774664 0 -2158.07361343 0 12387.16339086 0 2005
0.04450000 0.04448520 42243.35509460 0 772.03999263 0 8072.16768579 0 -1241.91624096 0 12594.76948121 0 2151
0.04550000 0.04548030 42015.37592658 0 1983.05337502 0 13719.60695954 0 -4848.33851926 0 3810.40771844 0 2274
0.04650000 0.04648670 41375.72772181 0 47.54179469 0 15922.22453571 0 -3971.48789990 0 1713.08795129 0 2311
0.04750000 0.04749250 40980.22427928 0 896.85941754 0 16487.02382471 0 -4765.98256726 0 1196.11003318 0 2568
0.04850000 0.04851840 40607.41910264 0 1829.19234934 0 18849.85794101 0 -1751.37605051 0 1707.91717560 0 2493
0.04950000 0.04949480 40032.76544455 0 462.33599513 0 20616.22591933 0 -727.69643896 0 1482.15247255 0 2644
0.05050000 0.05050630 40353.19852480 0 158.42725244 0 18519.23832192 0 2021.74007794 0 -1243.58816201 0 2829
0.05150000 0.05149060 39185.62187268 0 497.61574370 0 17943.58815460 0 812.38975873 0 -4974.15334618 0 2784
0.05250000 0.05249300 38649.49990496 0 1750.15809478 0 18078.44907089 0 100.82879728 0 -3726.55700259 0 3055
0.05350000 0.05348950 37810.99274644 0 595.80179849 0 19300.16939138 0 1759.10453324 0 -4280.11788190 0 3009
0.05450000 0.05448610 35710.90489809 0 1107.86360438 0 16652.66580400 0 2939.18184008 0 -5034.82968618 0 3336
0.05550000 0.05550870 35846.65160037 0 242.24475131 0 15458.84774205 0 2271.45421957 0 -4271.59219179 0 3349
0.05650000 0.05647670 36109.61931481 0 299.93488531 0 15250.24514247 0 2450.28333772 0 -7297.58105845 0 3324
0.05750000 0.05747970 34853.13189439 0 1412.62934501 0 14138.03011443 0 -114.87204830 0 -4767.51054809 0 3639
0.05850000 0.05849280 34206.84029473 0 899.86776820 0 11194.12039165 0 1529.22092535 0 -4277.67089811 0 3846
0.05950000 0.05951020 33475.62396370 0 64.70035502 0 12465.99834357 0 -575.51508496 0 -3384.00141735 0 3787
0.06050000 0.06049470 32682.18116720 0 1850.01939232 0 11409.25566288 0 2306.29882578 0 -3990.34406907 0 3930
0.06150000 0.06148310 31918.52292446 0 1145.32127924 0 13314.80276417 0 1245.37080630 0 -2963.45237609 0 4083
0.06250000 0.06249100 30834.32087821 0 -491.75737664 0 11428.41078481 0 1713.68585683 0 -263.48922094 0 4303
0.06350000 0.06350600 31673.71382272 0 -810.79091503 0 11016.52030156 0 1685.31856065 0 -1789.83023461 0 4470
0.06450000 0.06451750 31995.91847494 0 860.40268084 0 11247.37827403 0 1217.70106658 0 -353.05879256 0 4479
0.06550000 0.06550280 31685.78265677 0 678.09906717 0 11896.65940139 0 -878.93110920 0 2020.56641151 0 4636
0.06650000 0.06648880 30637.34421969 0 849.61823647 0 11378.91749287 0 -620.57280358 0 1032.89067857 0 4653
0.06750000 0.06749660 30130.67463599 0 721.85246592 0 12849.87584503 0 -19.24104318 0 745.71775484 0 5220
0.06850000 0.06852730 29282.64527813 0 872.41947497 0 13107.52884356 0 -664.26087561 0 1081.91118224 0 5029
0.06950000 0.06949320 28263.88067157 0 592.40591647 0 11879.49729793 0 1073.53496851 0 289.20026640 0 5040
0.07050000 0.07048030 28900.65007189 0 -380.31332010 0 12623.88969548 0 933.49663314 0 1740.40337662 0 5475
0.07150000 0.07148790 28238.96794072 0 307.43306368 0 12721.10470739 0 907.09910354 0 867.38378164 0 5509
0.07250000 0.07249820 28340.39043606 0 770.65484479 0 12180.66453299 0 889.94364346 0 2398.45378524 0 5916
0.07350000 0.07351270 27291.39838274 0 942.54825867 0 11973.27988914 0 2073.81322156 0 2120.44985369 0 5721
0.07450000 0.07449140 27118.00577608 0 424.62144233 0 12578.82533347 0 1732.61953227 0 2828.94577419 0 6028
0.07550000 0.07549160 26404.28371827 0 258.21768710 0 11409.14493963 0 -105.73516586 0 1308.02909245 0 6183
0.07650000 0.07648840 26960.88948691 0 219.27964241 0 12264.14986213 0 -491.84595523 0 2641.43595339 0 6330
0.07750000 0.07749960 26479.57552704 0 -150.48839554 0 11926.99757140 0 -159.88215592 0 2635.68941681 0 6583
0.07850000 0.07848650 26710.87639250 0 -199.56979700 0 10464.69777725 0 612.99269000 0 2387.13786928 0 6549
0.07950000 0.07947320 27583.48631146 0 115.06027782 0 11453.43423890 0 1352.91629727 0 1248.45998493 0 6828
0.08050000 0.08048110 26914.49644592 0 59.21900061 0 11422.43172941 0 730.50880947 0 1735.70871090 0 7147
0.08150000 0.08149960 26480.90420602 0 1189.06803460 0 10794.61983987 0 1552.24028865 0 1657.67096557 0 7386
0.08250000 0.08250610 25050.24911620 0 1633.10147680 0 10650.49138771 0 299.74001240 0 3010.22187612 0 7227
0.08350000 0.08350160 24401.07871208 0 1163.38024102 0 11884.70129059 0 1004.37944216 0 3705.43100683 0 7798
0.08450000 0.08449610 23138.61223626 0 508.79436283 0 10674.96122555 0 453.95756694 0 4443.54539622 0 7371
0.08550000 0.08548940 23062.43464151 0 374.09842418 0 10848.01059015 0 1615.47433569 0 5034.27606994 0 8256
0.08650000 0.08650700 22887.15973963 0 69.34696685 0 9855.26594691 0 1213.37178758 0 3714.46602389 0 8037
0.08750000 0.08749060 22356.57393432 0 -29.29482484 0 9229.51350978 0 1309.23597586 0 3705.49744078 0 8155
0.08850000 0.08849210 22118.74039722 0 542.64578150 0 8076.90664081 0 921.57173931 0 2664.21172554 0 8718
0.08950000 0.08949900 21295.95593994 0 1205.15612256 0 7315.01997004 0 467.35729443 0 2912.86292399 0 8571
0.09050000 0.09049190 20813.53474759 0 787.98967653 0 7479.77616334 0 -199.47014607 0 1628.25179853 0 8932
0.09150000 0.09150830 19505.56101677 0 851.58689582 0 7179.64972680 0 96.73403012 0 2400.79004578 0 9285
0.09250000 0.09250820 19504.67523078 0 391.36128581 0 7326.53518785 0 -240.41892495 0 1377.25326722 0 9204
0.09350000 0.09350330 19076.28698355 0 258.02502864 0 7421.28107132 0 128.60173107 0 494.18110854 0 9349
0.09450000 0.09448040 18845.42901108 0 196.66109727 0 8191.70450453 0 -526.20670084 0 811.95683083 0 9564
0.09550000 0.09549270 18404.86120655 0 234.22174475 0 7475.30294411 0 355.16585598 0 581.83738243 0 10155
0.09650000 0.09649430 18604.27377653 0 449.71243760 0 8227.41275207 0 528.30158470 0 1436.71165149 0 9913
0.09750000 0.09749140 18116.42714502 0 266.98253942 0 7529.53519107 0 409.97386383 0 669.32757145 0 10476
0.09850000 0.09850240 17854.89883280 0 39.63261163 0 7367.85710407 0 1260.26308318 0 1133.65104888 0 10575
0.09950000 0.09950330 17688.59251403 0 139.17137234 0 6868.65026730 0 318.29722879 0 1091.84970099 0 10882
0.10050000 0.10051200 17778.83196130 0 7.07470623 0 6362.02497290 0 1290.09192624 0 398.65462617 0 10875
0.10150000 0.10150300 17307.48309377 0 137.39094251 0 5943.46895010 0 554.16542824 0 867.65394637 0 11118
0.10250000 0.10250800 17084.04357893 0 403.82540186 0 4780.71983160 0 340.25032721 0 -660.92146245 0 11575
0.10350000 0.10349800 16748.33069043 0 321.95663215 0 4804.72463180 0 137.22153594 0 601.98015574 0 11364
0.10450000 0.10450100 16471.96546296 0 234.46865759 0 4954.30066778 0 -103.65367951 0 233.99365486 0 12093
0.10550000 0.10551000 16414.72154364 0 324.83322213 0 4692.25195630 0 -373.59795510 0 -237.44157681 0 12067
0.10650000 0.10649700 16218.07705486 0 142.98246655 0 4441.02090616 0 202.93024758 0 -307.06324803 0 12054
0.10750000 0.10749900 15769.31572996 0 376.22209608 0 4826.16065265 0 419.40194841 0 25.87214779 0 12807
0.10850000 0.10850100 15975.48241809 0 226.67816985 0 4949.43991718 0 394.14376103 0 -253.45769466 0 12736
0.10950000 0.10950300 15515.87021487 0 -34.37790771 0 4983.14407393 0 106.86354648 0 -443.28716751 0 12933
0.11050000 0.11050200 15350.78185182 0 416.34045060 0 4549.76220820 0 405.21830032 0 -321.72522056 0 13428
0.11150000 0.11150900 15083.27448420 0 494.86316375 0 4459.30131444 0 -240.43442620 0 -1034.45630530 0 13453
0.11250000 0.11250000 14574.39043554 0 435.07814589 0 4324.31860257 0 166.71045863 0 -181.43554341 0 13668
0.11350000 0.11349100 14382.83921617 0 283.53677226 0 4340.45097983 0 182.46305515 0 -260.20406217 0 13791
0.11450000 0.11448600 14121.64307370 0 119.00423992 0 4436.95736295 0 73.06726799 0 -125.01097613 0 14205
0.11550000 0.11549300 14343.97535606 0 133.73264639 0 4530.59601394 0 209.67218616 0 -582.09868930 0 14776
0.11650000 0.11649800 13903.29682828 0 399.49944455 0 4759.84849931 0 508.27396357 0 691.87303925 0 14553
0.11750000 0.11747300 13632.79993296 0 413.87021493 0 4760.21388603 0 339.44315473 0 1114.63986717 0 14568
0.11850000 0.11849100 13500.81782112 0 -111.49720369 0 4498.39769337 0 805.31232871 0 1205.92011297 0 16015
0.11950000 0.11950300 13474.79785780 0 -141.07691944 0 4098.91928624 0 617.25553506 0 1610.76859764 0 15270
0.12050000 0.12050700 13631.36053073 0 92.00083270 0 4054.64105929 0 577.08181892 0 1472.35346508 0 15999
0.12150000 0.12150000 13458.07864732 0 102.85702574 0 3803.09998406 0 -169.78081430 0 1472.85171970 0 15670
0.12250000 0.12250700 13524.06970324 0 10.37814541 0 3362.15572048 0 -58.82936550 0 1433.34566475 0 16887
0.12350000 0.12352200 13315.13493391 0 83.90530241 0 3639.79426531 0 -85.25236145 0 1153.61445053 0 16407
0.12450000 0.12449800 13270.73491139 0 244.25327103 0 3483.56376212 0 15.42651655 0 868.02265479 0 16306
0.12550000 0.12549900 13177.61665966 0 373.62563591 0 4078.70122112 0 -286.19191575 0 280.45977319 0 17523
0.12650000 0.12650100 12778.90224294 0 415.60192653 0 4060.69762096 0 -472.78716252 0 572.57981165 0 17154
0.12750000 0.12750600 12643.37698716 0 388.50130431 0 4083.46232079 0 101.28785587 0 603.39852055 0 18007
0.12850000 0.12850300 12290.50199519 0 12.34409205 0 3954.29257946 0 158.76938727 0 402.76688760 0 17496
0.12950000 0.12949900 12519.14550270 0 -318.57071522 0 3768.27752250 0 781.62751869 0 353.37435382 0 18405
0.13050000 0.13049000 12619.35004231 0 -283.69842820 0 3408.37160427 0 608.48957550 0 311.37481132 0 18100
0.13150000 0.13148800 12853.97260521 0 125.25235281 0 3178.74265986 0 315.61772619 0 -421.36507160 0 19059
0.13250000 0.13249300 12492.23975339 0 134.77676662 0 2999.40421477 0 152.32086530 0 313.70775016 0 18957
0.13350000 0.13349100 12472.42029196 0 554.84748345 0 3328.66193790 0 -518.39628292 0 277.48353228 0 19468
0.13450000 0.13450700 12240.56581026 0 196.98330192 0 3749.11132824 0 -622.89134839 0 604.13925908 0 19953
0.13550000 0.13551000 11923.67587395 0 78.51474108 0 4338.79013111 0 -181.48869057 0 489.79536068 0 19956
0.13650000 0.13649900 12055.43653929 0 73.62464882 0 4425.54179606 0 39.64623059 0 635.01554407 0 19723
0.13750000 0.13749600 12161.50941106 0 -33.04479981 0 4278.16915273 0 269.77165804 0 691.90847068 0 20946
0.13850000 0.13851100 11984.90583020 0 86.30533954 0 4148.74474792 0 445.25361240 0 859.31980748 0 20955
0.13950000 0.13949800 12015.13327695 0 243.69522586 0 3669.96635044 0 627.41217862 0 322.54014366 0 20506
0.14050000 0.14048300 11598.37097078 0 189.85161750 0 3416.34367814 0 233.94272216 0 99.67162862 0 21447
0.14150000 0.14148400 11390.21126419 0 304.52436395 0 3259.34918454 0 394.43053425 0 -26.74520060 0 21771
0.14250000 0.14249400 11135.21562362 0 397.16207678 0 3070.06779177 0 -316.35403579 0 135.44885674 0 22470
0.14350000 0.14350900 10803.25625323 0 345.03357153 0 3123.97894131 0 -80.13484364 0 362.76368527 0 22519
0.14450000 0.14449900 10639.78444961 0 188.24613040 0 3447.43476623 0 42.51141608 0 631.45579164 0 22218
0.14550000 0.14550500 10449.55083690 0 131.06310888 0 3049.66149712 0 374.07738677 0 498.27676149 0 23559
0.14650000 0.14650700 10430.27391939 0 7.10331712 0 3231.64622784 0 274.48514672 0 366.79179703 0 23044
0.14750000 0.14750500 10497.29470151 0 84.57252071 0 2945.42663128 0 213.17104080 0 30.96829601 0 23649
0.14850000 0.14849900 10270.63314015 0 85.64908285 0 3101.59070052 0 -66.51710207 0 119.10167638 0 23640
0.14950000 0.14949500 10298.32502452 0 108.82157640 0 2700.42930002 0 -23.00696229 0 -80.19917385 0 24457
0.15050000 0.15050000 10228.15970215 0 101.63585904 0 2815.33788699 0 -23.21777936 0 -298.99263047 0 24591
0.15150000 0.15149900 10180.34940358 0 122.96370327 0 2702.62162033 0 30.07210204 0 -7.44383540 0 25020
0.15250000 0.15250500 10028.41496242 0 100.23520995 0 2818.23883609 0 385.93473941 0 429.84204348 0 25297
0.15350000 0.15350100 10021.46154243 0 134.42909562 0 2438.72383061 0 428.05497026 0 316.11265911 0 25452
0.15450000 0.15450400 9864.31203628 0 83.51035259 0 2545.68248835 0 176.39320669 0 257.15695838 0 26061
0.15550000 0.15549900 9725.44293841 0 125.84915112 0 2335.21973820 0 106.13332666 0 573.16775210 0 26128
0.15650000 0.15649500 9633.36548522 0 135.31266714 0 2405.00860153 0 10.77825494 0 491.30562578 0 26331
0.15750000 0.15749700 9483.68979832 0 196.58580546 0 2496.79817428 0 -173.07040201 0 417.20187747 0 27345
0.15850000 0.15849900 9324.70228625 0 84.50066132 0 2256.36264084 0 -20.97076176 0 217.85574143 0 26980
0.15950000 0.15949700 9399.13045368 0 -23.72876715 0 2539.27161228 0 186.43691253 0 -5.05391837 0 27777
0.16050000 0.16050000 9312.29021012 0 40.10539990 0 2574.44838823 0 2.21091075 0 21.90703755 0 28224
0.16150000 0.16150500 9245.30264497 0 237.63534249 0 2601.94097076 0 180.36263513 0 42.03752058 0 28075
0.16250000 0.16249700 9124.53679817 0 179.33844509 0 2705.50042479 0 -110.64884216 0 514.37370731 0 28590
0.16350000 0.16349900 8936.01939581 0 209.50277959 0 2736.54722358 0 245.79232418 0 963.85916225 0 29163
0.16450000 0.16449100 8824.88647161 0 240.16869041 0 2798.66296581 0 348.53242618 0 910.40087080 0 28996
0.16550000 0.16550500 8733.71694905 0 93.05226067 0 2641.75705081 0 251.02621213 0 897.65994663 0 30777
0.16650000 0.16650700 8490.23652629 0 100.45853874 0 2542.17256139 0 29.58569481 0 999.63052204 0 29211
0.16750000 0.16749900 8417.51349688 0 224.85123625 0 2232.98896315 0 231.18903498 0 614.01023666 0 30922
0.16850000 0.16850800 8295.06465671 0 54.16149481 0 2085.48345192 0 89.61164645 0 545.23449104 0 30867
0.16950000 0.16949900 8252.82373753 0 -49.92311959 0 1664.38079441 0 277.09157198 0 192.89650683 0 30852
0.17050000 0.17049200 8245.40527990 0 -69.08853879 0 1655.03575227 0 155.24285182 0 -55.53855984 0 31257
0.17150000 0.17149500 8341.59056560 0 118.95995062 0 1580.24219812 0 -151.19370263 0 -293.39114135 0 32608
0.17250000 0.17250900 8240.67739720 0 125.08405348 0 1738.31070723 0 -470.05894169 0 -470.02572471 0 32361
0.17350000 0.17350400 8120.88591499 0 232.25087093 0 1976.44319710 0 -519.76925119 0 -113.14587286 0 32508
0.17450000 0.17449800 8023.29444404 0 153.60304051 0 2316.10890556 0 -187.92281852 0 -194.72454766 0 32791
0.17550000 0.17549800 7972.04065245 0 -15.13653237 0 2213.11414010 0 178.11052427 0 -276.94984622 0 33633
0.17650000 0.17650100 7935.52412520 0 65.78012813 0 2124.96736222 0 158.77713790 0 -541.54519242 0 33984
0.17750000 0.17750300 8028.67559390 0 27.55303742 0 2116.64097396 0 259.98483014 0 -350.60184368 0 34069
