### header ###
fiducial parameters:
Omega_m = 0.31
Omega_nu = 0
Omega_de = 0.69
Omega_k = 0
H_0 = 100
w_de = -1
zeff = 0
beta = 0
fgrowth = 0
b_1 = 2
gamma = 0.55
Lx = 3500 Ly = 3500 Lz = 3500
nx = 700 ny = 700 nz = 700
xoffset = -685.467585 yoffset = -31.7331281 zoffset = 572.489161
bins = 400 dk = 0.001
kx_ny = 0.628318531 ky_ny = 0.628318531 kz_ny = 0.628318531
############################
A(data) = 7.95248857 (not used)
A(ran) = 7.95400626 (used)
Ngal = 472574
weighted Ngal = 0
Nran = 23820508
weighted Nran = 0
SN(data) = 3481.62907
SN(ran) = 69.2822792
SN(data+ran) = 3550.91135
############################
13 columns: k_central k_mean P_0(k) sigma^{lin}_{P_0(k)} P^img_1(k) sigma^{lin}_{P_1(k)} P_2(k) sigma^{lin}_{P_2(k)} P^img_3(k) sigma^{lin}_{P_3(k)} P_4(k) sigma^{lin}_{P_4(k)} N_modes
### header ###
0.00050000 0 0 0 0 0 0 0 0 0 0 0 0
0.00150000 0.00179520 49624.38826520 0 -43556.97571108 0 96159.93007575 0 -101703.95383569 0 5210.34817921 0 3
0.00250000 0.00253879 85710.86642114 0 -34091.24522362 0 14357.92648533 0 -5120.82843305 0 23889.75875196 0 6
0.00350000 0.00331552 97499.68137880 0 -6051.72306985 0 41656.07898621 0 -37850.52094605 0 41475.93226142 0 7
0.00450000 0.00420575 94485.24094693 0 21005.30741345 0 37225.59893328 0 -49876.94799432 0 45853.92949471 0 24
0.00550000 0.00557378 88774.80014496 0 9016.36018470 0 86583.58706335 0 -1461.13720004 0 41994.33850942 0 45
0.00650000 0.00659388 67711.03085646 0 4148.24649331 0 40338.36160955 0 19864.08289440 0 -3187.86625551 0 40
0.00750000 0.00754703 77360.78338241 0 17134.20121036 0 77646.33863948 0 51552.74435562 0 -4200.06497346 0 57
0.00850000 0.00846663 68973.94022528 0 10839.99422698 0 43883.83073973 0 41377.72074027 0 14341.31799810 0 75
0.00950000 0.00948925 60307.74231297 0 14104.14880049 0 47917.14650141 0 42750.02467830 0 7730.85220093 0 112
0.01050000 0.01054430 48189.85786170 0 3717.65485343 0 16765.82496364 0 17793.11526032 0 15744.40299912 0 105
0.01150000 0.01145670 52957.49020536 0 4793.76303023 0 33122.52752524 0 15544.54753615 0 16233.68903286 0 144
0.01250000 0.01249090 48037.28122570 0 2554.15281684 0 34358.75259124 0 10651.75363273 0 24295.89162631 0 169
0.01350000 0.01339930 47311.15816409 0 -504.34550272 0 42325.51174475 0 7843.18093621 0 23297.16792767 0 180
0.01450000 0.01448870 57847.36101502 0 -3755.38933642 0 41219.27577212 0 21219.33545220 0 27539.19701219 0 267
0.01550000 0.01550050 60937.64687190 0 -5480.36896456 0 47744.19678775 0 21006.85753893 0 34224.99890743 0 238
0.01650000 0.01653350 68692.48172839 0 -3817.53829562 0 19786.90879041 0 20638.37056896 0 20405.40885478 0 315
0.01750000 0.01747870 65689.44579107 0 -5105.08358716 0 11497.61281493 0 16896.36767325 0 9848.81078154 0 297
0.01850000 0.01844180 72345.46313255 0 928.28599708 0 12742.14212455 0 417.25613186 0 5199.85161528 0 388
0.01950000 0.01947590 67431.45465479 0 3424.24931806 0 15788.58157515 0 -4462.31298679 0 -6128.04460483 0 399
0.02050000 0.02045430 61745.15152093 0 2543.71161454 0 11062.45937723 0 -6696.69706286 0 -6216.03637016 0 462
0.02150000 0.02154770 61771.28220750 0 182.94027235 0 12300.79925728 0 -399.87590359 0 -8513.77628885 0 571
0.02250000 0.02255340 64633.36744987 0 -3079.61213576 0 17361.62676213 0 1861.19136807 0 -15724.25136795 0 510
0.02350000 0.02348930 65082.68239101 0 -1088.72398370 0 15640.54459232 0 -2071.08942965 0 -26008.00521301 0 555
0.02450000 0.02439640 62935.98005517 0 6883.24359141 0 18865.91281200 0 -2239.49949014 0 -17902.95272252 0 592
0.02550000 0.02547300 62213.51086075 0 5465.55419395 0 16369.54645838 0 -9536.34977515 0 -18009.24704078 0 837
0.02650000 0.02652900 59268.05101250 0 -2479.99038521 0 15612.75305703 0 -282.20144989 0 -14974.32280799 0 723
0.02750000 0.02749970 59163.52826621 0 -1328.44645942 0 12928.04645825 0 4001.15065809 0 -19030.44755880 0 826
0.02850000 0.02848090 61856.64983185 0 -738.80973138 0 11860.45289924 0 6357.39674112 0 -24102.90100472 0 831
0.02950000 0.02946900 58690.40782671 0 373.53927178 0 4546.25228124 0 2597.08022016 0 -26297.54650702 0 996
0.03050000 0.03053250 59355.52237857 0 2835.38986723 0 9729.35146907 0 -4615.73111947 0 -18709.23941581 0 1041
0.03150000 0.03150510 58871.99395374 0 1065.78323391 0 11145.51288570 0 -7784.75227814 0 -11990.10982286 0 1036
0.03250000 0.03246190 56392.90042684 0 3413.56452461 0 15028.24502985 0 -1243.41100481 0 -4332.76678641 0 1059
0.03350000 0.03345080 57804.17894822 0 1398.63392644 0 18954.26996405 0 1731.75589094 0 2530.96736867 0 1302
0.03450000 0.03451200 55877.48370653 0 -606.20756936 0 21061.33337704 0 2510.30641056 0 -307.26919327 0 1339
0.03550000 0.03553350 57371.91538731 0 1694.25392677 0 24287.14448970 0 5264.14860550 0 4212.63206213 0 1365
0.03650000 0.03647120 53938.83035404 0 2305.35767817 0 22121.95137141 0 5114.11860421 0 664.87981857 0 1308
0.03750000 0.03744890 51293.20906187 0 4772.37129868 0 20195.58829947 0 862.52303105 0 5392.07824646 0 1579
0.03850000 0.03847530 48784.55242771 0 1520.36306550 0 20383.37492839 0 4376.50246944 0 5732.68510253 0 1662
0.03950000 0.03950240 45976.27868395 0 1763.32308899 0 16517.47271796 0 4825.92813383 0 11285.57779465 0 1683
0.04050000 0.04050350 44605.74631790 0 1677.59007792 0 15956.43801940 0 3333.05765086 0 11195.78124037 0 1822
0.04150000 0.04152450 45457.98315919 0 -1353.60278140 0 11712.30519316 0 4213.22996767 0 3910.46831783 0 1887
0.04250000 0.04250150 45365.08635396 0 -1032.40681797 0 12213.99223070 0 4296.16168056 0 9103.04541570 0 1920
0.04350000 0.04349210 45374.60855331 0 194.84523600 0 9228.73844704 0 2357.78513618 0 4351.86654672 0 2005
0.04450000 0.04448520 45248.71622012 0 -1788.96659327 0 7024.99149374 0 1184.83840652 0 3629.97311319 0 2151
0.04550000 0.04548030 46728.31098564 0 -198.22340230 0 7496.86076053 0 -4092.82950759 0 -4182.16102423 0 2274
0.04650000 0.04648670 43559.19017604 0 4042.36185107 0 7954.34707739 0 -1698.99288180 0 -2493.25503034 0 2311
0.04750000 0.04749250 42684.80868512 0 4188.83763609 0 10071.81847571 0 -5339.03073825 0 -259.33931360 0 2568
0.04850000 0.04851840 38162.09616644 0 2820.50866268 0 8556.59296893 0 -755.81460784 0 2122.08855777 0 2493
0.04950000 0.04949480 37876.43018612 0 718.11444907 0 13507.01832302 0 4268.83518291 0 2009.15084462 0 2644
0.05050000 0.05050630 37883.18430426 0 -1600.13916582 0 9915.32223672 0 1739.76118178 0 -1321.21623131 0 2829
0.05150000 0.05149060 39374.18356434 0 -1089.25213359 0 11966.52577100 0 3071.44076004 0 -3334.85136748 0 2784
0.05250000 0.05249300 37696.17273807 0 2705.15718272 0 12949.63749165 0 -4864.34910095 0 634.59590296 0 3055
0.05350000 0.05348950 38046.72254183 0 2923.96846578 0 15560.60240713 0 -2816.32332390 0 3746.24359612 0 3009
0.05450000 0.05448610 34915.02619013 0 160.20657503 0 14853.85591396 0 81.89722558 0 4878.17843465 0 3336
0.05550000 0.05550870 35653.55025553 0 1147.69075675 0 17468.47469663 0 1969.09117342 0 2046.87425527 0 3349
0.05650000 0.05647670 35823.73188799 0 45.78162721 0 18119.41667272 0 2451.41271485 0 745.56495676 0 3324
0.05750000 0.05747970 35196.59541026 0 -237.54565666 0 16592.10018724 0 3186.84760163 0 1924.95688670 0 3639
0.05850000 0.05849280 34294.09021430 0 1055.56679980 0 15313.80028693 0 2836.37530414 0 5806.95825741 0 3846
0.05950000 0.05951020 34684.94328040 0 1301.31926361 0 12970.89635530 0 2560.64119918 0 1197.75980958 0 3787
0.06050000 0.06049470 32629.91979405 0 15.60411664 0 15054.70788617 0 -496.31253107 0 3623.83904525 0 3930
0.06150000 0.06148310 32609.65743964 0 1509.21323441 0 12422.59483028 0 -42.49901507 0 3263.43487240 0 4083
0.06250000 0.06249100 31804.36725558 0 -419.29786856 0 11480.67215796 0 473.27545205 0 3689.11040005 0 4303
0.06350000 0.06350600 32814.27400228 0 -1030.61974475 0 10232.21217303 0 3302.12157531 0 2915.22132918 0 4470
0.06450000 0.06451750 33143.45421914 0 -558.58217861 0 9680.31214245 0 2808.39553933 0 -977.21017152 0 4479
0.06550000 0.06550280 31946.86807599 0 1242.75773764 0 8531.60273181 0 2135.78502357 0 -1054.99436060 0 4636
0.06650000 0.06648880 31206.90460836 0 1718.82341555 0 6844.19150177 0 153.56982354 0 115.03813317 0 4653
0.06750000 0.06749660 29236.69513013 0 1064.60956748 0 6559.42237976 0 -548.26609358 0 -57.89176104 0 5220
0.06850000 0.06852730 29087.10802183 0 606.83537017 0 7725.95823336 0 867.02946725 0 1135.59977805 0 5029
0.06950000 0.06949320 28559.17957448 0 -396.78008157 0 7031.33593586 0 -1141.88885855 0 -1777.49566476 0 5040
0.07050000 0.07048030 28531.60948568 0 202.35891562 0 8453.38782929 0 -326.76977175 0 -1953.98852237 0 5475
0.07150000 0.07148790 28327.32509278 0 1655.03575227 0 9647.61556726 0 -1915.46790433 0 731.38241590 0 5509
0.07250000 0.07249820 26745.31132269 0 1274.31386338 0 9646.58584105 0 -310.33733448 0 -591.19792583 0 5916
0.07350000 0.07351270 27227.40034529 0 -370.59071168 0 9470.79053990 0 -226.18877309 0 642.66319882 0 5721
0.07450000 0.07449140 27128.85665441 0 -5.34404650 0 11103.54877463 0 960.27505071 0 998.05382299 0 6028
0.07550000 0.07549160 27437.66379360 0 519.64081223 0 9531.40044596 0 213.04813800 0 -330.16233207 0 6183
0.07650000 0.07648840 26864.67098423 0 208.82626054 0 9516.98427905 0 1634.06476906 0 1108.62759479 0 6330
0.07750000 0.07749960 26632.04143979 0 534.33378726 0 9082.22944504 0 1169.15999458 0 590.16598516 0 6583
0.07850000 0.07848650 25436.45180588 0 493.56548728 0 7716.76820376 0 1867.17042347 0 -482.38576091 0 6549
0.07950000 0.07947320 25342.89066116 0 874.12018406 0 8679.58435301 0 -320.01454637 0 44.41751680 0 6828
0.08050000 0.08048110 23985.20219190 0 1227.37827847 0 7938.65759312 0 831.26917978 0 1519.24476069 0 7147
0.08150000 0.08149960 23391.06124213 0 327.62898415 0 7628.71000447 0 855.31384036 0 1783.27541832 0 7386
0.08250000 0.08250610 23501.00942758 0 -615.78402309 0 8315.32701113 0 1519.11189279 0 1780.21945667 0 7227
0.08350000 0.08350160 23777.70682479 0 -197.24017985 0 8417.38062898 0 719.28700826 0 1755.56138930 0 7798
0.08450000 0.08449610 23876.36123893 0 312.09229797 0 7178.15496295 0 97.88389105 0 508.86633295 0 7371
0.08550000 0.08548940 23955.30691489 0 180.15668989 0 7119.49378606 0 -1131.17084812 0 1108.66081177 0 8256
0.08650000 0.08650700 23228.74096029 0 836.07013982 0 7112.67323398 0 -731.61382748 0 -459.36971931 0 8037
0.08750000 0.08749060 22526.86629003 0 1490.74459661 0 6904.93427573 0 -518.93993407 0 153.61300560 0 8155
0.08850000 0.08849210 21318.32203608 0 803.22962441 0 7016.16685086 0 703.39268599 0 -787.52131719 0 8718
0.08950000 0.08949900 20368.98090613 0 297.23766699 0 5620.87676651 0 2049.62019183 0 -946.62508867 0 8571
0.09050000 0.09049190 19993.73981802 0 115.49209849 0 5289.30492749 0 1958.51710322 0 -1669.57371475 0 8932
0.09150000 0.09150830 20199.35288990 0 202.24929960 0 5326.12040751 0 328.27007176 0 -2077.71067989 0 9285
0.09250000 0.09250820 19501.13208684 0 407.24564299 0 5213.51486411 0 -874.58522171 0 -343.98280791 0 9204
0.09350000 0.09350330 19473.00838180 0 729.87879419 0 5934.58894560 0 -1841.89230591 0 -1818.00930127 0 9349
0.09450000 0.09448040 18969.77121879 0 723.39926970 0 6781.68822817 0 -1961.90523462 0 -726.32457792 0 9564
0.09550000 0.09549270 18876.65296707 0 535.57278041 0 7467.71840161 0 -861.67267650 0 -1795.35532469 0 10155
0.09650000 0.09649430 18146.21169878 0 336.41819559 0 7115.03163916 0 494.01945260 0 -601.22723765 0 9913
0.09750000 0.09749140 18026.40914425 0 433.60774115 0 7338.33828611 0 1322.86600771 0 -980.97365473 0 10476
0.09850000 0.09850240 17941.04151989 0 142.02249598 0 6547.46426896 0 1491.26499587 0 -1135.71050130 0 10575
0.09950000 0.09950330 17462.82781098 0 417.88725438 0 7115.77348493 0 752.79407763 0 634.53832687 0 10882
0.10050000 0.10051200 17175.39025868 0 332.54731084 0 6364.08442531 0 526.94854661 0 1004.59978142 0 10875
0.10150000 0.10150300 17142.39473072 0 47.81982077 0 6652.61813776 0 950.19812789 0 1571.29575966 0 11118
0.10250000 0.10250800 17178.15833989 0 -212.56981357 0 6573.74996808 0 477.21719968 0 1943.30372892 0 11575
0.10350000 0.10349800 17422.96744163 0 186.46016441 0 6103.29795886 0 -373.70978558 0 1352.84986332 0 11364
0.10450000 0.10450100 17131.65457565 0 563.54036567 0 7108.45467822 0 -747.57126201 0 1464.69141631 0 12093
0.10550000 0.10551000 16437.75197927 0 777.13104758 0 6915.03223596 0 -625.43687587 0 1806.09547977 0 12067
0.10650000 0.10649700 16319.72099670 0 232.35162909 0 7334.88372076 0 44.51650338 0 1540.85793874 0 12054
0.10750000 0.10749900 15987.44052889 0 -159.84561724 0 7602.31358211 0 842.73235767 0 1783.90654083 0 12807
0.10850000 0.10850100 16149.76081073 0 118.58570604 0 7677.15142556 0 1069.68844287 0 1897.75218462 0 12736
0.10950000 0.10950300 15769.75862296 0 -52.98882488 0 6540.87623569 0 1741.85385117 0 1277.25910178 0 12933
0.11050000 0.11050200 15896.42601888 0 98.22990120 0 6180.90388351 0 1350.63539835 0 2241.78038906 0 13428
0.11150000 0.11150900 15611.97799429 0 152.10716943 0 5210.49211943 0 464.86602135 0 1446.86497335 0 13453
0.11250000 0.11250000 15435.81730643 0 541.04804503 0 5273.20576721 0 194.96149541 0 2121.62352012 0 13668
0.11350000 0.11349100 14862.71377381 0 520.20550079 0 4916.74334199 0 272.11013305 0 2002.78425785 0 13791
0.11450000 0.11448600 14520.24676717 0 271.72038721 0 4468.29204219 0 323.22441334 0 2827.87175868 0 14205
0.11550000 0.11549300 14471.74998447 0 106.95135001 0 4463.86311226 0 568.91265767 0 1492.28364976 0 14776
0.11650000 0.11649800 14114.88895556 0 52.04313762 0 4088.72167508 0 591.46809056 0 1664.98977228 0 14553
0.11750000 0.11747300 14402.43723110 0 140.78903900 0 3900.10462180 0 -26.09514441 0 2247.77051678 0 14568
0.11850000 0.11849100 14208.67154678 0 66.03346292 0 4213.42926951 0 -46.25530127 0 1927.69175093 0 16015
0.11950000 0.11950300 14057.20214326 0 252.55640742 0 4161.98724841 0 112.76166319 0 2160.04448725 0 15270
0.12050000 0.12050700 14098.39119158 0 254.88048840 0 4111.88497860 0 201.47977303 0 1496.86759223 0 15999
0.12150000 0.12150000 13560.49765189 0 179.35173188 0 4354.66784490 0 -98.10256947 0 1123.04376171 0 15670
0.12250000 0.12250700 13516.20835262 0 224.17803891 0 4228.64264381 0 26.66714071 0 1013.51300290 0 16887
0.12350000 0.12352200 13186.80668926 0 269.74840616 0 4139.45506740 0 -737.10127166 0 1123.30949750 0 16407
0.12450000 0.12449800 13279.81421774 0 147.49997507 0 4397.17449988 0 -55.87161537 0 901.50868673 0 16306
0.12550000 0.12549900 13057.37121213 0 184.10286646 0 3862.23727092 0 -205.30636848 0 867.40814076 0 17523
0.12650000 0.12650100 13093.24554455 0 -40.62458121 0 4197.61798967 0 198.84345249 0 147.54647884 0 17154
0.12750000 0.12750600 12816.32670083 0 29.58491975 0 3833.72603451 0 167.46559118 0 370.74461700 0 18007
0.12850000 0.12850300 12911.77014077 0 176.18726144 0 3663.85442714 0 58.42301118 0 -508.82868704 0 17496
0.12950000 0.12949900 12610.71362895 0 123.46195789 0 3837.53491424 0 256.00543660 0 -121.88525884 0 18405
0.13050000 0.13049000 12525.12455810 0 435.60629578 0 3631.91077004 0 123.17297021 0 -701.72630110 0 18100
0.13150000 0.13148800 12184.31840018 0 286.37018018 0 3725.81515682 0 -15.23053640 0 -505.58006694 0 19059
0.13250000 0.13249300 12119.98819299 0 187.73569623 0 3635.19925051 0 -196.68324192 0 -365.13316278 0 18957
0.13350000 0.13349100 11809.52020507 0 130.81508880 0 4007.25150907 0 321.05977384 0 97.36780999 0 19468
0.13450000 0.13450700 12063.18716667 0 98.04554699 0 3776.08351150 0 183.19715029 0 -37.09405971 0 19953
0.13550000 0.13551000 11877.94717245 0 52.72785019 0 3923.48937181 0 181.25506451 0 599.64500244 0 19956
0.13650000 0.13649900 11698.46478714 0 286.45211538 0 3903.40417459 0 194.15210846 0 576.56917028 0 19723
0.13750000 0.13749600 11669.89818911 0 225.88871309 0 3877.64994706 0 467.88101540 0 900.88199315 0 20946
0.13850000 0.13851100 11306.61521181 0 187.98150184 0 3578.47573046 0 465.21479958 0 527.15449185 0 20955
0.13950000 0.13949800 11337.83916780 0 -10.25425717 0 3373.77058922 0 245.17227399 0 792.32117000 0 20506
0.14050000 0.14048300 11151.60266435 0 50.90434901 0 3348.69177350 0 676.01747011 0 192.65734461 0 21447
0.14150000 0.14148400 11131.11886343 0 18.93677569 0 3022.02497438 0 127.88535166 0 471.67107218 0 21771
0.14250000 0.14249400 11143.96276022 0 39.31295361 0 2677.35457510 0 296.97414566 0 352.58378983 0 22470
0.14350000 0.14350900 10948.52515485 0 164.27343994 0 2576.14245393 0 186.91302250 0 650.44261424 0 22519
0.14450000 0.14449900 10987.79869098 0 210.81263562 0 2461.33351789 0 -63.67450412 0 528.60164470 0 22218
0.14550000 0.14550500 10729.54778691 0 247.39006066 0 2676.05911309 0 -23.54718102 0 926.00288370 0 23559
0.14650000 0.14650700 10721.88573814 0 107.97277198 0 2801.78536141 0 -59.93903390 0 1095.27658553 0 23044
0.14750000 0.14750500 10566.12027259 0 56.92182538 0 2892.97702862 0 275.66545654 0 1102.03623983 0 23649
0.14850000 0.14849900 10525.57341910 0 162.15973313 0 3051.46628607 0 288.15061001 0 1039.66361966 0 23640
0.14950000 0.14949500 10426.42075035 0 141.89737871 0 2644.06009437 0 77.01920216 0 914.41901747 0 24457
0.15050000 0.15050000 10157.10859379 0 148.65260409 0 2800.19094664 0 -91.32010617 0 647.99452322 0 24591
0.15150000 0.15149900 10173.19668175 0 222.07097549 0 2792.41817461 0 -139.17912297 0 608.89925152 0 25020
0.15250000 0.15250500 9914.66896956 0 114.26749936 0 2988.87443387 0 -218.59869443 0 774.15259221 0 25297
0.15350000 0.15350100 9862.31901782 0 189.37661477 0 2852.91735742 0 161.81981276 0 801.67174831 0 25452
0.15450000 0.15450400 9736.70349275 0 159.15691864 0 2975.99732011 0 150.46182196 0 655.66653709 0 26061
0.15550000 0.15549900 9650.12898499 0 146.60643846 0 2991.74216600 0 115.59617834 0 606.82540508 0 26128
0.15650000 0.15649500 9580.89373790 0 35.99446714 0 3026.38747036 0 16.00714927 0 744.97258738 0 26331
0.15750000 0.15749700 9483.10296510 0 128.17766103 0 3048.44354139 0 4.45864805 0 1131.60266879 0 27345
0.15850000 0.15849900 9357.59816328 0 180.12679461 0 2869.71407417 0 222.99108569 0 445.72418620 0 26980
0.15950000 0.15949700 9183.88445920 0 150.48839554 0 2743.15740149 0 -0.86442083 0 467.49016233 0 27777
0.16050000 0.16050000 9113.32053313 0 305.91394072 0 2698.01553321 0 -29.02144914 0 -114.95619796 0 28224
0.16150000 0.16150500 8777.13153466 0 285.03485781 0 2541.59680050 0 -168.94928271 0 213.95717587 0 28075
0.16250000 0.16249700 8546.20712825 0 76.94236023 0 2310.76097268 0 166.79128660 0 -139.67737759 0 28590
0.16350000 0.16349900 8584.01911750 0 78.04306004 0 2373.15352303 0 104.77120926 0 -104.92478240 0 29163
0.16450000 0.16449100 8581.50569977 0 12.49345771 0 2257.97920027 0 277.52449988 0 -113.58101522 0 28996
0.16550000 0.16550500 8598.22491024 0 56.63638085 0 2243.08692339 0 55.14438508 0 -210.48932373 0 30777
0.16650000 0.16650700 8508.14047552 0 88.03173643 0 2318.63339562 0 -199.67276962 0 321.52702594 0 29211
0.16750000 0.16749900 8505.68241941 0 30.24316946 0 2486.24624873 0 83.80066894 0 263.90886205 0 30922
0.16850000 0.16850800 8571.90599415 0 50.21841849 0 2642.90857259 0 114.90858697 0 488.69920052 0 30867
0.16950000 0.16949900 8463.97297182 0 25.75267740 0 2588.79812120 0 210.29445082 0 356.78020093 0 30852
0.17050000 0.17049200 8462.79930539 0 17.69501446 0 2441.07116347 0 168.68133245 0 283.98741588 0 31257
0.17150000 0.17149500 8510.06706004 0 -44.21688627 0 2312.06750701 0 220.41898463 0 223.95548518 0 32608
0.17250000 0.17250900 8403.05304067 0 91.44433766 0 2153.35680306 0 -127.07817918 0 27.78965300 0 32361
0.17350000 0.17350400 8354.05800334 0 231.22557365 0 2031.60551935 0 138.79269883 0 10.41048767 0 32508
0.17450000 0.17449800 8289.14096293 0 81.93265702 0 2009.50515901 0 -71.53530113 0 -124.17390838 0 32791
0.17550000 0.17549800 8036.68088474 0 136.43761535 0 1948.58522786 0 173.17005293 0 30.02914142 0 33633
0.17650000 0.17650100 8054.45196608 0 129.20849447 0 2039.24542347 0 22.19015689 0 -162.34353372 0 33984
0.17750000 0.17750300 7939.34407726 0 89.58529432 0 2055.79854908 0 -45.84363223 0 74.98145150 0 34069
0.17850000 0.17849800 7927.43025576 0 97.84646659 0 2403.25917421 0 -261.47737952 0 232.20436717 0 34536
