### header ###
fiducial parameters:
Omega_m = 0.31
Omega_nu = 0
Omega_de = 0.69
Omega_k = 0
H_0 = 100
w_de = -1
zeff = 0
beta = 0
fgrowth = 0
b_1 = 2
gamma = 0.55
Lx = 3500 Ly = 3500 Lz = 3500
nx = 700 ny = 700 nz = 700
xoffset = -685.467585 yoffset = -31.7331281 zoffset = 572.489161
bins = 400 dk = 0.001
kx_ny = 0.628318531 ky_ny = 0.628318531 kz_ny = 0.628318531
############################
A(data) = 8.06726656 (not used)
A(ran) = 8.06219146 (used)
Ngal = 479449
weighted Ngal = 0
Nran = 23820508
weighted Nran = 0
SN(data) = 3488.38022
SN(ran) = 70.2246115
SN(data+ran) = 3558.60483
############################
13 columns: k_central k_mean P_0(k) sigma^{lin}_{P_0(k)} P^img_1(k) sigma^{lin}_{P_1(k)} P_2(k) sigma^{lin}_{P_2(k)} P^img_3(k) sigma^{lin}_{P_3(k)} P_4(k) sigma^{lin}_{P_4(k)} N_modes
### header ###
0.00050000 0 0 0 0 0 0 0 0 0 0 0 0
0.00150000 0.00179520 9623.99829842 0 -12030.74525495 0 -3477.92794878 0 -989.05202291 0 21853.55821781 0 3
0.00250000 0.00253879 26937.19471180 0 -28554.41847481 0 -9317.19525002 0 -43553.54329039 0 -62551.54893747 0 6
0.00350000 0.00331552 34666.00960496 0 -20630.84138809 0 -26719.40208261 0 13283.57880818 0 23602.87481591 0 7
0.00450000 0.00420575 56087.19353860 0 -18458.67270517 0 -15292.20925353 0 -14736.71071738 0 15476.45273851 0 24
0.00550000 0.00557378 65080.24647955 0 -11324.22020827 0 -13202.41866726 0 -26243.07066891 0 -15411.90108482 0 45
0.00650000 0.00659388 92885.62218038 0 2726.61534822 0 8119.94476738 0 -45929.22130347 0 -5166.22496481 0 40
0.00750000 0.00754703 85414.68173224 0 -3991.19663808 0 -6454.58960838 0 -36633.56172523 0 -10826.71850952 0 57
0.00850000 0.00846663 86865.04556024 0 -1932.94003289 0 17497.26274116 0 -49025.70766226 0 -16953.94376231 0 75
0.00950000 0.00948925 98692.94582451 0 -3393.43503809 0 30445.79300033 0 -19310.46665346 0 -19.32054247 0 112
0.01050000 0.01054430 101456.26592950 0 -454.51782657 0 52762.28511881 0 2779.30854203 0 -23536.99448324 0 105
0.01150000 0.01145670 105959.15898674 0 -5014.88842919 0 51900.41535492 0 10231.45925494 0 -24257.69210568 0 144
0.01250000 0.01249090 102738.21969700 0 6197.65631096 0 54600.40176195 0 10432.54374598 0 -24454.55804096 0 169
0.01350000 0.01339930 98441.49332788 0 14957.71432076 0 52705.70553898 0 16505.40388391 0 -14680.46330730 0 180
0.01450000 0.01448870 91699.44402255 0 6035.10351030 0 37615.67693664 0 20929.79415819 0 117.94461843 0 267
0.01550000 0.01550050 85669.89881931 0 -1450.46347892 0 49318.90282346 0 5900.94015047 0 -5388.70118739 0 238
0.01650000 0.01653350 83793.58265554 0 2600.57907481 0 27320.85076676 0 19756.45989716 0 12474.41331043 0 315
0.01750000 0.01747870 86984.84811477 0 4326.75451403 0 36549.85494960 0 17099.54483368 0 8337.46058844 0 297
0.01850000 0.01844180 75970.54227818 0 1696.71198288 0 17200.41371277 0 -608.77413425 0 -7506.90335914 0 388
0.01950000 0.01947590 76084.36577731 0 5841.62570642 0 16330.01825878 0 4321.89376344 0 1548.60856611 0 399
0.02050000 0.02045430 71060.07694436 0 8464.51551573 0 20052.53386281 0 -2832.18996536 0 2252.46518251 0 462
0.02150000 0.02154770 63679.70811324 0 5267.14920553 0 15164.10245538 0 1565.31670426 0 7333.58825876 0 571
0.02250000 0.02255340 60600.38385793 0 1050.39602411 0 18714.00051548 0 4624.47825608 0 3671.10679990 0 510
0.02350000 0.02348930 63623.79287291 0 -4169.42785068 0 15761.34365609 0 8462.45606332 0 -9010.91260089 0 555
0.02450000 0.02439640 60281.50090315 0 -543.81501900 0 17288.21724859 0 3021.06168212 0 4790.00951212 0 592
0.02550000 0.02547300 64098.02054489 0 1650.65111164 0 13989.10734562 0 -3340.67541033 0 -5358.04191997 0 837
0.02650000 0.02652900 59857.32013935 0 4231.98648591 0 23505.43835750 0 -5848.64556035 0 5692.90223946 0 723
0.02750000 0.02749970 62603.69958736 0 2080.48983342 0 23458.38097703 0 -2474.01132980 0 3480.69602999 0 826
0.02850000 0.02848090 60884.38898952 0 -1633.32292330 0 22271.87064946 0 1184.00798216 0 3890.19489108 0 831
0.02950000 0.02946900 62101.12676385 0 -2228.60432252 0 15645.52713849 0 4771.60730827 0 -1711.49353652 0 996
0.03050000 0.03053250 65167.60712237 0 -700.86376700 0 23705.73671347 0 1247.33060779 0 -5708.74673627 0 1041
0.03150000 0.03150510 64224.13432457 0 3179.06375728 0 24235.32600955 0 1020.81409389 0 4697.28986409 0 1036
0.03250000 0.03246190 61710.38442100 0 3284.68266373 0 22423.45077623 0 933.35601461 0 1389.05636547 0 1059
0.03350000 0.03345080 60802.12161612 0 2330.95689315 0 24305.08165591 0 5182.84452436 0 8810.83569141 0 1302
0.03450000 0.03451200 58033.37607197 0 1611.13398436 0 22785.95869079 0 5463.20686109 0 1934.44586907 0 1339
0.03550000 0.03553350 58842.98446271 0 3652.26170305 0 20089.62615095 0 861.22978351 0 3802.65709107 0 1365
0.03650000 0.03647120 53249.46741083 0 3059.21691344 0 22193.70003624 0 3176.22924213 0 2334.26751827 0 1308
0.03750000 0.03744890 51280.69733482 0 3367.29327920 0 23001.09396201 0 -2610.45558854 0 4437.84314894 0 1579
0.03850000 0.03847530 48164.72368436 0 2441.32582694 0 20458.66673716 0 4872.15508995 0 1249.21290301 0 1662
0.03950000 0.03950240 46317.52773486 0 496.11765815 0 19492.82784323 0 2276.09352367 0 -4601.65819463 0 1683
0.04050000 0.04050350 44866.49956738 0 1714.23947307 0 18829.37414009 0 1922.78671103 0 -2237.82756910 0 1822
0.04150000 0.04152450 44571.75428071 0 795.02946065 0 16722.20000386 0 1403.46146006 0 -1413.54834797 0 1887
0.04250000 0.04250150 45088.05678700 0 100.01475996 0 19173.61271871 0 118.56909755 0 1676.30568824 0 1920
0.04350000 0.04349210 45684.30147849 0 361.26006356 0 21740.06688842 0 -1130.90511233 0 3166.41916234 0 2005
0.04450000 0.04448520 46727.97881589 0 -181.06351329 0 24583.10773210 0 117.23820411 0 6731.61917534 0 2151
0.04550000 0.04548030 47223.57607477 0 -2057.82478452 0 21615.50323421 0 4359.11891948 0 5852.16655965 0 2274
0.04650000 0.04648670 49089.26280672 0 -2221.90556601 0 21465.47323292 0 5133.51731729 0 4348.41198138 0 2311
0.04750000 0.04749250 49061.47127142 0 908.81752835 0 18473.95251342 0 4855.26979460 0 -185.75707178 0 2568
0.04850000 0.04851840 46898.60334135 0 2845.80892489 0 16721.42494112 0 431.05889198 0 -698.28945148 0 2493
0.04950000 0.04949480 43708.33439135 0 3593.43444129 0 15604.00592042 0 -2032.51344998 0 -2551.07471054 0 2644
0.05050000 0.05050630 41514.79612153 0 2753.42144660 0 14214.87204867 0 -352.19847292 0 -4932.53247719 0 2829
0.05150000 0.05149060 38837.72942688 0 1211.09088866 0 14986.83453503 0 -1337.63648902 0 -4086.81723521 0 2784
0.05250000 0.05249300 39083.97793084 0 901.07908053 0 14053.88044581 0 2927.07978906 0 -6107.92619063 0 3055
0.05350000 0.05348950 37732.71140998 0 437.17413698 0 14106.58471195 0 1974.57197421 0 -4533.54125235 0 3009
0.05450000 0.05448610 37386.47981290 0 1466.55156688 0 12180.44308650 0 2226.36771291 0 -7088.92309724 0 3336
0.05550000 0.05550870 35931.02271549 0 887.07037517 0 12857.18357941 0 466.36853583 0 -4852.12525435 0 3349
0.05650000 0.05647670 34897.97480991 0 1794.83492543 0 11265.64760998 0 52.33234675 0 -4583.57708820 0 3324
0.05750000 0.05747970 33726.07995110 0 1007.16081015 0 12557.23430007 0 878.19812129 0 -4030.37052329 0 3639
0.05850000 0.05849280 32768.10240779 0 760.32325851 0 10984.04517287 0 1740.76876334 0 -2769.63133014 0 3846
0.05950000 0.05951020 31875.11941117 0 218.40049982 0 9827.20867582 0 2798.60760419 0 -4710.07839925 0 3787
0.06050000 0.06049470 31192.84275584 0 60.22757868 0 9759.74500070 0 2171.86973015 0 -3497.43738512 0 3930
0.06150000 0.06148310 32061.90953086 0 171.14713919 0 8896.36940064 0 524.69422127 0 -3200.04581281 0 4083
0.06250000 0.06249100 30700.56719441 0 505.33979749 0 8731.40283316 0 437.99791794 0 -2516.70621430 0 4303
0.06350000 0.06350600 31221.18790738 0 182.71328969 0 9600.72427165 0 -190.49491957 0 -2907.23818298 0 4470
0.06450000 0.06451750 31616.46990340 0 476.59936396 0 9469.28470373 0 -1272.73052093 0 -3873.29852341 0 4479
0.06550000 0.06550280 30041.76386770 0 561.54291827 0 9489.14845445 0 -1380.49745839 0 -4446.11417558 0 4636
0.06650000 0.06648880 30485.98553942 0 495.51310921 0 11059.66915138 0 -593.46332349 0 -3731.32917458 0 4653
0.06750000 0.06749660 29756.43005712 0 839.42726871 0 11480.89360445 0 -973.04033399 0 -4941.13567357 0 5220
0.06850000 0.06852730 29782.78219019 0 919.78909501 0 11466.38885894 0 1003.00979558 0 -4087.51479168 0 5029
0.06950000 0.06949320 28087.83070695 0 1210.07223478 0 13451.98886867 0 -650.76038996 0 -4039.52733591 0 5040
0.07050000 0.07048030 28563.16561141 0 735.97632346 0 11281.03814148 0 828.20436027 0 -1058.35591842 0 5475
0.07150000 0.07148790 27677.93324216 0 72.45696144 0 13137.31339732 0 1416.64859892 0 -115.66261229 0 5509
0.07250000 0.07249820 27965.48151770 0 113.04400747 0 11870.41799157 0 1836.94297671 0 795.22211910 0 5916
0.07350000 0.07351270 27859.51936919 0 307.36773697 0 12303.67806173 0 2426.75464748 0 1029.75388895 0 5721
0.07450000 0.07449140 26837.65451168 0 880.98834715 0 10441.31302723 0 500.23324128 0 1183.69795706 0 6028
0.07550000 0.07549160 26773.65647422 0 397.30601700 0 10990.34532569 0 1095.44156317 0 2835.15734841 0 6183
0.07650000 0.07648840 25928.39519757 0 -65.44984068 0 10706.24054317 0 1431.40800790 0 710.28852988 0 6330
0.07750000 0.07749960 26108.32047587 0 321.57574417 0 10329.29431704 0 1061.16385999 0 1307.45333156 0 6583
0.07850000 0.07848650 25805.82456183 0 714.95994372 0 9596.28426940 0 306.27157681 0 1798.47772029 0 6549
0.07950000 0.07947320 25259.84822502 0 81.63370425 0 9755.81432538 0 368.32642125 0 2304.41653056 0 6828
0.08050000 0.08048110 25335.80437327 0 -67.45847113 0 9601.27788789 0 1511.10660195 0 1533.19588996 0 7147
0.08150000 0.08149960 24721.51179234 0 498.56574917 0 8478.43342803 0 585.99171870 0 318.94495980 0 7386
0.08250000 0.08250610 24427.32012190 0 1056.04733869 0 8627.97624703 0 27.23581531 0 1659.22109105 0 7227
0.08350000 0.08350160 23420.29217965 0 1210.63692335 0 8983.20964419 0 -360.69980392 0 1151.56607044 0 7798
0.08450000 0.08449610 22833.34824101 0 726.52498700 0 9334.83346345 0 -774.40393398 0 184.88125089 0 7371
0.08550000 0.08548940 21411.10811806 0 1109.26978963 0 8253.32199214 0 -55.63333894 0 406.34657022 0 8256
0.08650000 0.08650700 21009.95778988 0 627.23612865 0 8652.84468857 0 1132.26700828 0 -406.55915885 0 8037
0.08750000 0.08749060 20555.99247231 0 -519.55001916 0 7536.38896014 0 1329.75299374 0 -493.32411060 0 8155
0.08850000 0.08849210 21285.76940111 0 -507.73252688 0 7513.80141751 0 1173.34533336 0 -813.95427823 0 8718
0.08950000 0.08949900 21363.27567484 0 1.12769414 0 7263.01326036 0 228.46081415 0 -599.21096730 0 8571
0.09050000 0.09049190 21427.16298904 0 208.79415080 0 6631.75787780 0 -152.91102021 0 104.72149452 0 8932
0.09150000 0.09150830 21344.00982966 0 335.95426518 0 8149.87326136 0 68.03578214 0 809.99592211 0 9285
0.09250000 0.09250820 20956.03556801 0 720.98328843 0 7783.41252684 0 454.03950214 0 1055.98644091 0 9204
0.09350000 0.09350330 20004.47997310 0 676.21566472 0 8532.11205875 0 335.78042968 0 1364.88548039 0 9349
0.09450000 0.09448040 20086.08300701 0 822.93393366 0 8317.02107683 0 389.52549435 0 2395.43104057 0 9564
0.09550000 0.09549270 19158.66508020 0 512.18027976 0 8792.07917317 0 966.86086951 0 3439.97201931 0 10155
0.09650000 0.09649430 18982.50439234 0 240.21851587 0 7765.34249274 0 370.44787869 0 2895.85583307 0 9913
0.09750000 0.09749140 18370.53699961 0 252.04486601 0 7987.99587251 0 675.41292117 0 2646.73959697 0 10476
0.09850000 0.09850240 18592.53711222 0 254.35787466 0 7201.50649600 0 44.46025597 0 1831.58397150 0 10575
0.09950000 0.09950330 17837.73672934 0 398.37006742 0 6996.15915991 0 543.77183694 0 1297.21143110 0 10882
0.10050000 0.10051200 17582.96253526 0 266.00374591 0 6197.96633606 0 303.92978011 0 1088.37077654 0 10875
0.10150000 0.10150300 17557.82835792 0 -17.24481374 0 5352.22894944 0 1182.50214598 0 -376.63952273 0 11118
0.10250000 0.10250800 17281.02023745 0 -149.04788608 0 4800.26248490 0 858.91898932 0 166.59530645 0 11575
0.10350000 0.10349800 17041.52585163 0 134.39809311 0 4202.11335355 0 497.75525499 0 -762.53550901 0 11364
0.10450000 0.10450100 17121.46803682 0 527.49330499 0 4414.79056867 0 48.18011422 0 -613.52748329 0 12093
0.10550000 0.10551000 16548.69667395 0 763.11680606 0 4995.36792053 0 -756.55202467 0 -316.86889889 0 12067
0.10650000 0.10649700 16234.46409560 0 670.09820526 0 5474.22382429 0 -453.87784620 0 -3.18824271 0 12054
0.10750000 0.10749900 15906.16966472 0 -21.38065922 0 5567.93998155 0 62.48101823 0 893.85106689 0 12807
0.10850000 0.10850100 15983.78666170 0 -224.01527573 0 5900.79621025 0 229.22037563 0 378.97246157 0 12736
0.10950000 0.10950300 16207.22617654 0 211.58437666 0 6484.44059609 0 77.94329839 0 36.31700396 0 12933
0.11050000 0.11050200 16160.72241230 0 385.76311838 0 6347.85239713 0 219.22095908 0 415.64289413 0 13428
0.11150000 0.11150900 15493.06122574 0 468.23422256 0 5948.10825420 0 277.91978188 0 1040.06222335 0 13453
0.11250000 0.11250000 15518.52757282 0 97.32717456 0 5349.19513244 0 256.04861866 0 859.44935368 0 13668
0.11350000 0.11349100 15527.71760242 0 -82.29616145 0 5731.12390473 0 500.89536631 0 -118.64660383 0 13791
0.11450000 0.11448600 15349.01027985 0 213.09132006 0 5673.73604519 0 26.85747397 0 192.29970852 0 14205
0.11550000 0.11549300 14873.78609863 0 542.84840505 0 5415.13082673 0 -122.54959833 0 270.76152388 0 14776
0.11650000 0.11649800 14930.69784820 0 20.00503359 0 4819.73870426 0 245.42140130 0 788.23769661 0 14553
0.11750000 0.11747300 14821.96761848 0 -57.65470256 0 5039.17003751 0 461.09478752 0 -179.18011084 0 14568
0.11850000 0.11849100 14572.28669382 0 290.46251143 0 4881.25654095 0 172.67844171 0 -545.07283510 0 16015
0.11950000 0.11950300 14347.85066975 0 311.36373899 0 4786.36671725 0 -24.07599526 0 93.30913860 0 15270
0.12050000 0.12050700 14145.67001856 0 292.62825817 0 4765.05249198 0 266.26062384 0 93.66157070 0 15999
0.12150000 0.12150000 14030.85001019 0 164.76062223 0 4583.16741218 0 619.98929206 0 157.25801493 0 15670
0.12250000 0.12250700 13727.91120315 0 158.61991089 0 4505.72757240 0 688.10180541 0 321.02102070 0 16887
0.12350000 0.12352200 13551.63979204 0 373.90798020 0 4294.75549531 0 336.49127294 0 642.29670487 0 16407
0.12450000 0.12449800 13231.87105128 0 429.24192348 0 3900.01604320 0 639.58952145 0 1415.03203950 0 16306
0.12550000 0.12549900 12799.60749036 0 184.38631797 0 3674.38420804 0 587.22739015 0 1104.72902922 0 17523
0.12650000 0.12650100 12833.26735780 0 -145.30211860 0 3634.05880105 0 331.35260699 0 1084.16218587 0 17154
0.12750000 0.12750600 12990.71581672 0 -48.02000840 0 3720.29006674 0 -80.01216228 0 496.03904464 0 18007
0.12850000 0.12850300 12770.81944583 0 131.91899959 0 3399.29229792 0 -13.05216722 0 834.77578505 0 17496
0.12950000 0.12949900 12929.92875347 0 66.37526559 0 3753.24130540 0 -457.81405767 0 859.79923914 0 18405
0.13050000 0.13049000 12712.13612429 0 260.81636173 0 3956.08629608 0 -191.74277058 0 711.07023602 0 18100
0.13150000 0.13148800 12785.54563784 0 253.17202868 0 4342.53257690 0 40.13474156 0 600.23515735 0 19059
0.13250000 0.13249300 12475.29909642 0 225.77466814 0 4531.61466783 0 -252.22091597 0 736.90196982 0 18957
0.13350000 0.13349100 12490.24673492 0 68.71971965 0 4734.37107991 0 -1.27289661 0 683.87328456 0 19468
0.13450000 0.13450700 12386.27760488 0 180.21426598 0 4758.75233916 0 33.94055088 0 1184.62803235 0 19953
0.13550000 0.13551000 12384.06313991 0 178.32643460 0 5026.43686397 0 -40.36371723 0 860.35839155 0 19956
0.13650000 0.13649900 12131.72485729 0 122.20857072 0 4723.04409162 0 322.42166979 0 806.92888813 0 19723
0.13750000 0.13749600 12050.23254663 0 65.42437433 0 4707.81964499 0 252.03600815 0 503.63244500 0 20946
0.13850000 0.13851100 11913.15716537 0 192.29970852 0 4300.24736842 0 411.43983963 0 -151.31328374 0 20955
0.13950000 0.13949800 11864.43893617 0 195.66790973 0 4409.78587785 0 182.72657648 0 -467.65624720 0 20506
0.14050000 0.14048300 11359.54092444 0 259.77113427 0 3780.71174328 0 47.36530183 0 -534.23635080 0 21447
0.14150000 0.14148400 11291.99974305 0 191.37184770 0 3870.33114036 0 371.28273198 0 41.78385361 0 21771
0.14250000 0.14249400 11215.04708556 0 54.25062702 0 3521.40896835 0 447.24884533 0 -19.08104808 0 22470
0.14350000 0.14350900 11005.09366235 0 169.25487888 0 3288.93443646 0 450.80084713 0 9.76194839 0 22519
0.14450000 0.14449900 10860.95413786 0 354.22692283 0 3323.42472827 0 330.73698573 0 288.91238596 0 22218
0.14550000 0.14550500 10640.59272932 0 236.90567628 0 3128.93934283 0 -149.66793627 0 498.88131042 0 23559
0.14650000 0.14650700 10424.43880421 0 196.44518693 0 3214.29589485 0 -72.37203671 0 644.51781323 0 23044
0.14750000 0.14750500 10368.65643177 0 6.37695047 0 3216.76502329 0 167.13120698 0 588.26486699 0 23649
0.14850000 0.14849900 10417.13106983 0 -12.05344352 0 3364.49198102 0 197.29664871 0 518.67309104 0 23640
0.14950000 0.14949500 10268.26366264 0 33.08133848 0 3008.45030415 0 84.43035206 0 -132.13158822 0 24457
0.15050000 0.15050000 10308.30118919 0 128.06029439 0 2858.46459216 0 75.02275127 0 49.11151818 0 24591
0.15150000 0.15149900 10159.38949270 0 39.91329506 0 2755.74663481 0 143.67337961 0 138.44502783 0 25020
0.15250000 0.15250500 10126.21680754 0 219.13348772 0 2565.36908188 0 38.33227780 0 -83.83366447 0 25297
0.15350000 0.15350100 9959.53402972 0 91.84094833 0 2329.19639350 0 478.35543468 0 253.86072728 0 25452
0.15450000 0.15450400 9842.85387078 0 46.58082762 0 2176.97407189 0 312.99358521 0 119.93099351 0 26061
0.15550000 0.15549900 9919.13111646 0 -108.60511245 0 2147.65455577 0 530.15287741 0 276.55345700 0 26128
0.15650000 0.15649500 9870.55682748 0 21.64584140 0 1813.32570787 0 521.36920213 0 228.50067451 0 26331
0.15750000 0.15749700 9806.42592213 0 157.75737678 0 1723.06411595 0 -12.51194849 0 512.40726242 0 27345
0.15850000 0.15849900 9629.15800178 0 358.26942862 0 1723.20805618 0 -46.48117670 0 437.41994259 0 26980
0.15950000 0.15949700 9378.51378486 0 341.27673172 0 2281.77362630 0 -321.88244757 0 641.24261955 0 27777
0.16050000 0.16050000 9049.13426616 0 390.36588381 0 2110.21902556 0 -415.76026078 0 653.90271574 0 28224
0.16150000 0.16150500 8944.03575898 0 195.89046346 0 2626.27794071 0 -277.16022040 0 792.71534476 0 28075
0.16250000 0.16249700 8812.26402131 0 71.99745996 0 2796.54815177 0 -139.35517294 0 650.34185608 0 28590
0.16350000 0.16349900 8808.49943088 0 76.48806274 0 2828.92362954 0 89.59193772 0 471.09641852 0 29163
0.16450000 0.16449100 8894.64211796 0 -63.28608697 0 2558.10563680 0 297.20112832 0 608.77413425 0 28996
0.16550000 0.16550500 8831.82881927 0 -11.03574186 0 2480.84295422 0 244.55222380 0 379.06546910 0 30777
0.16650000 0.16650700 8814.06881026 0 -17.84327289 0 2315.37813213 0 313.69335613 0 279.87958337 0 29211
0.16750000 0.16749900 8826.94592402 0 151.73956824 0 2261.14588516 0 305.25845909 0 548.04686155 0 30922
0.16850000 0.16850800 8621.93075768 0 185.72274758 0 1844.37250667 0 220.58506950 0 396.49995176 0 30867
0.16950000 0.16949900 8448.60458497 0 31.44352019 0 1777.19671199 0 275.54033927 0 559.61411929 0 30852
0.17050000 0.17049200 8391.75926935 0 204.84908147 0 2015.80531183 0 -11.43195393 0 367.60118398 0 31257
0.17150000 0.17149500 8283.26155845 0 256.07076331 0 2024.98426911 0 -252.40693103 0 386.01888908 0 32608
0.17250000 0.17250900 7975.66130267 0 280.14642640 0 2255.83116925 0 -343.72482274 0 468.55753444 0 32361
0.17350000 0.17350400 7870.90603756 0 141.15996188 0 2142.58343101 0 -36.15966622 0 1007.04676521 0 32508
0.17450000 0.17449800 7901.44350941 0 -47.36685196 0 2283.62270455 0 302.64649766 0 846.96973637 0 32791
0.17550000 0.17549800 8078.88858695 0 -231.18571328 0 2378.73397474 0 470.11430331 0 806.15161093 0 33633
0.17650000 0.17650100 8110.58865291 0 -71.50153053 0 2066.00723256 0 240.26391240 0 795.65172531 0 33984
0.17750000 0.17750300 8135.61210700 0 160.61957275 0 1988.08021049 0 127.03388988 0 930.52814285 0 34069
0.17850000 0.17849800 8049.29226271 0 62.83466828 0 1873.80274603 0 -122.95816711 0 1128.48027319 0 34536
