### header ###
fiducial parameters:
Omega_m = 0.31
Omega_nu = 0
Omega_de = 0.69
Omega_k = 0
H_0 = 100
w_de = -1
zeff = 0
beta = 0
fgrowth = 0
b_1 = 2
gamma = 0.55
Lx = 3500 Ly = 3500 Lz = 3500
nx = 700 ny = 700 nz = 700
xoffset = -685.467585 yoffset = -31.7331281 zoffset = 572.489161
bins = 400 dk = 0.001
kx_ny = 0.628318531 ky_ny = 0.628318531 kz_ny = 0.628318531
############################
A(data) = 8.02027715 (not used)
A(ran) = 8.01679328 (used)
Ngal = 476339
weighted Ngal = 0
Nran = 23820508
weighted Nran = 0
SN(data) = 3488.14987
SN(ran) = 69.8291769
SN(data+ran) = 3557.97905
############################
13 columns: k_central k_mean P_0(k) sigma^{lin}_{P_0(k)} P^img_1(k) sigma^{lin}_{P_1(k)} P_2(k) sigma^{lin}_{P_2(k)} P^img_3(k) sigma^{lin}_{P_3(k)} P_4(k) sigma^{lin}_{P_4(k)} N_modes
### header ###
0.00050000 0 0 0 0 0 0 0 0 0 0 0 0
0.00150000 0.00179520 59347.77175119 0 -14259.82568744 0 57601.11251105 0 -1664.63545788 0 -36514.31278693 0 3
0.00250000 0.00253879 101262.83241492 0 9432.95640600 0 49316.13474225 0 -14731.17455497 0 85520.53315751 0 6
0.00350000 0.00331552 99721.67552341 0 1437.77459468 0 33942.54390130 0 -35071.14597007 0 52688.21126577 0 7
0.00450000 0.00420575 83340.83529371 0 919.69608748 0 27076.70600451 0 5063.28556097 0 62929.00449054 0 24
0.00550000 0.00557378 85860.67497594 0 17900.18464131 0 69226.16778464 0 38197.30615937 0 -8709.37997910 0 45
0.00650000 0.00659388 93872.27704497 0 -1517.70570754 0 74196.75584223 0 70461.83923441 0 8336.57480246 0 40
0.00750000 0.00754703 75418.58688597 0 3965.02166221 0 23597.89226974 0 48108.91916727 0 12772.81246429 0 57
0.00850000 0.00846663 89648.51729640 0 -19204.06161196 0 13299.19078617 0 20800.69085081 0 -16920.61606461 0 75
0.00950000 0.00948925 95916.67109948 0 -303.65629369 0 34442.90225986 0 7216.32126660 0 -10178.50032534 0 112
0.01050000 0.01054430 91286.66775332 0 12094.07895291 0 20290.69956966 0 320.01454637 0 16848.09233704 0 105
0.01150000 0.01145670 79520.88323128 0 8379.02609581 0 5643.43109217 0 23141.26959422 0 26736.23201634 0 144
0.01250000 0.01249090 78022.90840656 0 -851.61346940 0 15295.42022773 0 16986.05350429 0 5152.65029458 0 169
0.01350000 0.01339930 77111.32390424 0 480.46692702 0 13681.62888541 0 6711.98794344 0 4426.62688390 0 180
0.01450000 0.01448870 68812.83789916 0 9478.49687798 0 7997.16375746 0 8625.96108392 0 8213.11838073 0 267
0.01550000 0.01550050 63399.02467909 0 8995.83209448 0 10275.85927747 0 -12751.11070765 0 32060.58085188 0 238
0.01650000 0.01653350 57433.80968304 0 894.09355080 0 18291.25915391 0 6367.89330505 0 33185.30760696 0 315
0.01750000 0.01747870 64691.38643192 0 -1438.69359764 0 27670.18261479 0 -6635.90999961 0 23409.99491757 0 297
0.01850000 0.01844180 67255.29396693 0 231.57988805 0 31615.58411742 0 -4897.12318241 0 25896.17473235 0 388
0.01950000 0.01947590 69847.32520697 0 3918.47360867 0 44276.45537780 0 -13308.15936928 0 20018.65254886 0 399
0.02050000 0.02045430 66477.90604141 0 1426.14865362 0 37632.39614712 0 -2612.36002841 0 13378.02573888 0 462
0.02150000 0.02154770 72018.71882715 0 -8404.69174474 0 52541.61368517 0 7188.39686341 0 6004.59925543 0 571
0.02250000 0.02255340 78390.73103704 0 -5124.93626556 0 49327.98212981 0 21680.05488790 0 -3005.69329527 0 510
0.02350000 0.02348930 75255.93443438 0 -2739.63640220 0 35166.14651701 0 18979.40414139 0 -10966.62840593 0 555
0.02450000 0.02439640 86393.69669271 0 -2909.69623909 0 29395.91516102 0 11323.66659203 0 780.17261521 0 592
0.02550000 0.02547300 80350.08963695 0 3805.92342689 0 25040.17330062 0 -1711.41603024 0 7992.87876776 0 837
0.02650000 0.02652900 81947.93683152 0 6101.83641198 0 23824.54275878 0 7157.33899229 0 16465.32206806 0 723
0.02750000 0.02749970 74216.68602690 0 -226.58405509 0 25331.15399685 0 1858.50079313 0 11599.36748001 0 826
0.02850000 0.02848090 75608.25581011 0 5733.30515272 0 34335.16853937 0 -605.60523489 0 7516.65807731 0 831
0.02950000 0.02946900 70600.79691088 0 8356.82608455 0 39593.08342600 0 -1743.72507406 0 5194.74727354 0 996
0.03050000 0.03053250 67097.95623125 0 4820.13730795 0 41907.64220609 0 -6574.12642712 0 12562.21684624 0 1041
0.03150000 0.03150510 63104.83300866 0 4188.76012982 0 51280.58661157 0 1936.20636871 0 17444.22630528 0 1036
0.03250000 0.03246190 61504.43917937 0 1024.01399576 0 46937.68864796 0 2409.03892777 0 13680.74309942 0 1059
0.03350000 0.03345080 65559.23525120 0 -3297.62621144 0 41789.50050028 0 17583.07325851 0 15238.17630841 0 1302
0.03450000 0.03451200 62221.70438112 0 -2582.19901561 0 33489.90726272 0 17611.19696355 0 13039.65549242 0 1339
0.03550000 0.03553350 66186.92534517 0 1918.37992575 0 24206.98085801 0 15383.11304029 0 7542.43444949 0 1365
0.03650000 0.03647120 60042.33868707 0 274.28805934 0 14341.09655161 0 8626.18253041 0 6729.31613178 0 1308
0.03750000 0.03744890 59001.54015411 0 6501.84629071 0 14230.48402667 0 1728.87708648 0 5455.73304184 0 1579
0.03850000 0.03847530 51148.49377649 0 5033.26848839 0 8069.31102598 0 -5631.03008837 0 2969.74145658 0 1662
0.03950000 0.03950240 47235.53418558 0 5194.14936800 0 13836.86287937 0 -5321.37038017 0 2943.04608145 0 1683
0.04050000 0.04050350 44086.78645365 0 3661.59567288 0 14211.77179773 0 -2517.61414494 0 2437.99305717 0 1822
0.04150000 0.04152450 44866.94246037 0 703.15463100 0 22741.00505202 0 -4350.33856590 0 -3066.15926110 0 1887
0.04250000 0.04250150 41613.89342866 0 1869.25202053 0 19785.46938818 0 -2168.53696038 0 -446.26340842 0 1920
0.04350000 0.04349210 41243.63488672 0 236.13725694 0 20598.62092287 0 3981.94017453 0 568.09330563 0 2005
0.04450000 0.04448520 41797.80474389 0 -961.05343514 0 20771.34919004 0 6075.87181028 0 4371.89638232 0 2151
0.04550000 0.04548030 42814.35488549 0 47.84107963 0 19478.65526746 0 9331.57819996 0 518.34645745 0 2274
0.04650000 0.04648670 41058.50561575 0 1651.04971533 0 16009.14228554 0 4991.09400315 0 1276.43974974 0 2311
0.04750000 0.04749250 39065.15497865 0 1639.02517058 0 12126.85303437 0 2169.19022755 0 2161.83820387 0 2568
0.04850000 0.04851840 37143.22083663 0 602.11634534 0 11068.03982894 0 1408.69866970 0 4470.77224295 0 2493
0.04950000 0.04949480 38176.04729571 0 -830.70892015 0 9606.71439938 0 238.60638538 0 706.08436815 0 2644
0.05050000 0.05050630 38216.12911156 0 -1399.45327848 0 8967.68624479 0 -1966.68847894 0 -1894.31976392 0 2829
0.05150000 0.05149060 41049.97992564 0 36.58838664 0 9390.32795545 0 -2163.07830425 0 -3583.40291501 0 2784
0.05250000 0.05249300 39387.91324712 0 676.23780937 0 9997.22422341 0 -3933.39910252 0 -5991.40104424 0 3055
0.05350000 0.05348950 37900.45713098 0 1618.71852686 0 13079.40513852 0 -139.87335774 0 -5061.61363992 0 3009
0.05450000 0.05448610 38839.16882910 0 836.92492330 0 11915.15018384 0 -489.37350510 0 -6394.52224624 0 3336
0.05550000 0.05550870 36464.26587875 0 1151.32247929 0 11488.53350858 0 3676.72046858 0 -7400.02220767 0 3349
0.05650000 0.05647670 37102.91757429 0 671.20654497 0 11495.84124296 0 1305.28315590 0 -6478.37296209 0 3324
0.05750000 0.05747970 34431.71921179 0 1868.41052385 0 10554.91507987 0 2274.31087937 0 -3534.91720463 0 3639
0.05850000 0.05849280 33449.16110739 0 1571.35112129 0 10769.64067508 0 88.99757532 0 -335.64645455 0 3846
0.05950000 0.05951020 32425.19250816 0 844.17951052 0 10621.36010111 0 2771.05966004 0 1528.40157332 0 3787
0.06050000 0.06049470 31234.91759015 0 1105.23503447 0 10317.71266528 0 3500.33833422 0 4342.53257690 0 3930
0.06150000 0.06148310 30322.33657860 0 741.01201679 0 7347.91584707 0 4630.70090263 0 3391.22057313 0 4083
0.06250000 0.06249100 30107.86564686 0 -504.41968730 0 7940.51774369 0 3127.44457898 0 4136.62055225 0 4303
0.06350000 0.06350600 30666.02154097 0 -1316.66550581 0 6592.65042654 0 -360.95336016 0 2262.78458924 0 4470
0.06450000 0.06451750 31306.44480848 0 50.86349214 0 6376.76223723 0 -478.65992361 0 1535.67609072 0 4479
0.06550000 0.06550280 30432.17404080 0 930.90128020 0 8532.97570009 0 -2546.81186549 0 4302.39539943 0 4636
0.06650000 0.06648880 30385.22738357 0 456.90944873 0 8109.51463740 0 -1376.87680817 0 1857.57071785 0 4653
0.06750000 0.06749660 30783.49890730 0 498.05752946 0 9475.23054216 0 237.97637009 0 1094.82262021 0 5220
0.06850000 0.06852730 30463.17655029 0 467.71714499 0 9567.40764627 0 -543.15510844 0 -486.46369814 0 5029
0.06950000 0.06949320 28742.86944322 0 1525.48955189 0 10001.36527289 0 -414.91654963 0 -847.21664922 0 5040
0.07050000 0.07048030 28937.96380652 0 1030.27650268 0 9764.78290849 0 -576.52598821 0 958.25988759 0 5475
0.07150000 0.07148790 27932.48598974 0 258.94846053 0 9243.59750695 0 753.37316022 0 1504.70679820 0 5509
0.07250000 0.07249820 27986.18676511 0 -257.00526753 0 10391.87509692 0 1801.98764726 0 -2804.38735774 0 5916
0.07350000 0.07351270 27713.03251184 0 -11.32665612 0 8247.57545556 0 909.89375832 0 -839.03752287 0 5721
0.07450000 0.07449140 28054.39228600 0 -131.32109405 0 8839.50194037 0 -66.93153919 0 -4532.66653868 0 6028
0.07550000 0.07549160 28234.76045729 0 35.24476002 0 7109.44011513 0 -1267.01720132 0 -3171.21347898 0 6183
0.07650000 0.07648840 27869.59518477 0 585.27866098 0 7672.53426611 0 -219.67603163 0 -4522.50214450 0 6330
0.07750000 0.07749960 27088.11049907 0 1281.25621104 0 8059.19092110 0 -973.62163105 0 -2771.15931096 0 6583
0.07850000 0.07848650 26285.58839622 0 949.58472110 0 6481.36248979 0 1406.08560104 0 -3230.35076584 0 6549
0.07950000 0.07947320 25497.46031563 0 -56.32347695 0 6016.91168062 0 1901.95966805 0 -3870.02111526 0 6828
0.08050000 0.08048110 25491.03836723 0 448.24978349 0 6180.78208794 0 795.79898723 0 -4265.74600428 0 7147
0.08150000 0.08149960 24856.59415512 0 842.02372888 0 6491.88119837 0 -375.08164663 0 -3552.09038042 0 7386
0.08250000 0.08250610 23981.54832471 0 927.67923368 0 6930.37847816 0 240.61269063 0 -602.91023102 0 7227
0.08350000 0.08350160 23820.22455210 0 189.16513336 0 6783.88054849 0 122.30268548 0 153.76801815 0 7798
0.08450000 0.08449610 23687.02448453 0 -381.12492151 0 7850.46652594 0 1870.58069951 0 81.46440841 0 7371
0.08550000 0.08548940 23779.47839677 0 302.59888667 0 7483.82863422 0 1139.79618916 0 791.11760829 0 8256
0.08650000 0.08650700 23139.94091524 0 1062.52797041 0 6612.33702007 0 936.26914327 0 1330.52805648 0 8037
0.08750000 0.08749060 22029.82962892 0 777.06350640 0 5774.23953757 0 1096.43142900 0 1434.99544115 0 8155
0.08850000 0.08849210 21935.49342147 0 -2.02247085 0 5258.70102169 0 967.88948849 0 1071.63827927 0 8718
0.08950000 0.08949900 21611.29575078 0 -50.05532315 0 4104.89834164 0 737.10902229 0 155.48533573 0 8571
0.09050000 0.09049190 21605.09524888 0 497.09312997 0 3956.47382745 0 -107.32039060 0 -762.98172370 0 8932
0.09150000 0.09150830 20443.94054515 0 836.99357171 0 3855.30599558 0 144.78393379 0 743.29623740 0 9285
0.09250000 0.09250820 19944.35724933 0 1150.93494792 0 4398.38138328 0 71.84820502 0 -709.78806080 0 9204
0.09350000 0.09350330 19100.75682140 0 832.06638717 0 4104.49973795 0 -325.05245417 0 286.04133213 0 9349
0.09450000 0.09448040 18675.91171811 0 660.69558702 0 5335.43223269 0 -437.01912443 0 540.19326155 0 9564
0.09550000 0.09549270 18587.00094981 0 -226.40800512 0 5192.42208533 0 -349.63633696 0 1008.77847681 0 10155
0.09650000 0.09649430 18685.32319420 0 -41.65342163 0 5622.72584476 0 -467.11481052 0 610.72397065 0 9913
0.09750000 0.09749140 18649.55958504 0 514.50325351 0 6029.53413092 0 -53.45076228 0 -454.74038030 0 10476
0.09850000 0.09850240 18114.21268006 0 445.92127358 0 5993.10618226 0 -730.28847020 0 385.81958724 0 10575
0.09950000 0.09950330 17736.42495724 0 741.34197207 0 5320.73925765 0 652.89402695 0 -37.52078711 0 10882
0.10050000 0.10051200 17580.96951679 0 -204.07180427 0 5877.15679676 0 577.79709110 0 76.23151697 0 10875
0.10150000 0.10150300 17292.75690176 0 -210.12725871 0 5060.07458677 0 1178.94792972 0 -618.45466784 0 11118
0.10250000 0.10250800 17439.46520561 0 436.35257048 0 4849.00285875 0 345.12547183 0 -1058.19979864 0 11575
0.10350000 0.10349800 17016.17022779 0 565.16910465 0 4691.51011053 0 -521.15550626 0 -856.52958162 0 11364
0.10450000 0.10450100 16513.48668103 0 502.99800079 0 5304.81725456 0 -627.46975471 0 123.45420726 0 12093
0.10550000 0.10551000 16048.33831539 0 309.48144377 0 5122.42284782 0 -4.45901343 0 -113.51458127 0 12067
0.10650000 0.10649700 15959.98116334 0 380.47940498 0 5684.05545193 0 880.46019725 0 30.95700224 0 12054
0.10750000 0.10749900 15847.92923618 0 -46.15808626 0 5054.64914761 0 385.99120827 0 353.99218954 0 12807
0.10850000 0.10850100 15514.98442888 0 204.46044287 0 5610.66808303 0 557.94551994 0 -55.56391547 0 12736
0.10950000 0.10950300 15792.01399584 0 148.42894312 0 5182.50128229 0 251.51560888 0 27.64084095 0 12933
0.11050000 0.11050200 15586.95454020 0 126.58546072 0 4823.89082606 0 -593.26402164 0 -197.45055403 0 13428
0.11150000 0.11150900 15711.18602467 0 32.03168208 0 4543.39562143 0 -225.02950068 0 -561.37904786 0 13453
0.11250000 0.11250000 15716.83291032 0 -194.54406876 0 4494.38951179 0 152.43823194 0 -510.60911687 0 13668
0.11350000 0.11349100 15771.75164142 0 139.37288865 0 4260.47557767 0 338.63155332 0 -1043.71941224 0 13791
0.11450000 0.11448600 15426.18438383 0 181.66584776 0 4300.63489978 0 338.66698476 0 -875.56733692 0 14205
0.11550000 0.11549300 15276.37582904 0 512.00644426 0 4586.01299966 0 729.98841020 0 -475.70472011 0 14776
0.11650000 0.11649800 14784.65388384 0 395.57762710 0 4444.54190545 0 -223.71632296 0 -264.52005438 0 14553
0.11750000 0.11747300 14456.47017622 0 476.96032175 0 5234.13153292 0 282.60337528 0 6.37689511 0 14568
0.11850000 0.11849100 14491.90161564 0 48.87634200 0 4816.60523633 0 -81.12470948 0 1091.50092276 0 16015
0.11950000 0.11950300 14214.42915568 0 103.53398768 0 4470.46221785 0 319.42771316 0 1231.24251983 0 15270
0.12050000 0.12050700 14222.17978305 0 72.45153600 0 4686.82651713 0 230.63541874 0 710.09254973 0 15999
0.12150000 0.12150000 14174.56878633 0 2.60008082 0 4458.91378307 0 773.63108571 0 918.73722415 0 15670
0.12250000 0.12250700 14187.63412962 0 192.61194808 0 4006.60931423 0 585.88874608 0 -160.61846552 0 16887
0.12350000 0.12352200 13978.69936029 0 46.33015019 0 4081.17034955 0 -164.23136511 0 391.67463260 0 16407
0.12450000 0.12449800 13913.81553686 0 53.42684605 0 3974.36670435 0 350.13016265 0 191.44271058 0 16306
0.12550000 0.12549900 13855.13221532 0 473.26991589 0 4057.35377887 0 -137.91134178 0 311.80441752 0 17523
0.12650000 0.12650100 13443.24173206 0 351.80872709 0 4009.95315632 0 27.66818960 0 447.78031692 0 17154
0.12750000 0.12750600 13234.86057898 0 465.57686460 0 3818.87804693 0 154.79663713 0 962.52383988 0 18007
0.12850000 0.12850300 12763.51171145 0 287.33568690 0 4210.58368203 0 219.45237067 0 741.88340875 0 17496
0.12950000 0.12949900 12684.56603549 0 -4.15271971 0 3854.51986052 0 -13.16521566 0 662.84029634 0 18405
0.13050000 0.13049000 12751.11070765 0 50.83171456 0 4077.04037240 0 376.35828568 0 349.09600751 0 18100
0.13150000 0.13148800 12485.37491200 0 60.40706107 0 3726.65665351 0 -326.07000082 0 -99.98320384 0 19059
0.13250000 0.13249300 12543.17244756 0 251.92196320 0 3949.17716539 0 -67.60772607 0 48.10759049 0 18957
0.13350000 0.13349100 12316.63268177 0 295.56685317 0 4000.25379978 0 -488.40024775 0 -542.13756179 0 19468
0.13450000 0.13450700 12162.39519704 0 244.69727126 0 4308.93914340 0 3.78933708 0 -170.05430073 0 19953
0.13550000 0.13551000 12146.45104930 0 36.44400352 0 4033.54828051 0 17.31512300 0 -91.54764245 0 19956
0.13650000 0.13649900 12107.25501945 0 -91.08913748 0 4210.57260971 0 488.03818273 0 -179.93635063 0 19723
0.13750000 0.13749600 12170.58871741 0 142.97471592 0 4333.33147497 0 143.70106043 0 -357.78556803 0 20946
0.13850000 0.13851100 11847.27683270 0 401.22229829 0 3851.20923540 0 482.88069383 0 -145.12828310 0 20955
0.13950000 0.13949800 11649.74655794 0 87.96297729 0 3454.96394711 0 378.70451131 0 189.13413085 0 20506
0.14050000 0.14048300 11522.96843877 0 -88.41373163 0 3462.58170659 0 648.82937651 0 79.25437237 0 21447
0.14150000 0.14148400 11750.39399054 0 -79.37672156 0 3483.33124330 0 469.50532545 0 -52.27820308 0 21771
0.14250000 0.14249400 11498.72004741 0 297.86546781 0 3022.89968804 0 -76.42794002 0 129.70674909 0 22470
0.14350000 0.14350900 11503.59187033 0 290.41157874 0 3481.73682852 0 -210.81263562 0 401.79252302 0 22519
0.14450000 0.14449900 11004.35181658 0 315.70076862 0 3939.57745977 0 -615.41420744 0 541.89618511 0 22218
0.14550000 0.14550500 10973.13893292 0 334.94004023 0 4005.74567289 0 -53.26297565 0 908.73448591 0 23559
0.14650000 0.14650700 10731.02040611 0 62.83422539 0 3780.61209235 0 308.16272989 0 957.96757822 0 23044
0.14750000 0.14750500 10728.75057952 0 48.18111073 0 3854.27626937 0 703.03615713 0 759.15844994 0 23649
0.14850000 0.14849900 10709.42937272 0 -39.27442192 0 3354.02863406 0 471.44851845 0 433.41176100 0 23640
0.14950000 0.14949500 10558.45822381 0 197.69746687 0 2983.23862054 0 328.88347855 0 -26.25536095 0 24457
0.15050000 0.15050000 10428.08159907 0 224.40059263 0 2536.89106245 0 -187.17654383 0 229.17940803 0 24591
0.15150000 0.15149900 10186.39489293 0 126.00969983 0 2692.68974497 0 -204.73282206 0 -467.31300513 0 25020
0.15250000 0.15250500 10087.22007953 0 206.32612960 0 2673.88893743 0 -273.97028362 0 -662.30771751 0 25297
0.15350000 0.15350100 10013.27909439 0 223.68310599 0 2940.74303788 0 -198.42048968 0 -930.33991333 0 25452
0.15450000 0.15450400 9628.34972207 0 146.60865292 0 2830.50697199 0 -168.40009540 0 -689.29097310 0 26061
0.15550000 0.15549900 9853.41686866 0 122.36247604 0 3065.52813859 0 256.31103276 0 -580.28836419 0 26128
0.15650000 0.15649500 9662.00958952 0 92.19227320 0 3038.47844906 0 253.63263739 0 -554.14660529 0 26331
0.15750000 0.15749700 9570.88435626 0 167.97934706 0 2962.62195173 0 499.02967958 0 -142.95478573 0 27345
0.15850000 0.15849900 9429.32468346 0 113.91650666 0 2770.63891169 0 276.23014511 0 -22.28803624 0 26980
0.15950000 0.15949700 9349.78110196 0 175.16971479 0 2568.27003098 0 381.91548550 0 55.33095375 0 27777
0.16050000 0.16050000 9160.76544498 0 16.67813215 0 2492.13672553 0 65.14634826 0 87.85236476 0 28224
0.16150000 0.16150500 9125.02398047 0 168.23401053 0 2654.14698228 0 -58.15882551 0 40.26960247 0 28075
0.16250000 0.16249700 9017.26811533 0 165.93650313 0 2519.29713831 0 -213.98153498 0 125.50812352 0 28590
0.16350000 0.16349900 8889.55992087 0 165.88335597 0 2697.70550811 0 -46.22219502 0 146.80241861 0 29163
0.16450000 0.16449100 8701.68471335 0 195.92700213 0 2536.45924178 0 237.25777621 0 599.04045350 0 28996
0.16550000 0.16550500 8675.43223121 0 -19.34479086 0 2370.57367135 0 715.55563480 0 519.59873739 0 30777
0.16650000 0.16650700 8630.78861754 0 -142.69569333 0 2107.29593181 0 755.63855788 0 826.48150653 0 29211
0.16750000 0.16749900 8721.33808990 0 -83.09613692 0 1871.03466483 0 474.22656475 0 330.92410802 0 30922
0.16850000 0.16850800 8758.72933082 0 146.67176518 0 1778.00499170 0 -31.68201807 0 712.44098983 0 30867
0.16950000 0.16949900 8589.02380832 0 291.58413794 0 1833.68771322 0 -431.57818401 0 656.83688182 0 30852
0.17050000 0.17049200 8297.25697702 0 263.63316116 0 1806.53837276 0 -423.31158630 0 765.09543050 0 31257
0.17150000 0.17149500 8383.44395341 0 57.07561998 0 2300.07617923 0 -315.91557173 0 442.16996994 0 32608
0.17250000 0.17250900 8176.87866160 0 169.06443489 0 2415.90376915 0 -237.79699843 0 115.72461731 0 32361
0.17350000 0.17350400 8184.66250594 0 106.38112529 0 2694.01842395 0 -79.26190155 0 467.81125975 0 32508
0.17450000 0.17449800 7992.85662311 0 166.68831398 0 2413.91075069 0 77.31737987 0 268.20713855 0 32791
0.17550000 0.17549800 8025.40925808 0 55.99163938 0 2592.27483119 0 266.98918282 0 391.13762485 0 33633
0.17650000 0.17650100 7941.17101086 0 -28.57357360 0 2478.18559626 0 160.54538817 0 175.11546040 0 33984
0.17750000 0.17750300 7963.10528632 0 5.92183363 0 2434.28382835 0 266.91278378 0 387.81814187 0 34069
0.17850000 0.17849800 7917.65339294 0 70.59049965 0 2375.21297545 0 -84.41053259 0 441.50673768 0 34536
