### header ###
fiducial parameters:
Omega_m = 0.31
Omega_nu = 0
Omega_de = 0.69
Omega_k = 0
H_0 = 100
w_de = -1
zeff = 0
beta = 0
fgrowth = 0
b_1 = 2
gamma = 0.55
Lx = 3500 Ly = 3500 Lz = 3500
nx = 700 ny = 700 nz = 700
xoffset = -685.467585 yoffset = -31.7331281 zoffset = 572.489161
bins = 400 dk = 0.001
kx_ny = 0.628318531 ky_ny = 0.628318531 kz_ny = 0.628318531
############################
A(data) = 7.9938221 (not used)
A(ran) = 7.98946796 (used)
Ngal = 475397
weighted Ngal = 0
Nran = 23820508
weighted Nran = 0
SN(data) = 3492.75028
SN(ran) = 69.5911635
SN(data+ran) = 3562.34144
############################
13 columns: k_central k_mean P_0(k) sigma^{lin}_{P_0(k)} P^img_1(k) sigma^{lin}_{P_1(k)} P_2(k) sigma^{lin}_{P_2(k)} P^img_3(k) sigma^{lin}_{P_3(k)} P_4(k) sigma^{lin}_{P_4(k)} N_modes
### header ###
0.00050000 0 0 0 0 0 0 0 0 0 0 0 0
0.00150000 0.00179520 5622.03936062 0 -3393.09179602 0 13508.45772524 0 -25865.61511585 0 -17245.14590504 0 3
0.00250000 0.00253879 8819.35030920 0 -4403.30856783 0 -2463.16045148 0 8781.97014061 0 33765.38670421 0 6
0.00350000 0.00331552 17704.09376877 0 -12145.89743306 0 8115.20581236 0 8617.66791263 0 -24040.01019975 0 7
0.00450000 0.00420575 37536.95270718 0 -28943.61069218 0 11984.13076746 0 -14254.28952503 0 -11788.03989492 0 24
0.00550000 0.00557378 74755.24390608 0 -19226.98132433 0 28722.27491906 0 -12400.11801090 0 -24726.05144551 0 45
0.00650000 0.00659388 77164.58178662 0 7476.52089984 0 38015.16641610 0 -13305.16984157 0 43170.10868192 0 40
0.00750000 0.00754703 88751.88043258 0 12163.05953653 0 24461.53360559 0 -411.42655284 0 -889.30919925 0 57
0.00850000 0.00846663 74828.87486613 0 8453.25496139 0 42905.14794901 0 6046.23119674 0 16710.57406280 0 75
0.00950000 0.00948925 76386.97241461 0 4310.61106445 0 30392.86728770 0 17065.55279648 0 -20424.45325347 0 112
0.01050000 0.01054430 66080.74175016 0 4810.62618093 0 33409.07929154 0 29765.84153322 0 24121.05961742 0 105
0.01150000 0.01145670 74506.55949066 0 -65.12807892 0 26186.82325884 0 42579.51087609 0 -16747.99852068 0 144
0.01250000 0.01249090 64762.69220375 0 -3894.61274869 0 12896.04743953 0 23245.79234051 0 9143.65870314 0 169
0.01350000 0.01339930 64348.36580904 0 5948.10825420 0 6850.82382434 0 14424.47115749 0 2371.26015549 0 180
0.01450000 0.01448870 61726.32856873 0 745.27929078 0 -5905.74553944 0 12846.55414759 0 21059.11891207 0 267
0.01550000 0.01550050 64178.51634632 0 173.85432260 0 -5613.60224910 0 9396.89384406 0 28734.12230661 0 238
0.01650000 0.01653350 71487.46868236 0 -13379.57586436 0 -1732.88526807 0 -4987.78337803 0 -1837.16442321 0 315
0.01750000 0.01747870 73572.94106195 0 -9340.39177051 0 -2023.63344548 0 -17613.52215176 0 -5167.68651168 0 297
0.01850000 0.01844180 76066.98222735 0 8492.82745030 0 5691.61784978 0 -19815.14321870 0 -11057.85329011 0 388
0.01950000 0.01947590 80480.85379305 0 2225.47085460 0 11900.20254534 0 -31171.03027595 0 -11651.18596017 0 399
0.02050000 0.02045430 74763.88031944 0 2028.89279977 0 25220.65219516 0 -19386.09063198 0 -10188.17753723 0 462
0.02150000 0.02154770 72756.91072281 0 5748.42994842 0 29460.68826121 0 7533.39943244 0 -17703.20798279 0 571
0.02250000 0.02255340 72191.77926407 0 865.32322199 0 37417.81449213 0 9843.45177632 0 -21961.95627778 0 510
0.02350000 0.02348930 68487.42227274 0 4499.47170888 0 34059.02475840 0 12661.20343012 0 -12675.15455939 0 555
0.02450000 0.02439640 68847.16210610 0 2907.96895642 0 28436.71966198 0 7018.27059257 0 -2706.05404103 0 592
0.02550000 0.02547300 67721.10667205 0 952.08595927 0 29296.37496090 0 -4063.52106379 0 11177.84407417 0 837
0.02650000 0.02652900 65297.26404600 0 783.99256727 0 32617.40806701 0 1190.36349660 0 16662.40944984 0 723
0.02750000 0.02749970 65453.60527243 0 5796.84922485 0 37911.86162554 0 5281.21105805 0 6423.90819631 0 826
0.02850000 0.02848090 62033.25341271 0 4337.73826025 0 31428.79399773 0 7503.73667425 0 16849.31029278 0 831
0.02950000 0.02946900 59152.12377165 0 -91.97237683 0 26687.84595688 0 9910.57220937 0 8132.97689369 0 996
0.03050000 0.03053250 58714.43477157 0 -554.26397193 0 24883.94279743 0 8026.70472008 0 10255.23153633 0 1041
0.03150000 0.03150510 57504.22966889 0 1692.13911273 0 18840.88935790 0 7009.58988991 0 5373.07813707 0 1036
0.03250000 0.03246190 59129.09333602 0 -202.94242714 0 18358.24671906 0 902.20735043 0 5785.68832144 0 1059
0.03350000 0.03345080 55466.36828602 0 1588.93397310 0 13365.73545833 0 2283.41233037 0 7003.92085961 0 1302
0.03450000 0.03451200 53326.64151481 0 438.94681618 0 14882.20106549 0 6859.48238235 0 4819.68334263 0 1339
0.03550000 0.03553350 52790.63027034 0 96.84829651 0 11057.44361409 0 5692.62543134 0 4092.24267437 0 1365
0.03650000 0.03647120 53151.47733618 0 3606.89838827 0 12202.58773613 0 4141.90205118 0 1820.46735738 0 1308
0.03750000 0.03744890 49025.37549251 0 2341.98492867 0 8757.41172416 0 1480.04873083 0 7357.05051505 0 1579
0.03850000 0.03847530 48331.58361938 0 1855.25660196 0 8556.68154753 0 -480.02403403 0 7678.85656358 0 1662
0.03950000 0.03950240 46395.47690159 0 1824.76341941 0 11475.35744205 0 -771.29261070 0 6281.87241353 0 1683
0.04050000 0.04050350 43789.05163928 0 2294.70610169 0 12029.19512947 0 -599.02938118 0 1917.94810509 0 1822
0.04150000 0.04152450 43463.08239662 0 786.62556611 0 8740.33819929 0 1699.76794453 0 4891.76417720 0 1887
0.04250000 0.04250150 42813.02620652 0 -1809.93757648 0 9662.82894156 0 1227.71044822 0 -1126.19937428 0 1920
0.04350000 0.04349210 43016.09264369 0 959.55313513 0 10470.79862822 0 -3074.43028774 0 -7834.32307636 0 2005
0.04450000 0.04448520 41824.59976995 0 3193.15882677 0 12445.84671240 0 -3835.88513785 0 -9359.21472271 0 2151
0.04550000 0.04548030 39135.46424125 0 2763.91801053 0 12428.79533218 0 -3979.18316565 0 -5429.01552205 0 2274
0.04650000 0.04648670 37208.10466007 0 1823.49010206 0 13300.85163490 0 -1939.08517316 0 -3717.75450436 0 2311
0.04750000 0.04749250 38801.52292472 0 -1376.24568566 0 16290.49005918 0 1874.59995342 0 -5282.29614588 0 2568
0.04850000 0.04851840 37460.77511243 0 -1109.00405384 0 12547.93354723 0 3898.99738931 0 -3651.08803662 0 2493
0.04950000 0.04949480 39514.58064304 0 623.90668058 0 14266.57980558 0 4466.11079420 0 -2558.64818072 0 2644
0.05050000 0.05050630 37900.12496123 0 930.18379355 0 9773.00964583 0 4090.03928173 0 1278.01201987 0 2829
0.05150000 0.05149060 36660.91036753 0 1546.41624580 0 9568.40415550 0 3730.64269045 0 2746.19121850 0 2784
0.05250000 0.05249300 36376.35161969 0 1438.22855999 0 9299.18057754 0 -177.02211474 0 3792.58127548 0 3055
0.05350000 0.05348950 35500.75217303 0 -324.89965608 0 9003.48307093 0 2625.68003517 0 4978.89230120 0 3009
0.05450000 0.05448610 35718.21263247 0 -1082.63752674 0 8952.76075094 0 -468.79669666 0 4796.80791956 0 3336
0.05550000 0.05550870 36493.27536978 0 -489.58166481 0 11005.75800184 0 1298.17472336 0 6753.66417406 0 3349
0.05650000 0.05647670 36345.68127994 0 1061.08856818 0 11186.81265727 0 168.68686861 0 5264.53613687 0 3324
0.05750000 0.05747970 35817.86355584 0 1802.45268490 0 10206.83440455 0 1032.67476823 0 6857.34542366 0 3639
0.05850000 0.05849280 33395.12816227 0 2392.08719847 0 11664.91564294 0 1405.78664827 0 6916.00660055 0 3846
0.05950000 0.05951020 32149.93451317 0 950.51479638 0 9896.42177826 0 1407.55822025 0 7367.00453506 0 3787
0.06050000 0.06049470 31778.79018524 0 48.27256813 0 11070.28751088 0 1381.70434179 0 6673.34552982 0 3930
0.06150000 0.06148310 31376.86479433 0 -246.92834471 0 8099.42774949 0 1108.27328040 0 4225.12164452 0 4083
0.06250000 0.06249100 32241.83480916 0 -486.70286036 0 9327.88004347 0 -572.50451984 0 2642.13350985 0 4303
0.06350000 0.06350600 32347.68623443 0 542.93366195 0 7863.64259248 0 -450.47864248 0 2460.22628540 0 4470
0.06450000 0.06451750 31374.76105261 0 951.04405351 0 8126.77639179 0 -218.92200631 0 2101.13971921 0 4479
0.06550000 0.06550280 30516.54515592 0 1206.69517571 0 8578.38330417 0 -169.37888891 0 2624.39564549 0 4636
0.06650000 0.06648880 30274.72558188 0 1416.81468379 0 9783.16296769 0 2059.43027162 0 2213.06985080 0 4653
0.06750000 0.06749660 28686.51130989 0 1053.80962185 0 8479.70674539 0 1468.86568277 0 3970.11493162 0 5220
0.06850000 0.06852730 28343.04779402 0 89.45940199 0 8773.05691913 0 -14.39734396 0 3538.81466296 0 5029
0.06950000 0.06949320 27881.44257233 0 -348.12053569 0 9091.77378904 0 526.66066616 0 4479.05434191 0 5040
0.07050000 0.07048030 28432.29073206 0 414.37732741 0 10461.97398534 0 -2205.46316365 0 2768.24728953 0 5475
0.07150000 0.07148790 27608.62048880 0 891.51923528 0 9866.59293520 0 -1877.92165087 0 3335.37176674 0 5509
0.07250000 0.07249820 27818.10887437 0 -50.11002043 0 10979.41694109 0 -456.57063559 0 4087.59229795 0 5916
0.07350000 0.07351270 28036.67656629 0 -613.61827636 0 11177.62262767 0 885.33977080 0 3340.16608339 0 5721
0.07450000 0.07449140 28888.13834484 0 -38.74438973 0 11847.94117219 0 2087.55397666 0 1949.57066477 0 6028
0.07550000 0.07549160 29049.24067095 0 602.96116372 0 11717.73063233 0 888.41676987 0 1413.71443284 0 6183
0.07650000 0.07648840 27117.78432959 0 1546.61554764 0 10826.49706302 0 530.27688745 0 2383.82724416 0 6330
0.07750000 0.07749960 26252.92503800 0 1171.80628021 0 10287.75095432 0 327.13958739 0 1429.22675992 0 6583
0.07850000 0.07848650 25618.03793290 0 355.60874897 0 9910.24003963 0 468.04156411 0 682.53021156 0 6549
0.07950000 0.07947320 24814.85149056 0 932.30857268 0 9845.52230107 0 217.51139213 0 116.40888698 0 6828
0.08050000 0.08048110 24611.89577663 0 942.00128583 0 9004.22491669 0 -462.23745144 0 92.63959512 0 7147
0.08150000 0.08149960 23536.77303674 0 570.19704735 0 9012.51808798 0 1319.03498332 0 988.35225198 0 7386
0.08250000 0.08250610 23725.99906789 0 -160.07038544 0 8281.94395180 0 1326.78561069 0 -279.91501481 0 7227
0.08350000 0.08350160 22949.60765161 0 -131.11957773 0 6615.16046290 0 2084.95198033 0 495.50868028 0 7798
0.08450000 0.08449610 23487.16902155 0 482.19088799 0 7801.68186279 0 343.96177049 0 -440.87118623 0 7371
0.08550000 0.08548940 22348.04824421 0 731.21411656 0 6192.78448804 0 292.46770946 0 2294.57323379 0 8256
0.08650000 0.08650700 22090.61669218 0 558.51795913 0 8067.45087541 0 -880.22435674 0 1817.14565994 0 8037
0.08750000 0.08749060 21509.43036245 0 623.15597696 0 7031.02591076 0 -520.60410449 0 2036.70986109 0 8155
0.08850000 0.08849210 21189.88306818 0 235.33562063 0 8898.87174605 0 832.35758931 0 1904.39557951 0 8718
0.08950000 0.08949900 21293.29858199 0 8.48822136 0 8357.44613474 0 701.44506405 0 1525.12416517 0 8571
0.09050000 0.09049190 21398.37494452 0 -488.84424798 0 8010.20695610 0 1016.44052558 0 938.21233628 0 8932
0.09150000 0.09150830 21070.96629963 0 470.51290701 0 7924.35214946 0 169.96129320 0 1119.63348566 0 9285
0.09250000 0.09250820 21249.67362220 0 869.19632122 0 8030.56896144 0 -860.85111000 0 853.61423850 0 9204
0.09350000 0.09350330 19992.07896930 0 914.76115231 0 8258.63670806 0 -554.42230618 0 468.30729990 0 9349
0.09450000 0.09448040 19592.03587360 0 890.57808767 0 8040.26831798 0 -296.78480890 0 541.63044932 0 9564
0.09550000 0.09549270 18636.60496500 0 497.36329469 0 8349.50727784 0 -26.17087911 0 980.96701133 0 10155
0.09650000 0.09649430 18554.78048459 0 163.42751432 0 7991.90440318 0 1514.43937172 0 -464.25372179 0 9913
0.09750000 0.09749140 18341.08461559 0 152.35297504 0 8104.52101891 0 773.94111080 0 284.78683773 0 10476
0.09850000 0.09850240 17973.92632460 0 721.29995692 0 7693.01806702 0 385.29143734 0 -511.41739658 0 10575
0.09950000 0.09950330 17502.90962682 0 316.45811564 0 7258.81684926 0 69.47850607 0 1530.35030248 0 10882
0.10050000 0.10051200 17342.36091695 0 123.63800785 0 7712.41678010 0 1093.46072426 0 2040.64053640 0 10875
0.10150000 0.10150300 17183.91594879 0 152.52902500 0 7357.54876967 0 1330.67199670 0 2361.05147200 0 11118
0.10250000 0.10250800 17427.94998780 0 -107.16737107 0 6822.27937096 0 1231.64112353 0 2147.41096463 0 11575
0.10350000 0.10349800 16852.52126697 0 540.49775049 0 6553.36581809 0 464.81176696 0 2897.41703087 0 11364
0.10450000 0.10450100 16476.39439288 0 503.10650957 0 6443.51728356 0 -90.94962619 0 2406.61408863 0 12093
0.10550000 0.10551000 15986.22257316 0 430.67578954 0 5774.85958776 0 201.10220675 0 2264.68902911 0 12067
0.10650000 0.10649700 15887.01454279 0 7.55111515 0 5354.35483580 0 414.99294867 0 2105.20326242 0 12054
0.10750000 0.10749900 15774.85189237 0 -121.40582717 0 4791.26068482 0 653.42771301 0 1182.81217108 0 12807
0.10850000 0.10850100 15605.33459940 0 247.39559682 0 4568.14226740 0 581.28487342 0 1254.79335472 0 12736
0.10950000 0.10950300 15321.99380729 0 221.70226708 0 4315.23929622 0 249.98209190 0 435.35052508 0 12933
0.11050000 0.11050200 15027.02707412 0 362.29975486 0 3966.68251093 0 42.53345000 0 1203.78315428 0 13428
0.11150000 0.11150900 14963.36120642 0 309.19577779 0 4409.23226161 0 -478.95998361 0 603.93774277 0 13453
0.11250000 0.11250000 14730.28876898 0 116.96471769 0 4692.05265445 0 -83.48101093 0 1126.68655657 0 13668
0.11350000 0.11349100 14635.06677554 0 225.67501722 0 4864.63698140 0 -10.45301647 0 542.34350703 0 13791
0.11450000 0.11448600 14478.50410261 0 31.96447307 0 4607.34936959 0 292.72458739 0 709.85117305 0 14205
0.11550000 0.11549300 14662.30469460 0 119.42609549 0 4706.83420808 0 186.33172544 0 126.54892205 0 14776
0.11650000 0.11649800 14430.67165939 0 242.46619781 0 5005.70947191 0 -75.77511575 0 274.53829388 0 14553
0.11750000 0.11747300 14117.65703677 0 174.70246269 0 4494.88776640 0 146.99064813 0 1025.47554264 0 14568
0.11850000 0.11849100 14343.64318632 0 -125.25235281 0 4500.51250741 0 447.04511455 0 320.28803280 0 16015
0.11950000 0.11950300 14342.20378409 0 -126.86448331 0 4789.94307817 0 178.75050464 0 422.35493744 0 15270
0.12050000 0.12050700 14680.90620029 0 161.78991748 0 4761.09967202 0 -186.37158581 0 480.98511182 0 15999
0.12150000 0.12150000 14267.24414507 0 295.23357620 0 4705.93734977 0 -264.33957549 0 1434.71863303 0 15670
0.12250000 0.12250700 14057.64503625 0 322.58221850 0 5289.91390536 0 104.59316627 0 912.03293147 0 16887
0.12350000 0.12352200 14123.63609217 0 272.90069704 0 5095.72747269 0 495.92389246 0 1528.77803236 0 16407
0.12450000 0.12449800 13710.63837643 0 221.92814250 0 4844.34141000 0 477.07547393 0 1006.91389731 0 16306
0.12550000 0.12549900 13586.40689197 0 322.12936041 0 4429.71606252 0 319.50632666 0 1507.72954288 0 17523
0.12650000 0.12650100 13197.65756759 0 252.55530018 0 4562.40680315 0 118.09852375 0 734.43616308 0 17154
0.12750000 0.12750600 12907.78410383 0 301.22481116 0 4203.53061113 0 279.88290507 0 1156.69255683 0 18007
0.12850000 0.12850300 12585.80089811 0 306.11213533 0 4011.18218438 0 469.71016346 0 471.88366082 0 17496
0.12950000 0.12949900 12568.19590165 0 75.32336489 0 3966.43891978 0 114.59524018 0 798.20500341 0 18405
0.13050000 0.13049000 12184.76129318 0 123.12203752 0 4118.72767534 0 365.62809570 0 529.25491187 0 18100
0.13150000 0.13148800 12375.86961955 0 93.97978932 0 3844.21152611 0 72.44511406 0 446.30880495 0 19059
0.13250000 0.13249300 12214.43512369 0 -15.88911828 0 3675.34750030 0 99.71923961 0 756.28850334 0 18957
0.13350000 0.13349100 12232.81518289 0 76.05214531 0 4055.53791760 0 -231.08606236 0 338.46657568 0 19468
0.13450000 0.13450700 12072.70936601 0 247.00474375 0 4094.19140354 0 2.82073011 0 918.26443588 0 19953
0.13550000 0.13551000 12189.74383934 0 126.86891224 0 4184.87374381 0 172.45145905 0 862.85741526 0 19956
0.13650000 0.13649900 11937.18411023 0 77.23954143 0 3827.75805143 0 1.16929286 0 862.53299614 0 19723
0.13750000 0.13749600 11967.74372673 0 238.88097903 0 4175.93837768 0 50.01911664 0 804.84839830 0 20946
0.13850000 0.13851100 11837.31174037 0 -57.56734192 0 4270.63997185 0 314.70647386 0 1095.67518922 0 20955
0.13950000 0.13949800 11765.23090580 0 175.04902645 0 4194.57310035 0 195.83178014 0 815.35271286 0 20506
0.14050000 0.14048300 11819.59602066 0 51.56049498 0 3818.78946833 0 314.62343142 0 867.05161190 0 21447
0.14150000 0.14148400 11690.04982028 0 -95.92696836 0 4069.01293690 0 194.84302153 0 457.28590778 0 21771
0.14250000 0.14249400 11785.38253697 0 190.27900924 0 3642.48484024 0 -33.51614867 0 391.98022876 0 22470
0.14350000 0.14350900 11631.14505224 0 274.35892222 0 3745.11421898 0 -182.53723973 0 -12.55059091 0 22519
0.14450000 0.14449900 11131.34030993 0 403.82761632 0 3275.49263413 0 24.63968731 0 497.62127986 0 22218
0.14550000 0.14550500 10907.73471022 0 313.59149075 0 3303.74920706 0 285.15333168 0 132.76381797 0 23559
0.14650000 0.14650700 10685.38028321 0 -4.70330214 0 3086.59877272 0 619.82874335 0 114.67828261 0 23044
0.14750000 0.14750500 10576.42860699 0 71.58634454 0 2903.60646044 0 480.18347550 0 -13.71473514 0 23649
0.14850000 0.14849900 10559.91977069 0 120.46025063 0 2734.68707301 0 438.59914518 0 286.69349206 0 23640
0.14950000 0.14949500 10540.63178085 0 104.90485222 0 2967.28340047 0 110.35586845 0 167.34158115 0 24457
0.15050000 0.15050000 10350.37602350 0 161.26508929 0 2749.98902591 0 -47.47458568 0 423.21525708 0 24591
0.15150000 0.15149900 10233.16439297 0 196.47508221 0 2851.78798029 0 -153.79680620 0 492.54019000 0 25020
0.15250000 0.15250500 10238.72270002 0 94.40474515 0 2676.30270424 0 -40.90415741 0 343.32511181 0 25297
0.15350000 0.15350100 10076.23633331 0 -58.63416042 0 2735.45106342 0 -31.32039594 0 49.25058658 0 25452
0.15450000 0.15450400 10049.57417515 0 277.38277412 0 2736.08218594 0 -238.12806094 0 -595.51502528 0 26061
0.15550000 0.15549900 9766.98630113 0 463.81304326 0 2880.13313183 0 -381.08395391 0 -313.14195436 0 26128
0.15650000 0.15649500 9394.57972818 0 351.86408871 0 2786.46126386 0 -131.34213146 0 -478.60677645 0 26331
0.15750000 0.15749700 9207.24706457 0 146.54443344 0 3083.75318524 0 -64.37416433 0 -125.69967474 0 27345
0.15850000 0.15849900 9198.54421726 0 104.52905751 0 3062.51646624 0 351.54631299 0 -450.32473716 0 26980
0.15950000 0.15949700 9159.29282578 0 113.42489544 0 3116.27260323 0 396.21207131 0 -23.19043072 0 27777
0.16050000 0.16050000 9086.63623032 0 79.12770498 0 2866.89063134 0 370.34490607 0 -17.55328870 0 28224
0.16150000 0.16150500 9060.37267585 0 58.30265501 0 2773.89417519 0 83.64632074 0 596.64993857 0 28075
0.16250000 0.16249700 8993.86122066 0 26.11806412 0 2795.90595693 0 315.37745674 0 533.11915323 0 28590
0.16350000 0.16349900 8988.97832542 0 56.69750008 0 2651.99895126 0 26.58476261 0 372.34788963 0 29163
0.16450000 0.16449100 8934.45819801 0 77.79382201 0 2500.92815144 0 277.05614054 0 347.55363266 0 28996
0.16550000 0.16550500 8789.13393477 0 59.14105145 0 2516.99409475 0 189.67335307 0 375.88328294 0 30777
0.16650000 0.16650700 8747.62378902 0 139.69287884 0 2438.35844389 0 201.82965849 0 703.62077588 0 29211
0.16750000 0.16749900 8703.32341742 0 181.65588267 0 2290.75328173 0 51.98655804 0 244.80467281 0 30922
0.16850000 0.16850800 8547.01540796 0 -4.50469785 0 2112.58850307 0 197.30550657 0 722.82572328 0 30867
0.16950000 0.16949900 8542.92972010 0 133.03619716 0 2191.55632368 0 -89.36573012 0 565.46695019 0 30852
0.17050000 0.17049200 8457.31850460 0 177.05201001 0 2348.18543056 0 95.63333031 0 805.57917174 0 31257
0.17150000 0.17149500 8190.03258348 0 79.25935492 0 2187.93567346 0 -52.27034173 0 486.43380286 0 32608
0.17250000 0.17250900 8264.93686088 0 141.84201709 0 2299.01323604 0 61.67284924 0 457.21393767 0 32361
0.17350000 0.17350400 8133.23155716 0 194.95153031 0 2309.96376529 0 -63.22873232 0 564.78046605 0 32508
0.17450000 0.17449800 7927.52990668 0 140.91526350 0 2410.04650933 0 86.92871143 0 361.39071699 0 32791
0.17550000 0.17549800 7955.03356153 0 138.21140178 0 2466.78110170 0 30.22290710 0 713.35667109 0 33633
0.17650000 0.17650100 7747.13959073 0 116.89385481 0 2331.68766658 0 11.09635176 0 280.73658131 0 33984
0.17750000 0.17750300 7750.91525350 0 -54.11908780 0 2215.64970248 0 130.14632038 0 421.94636865 0 34069
0.17850000 0.17849800 7764.32383885 0 -26.47713962 0 2024.26456799 0 139.23669906 0 188.57940738 0 34536
