### header ###
fiducial parameters:
Omega_m = 0.31
Omega_nu = 0
Omega_de = 0.69
Omega_k = 0
H_0 = 100
w_de = -1
zeff = 0
beta = 0
fgrowth = 0
b_1 = 2
gamma = 0.55
Lx = 3500 Ly = 3500 Lz = 3500
nx = 700 ny = 700 nz = 700
xoffset = -685.467585 yoffset = -31.7331281 zoffset = 572.489161
bins = 400 dk = 0.001
kx_ny = 0.628318531 ky_ny = 0.628318531 kz_ny = 0.628318531
############################
A(data) = 7.98562502 (not used)
A(ran) = 7.97620133 (used)
Ngal = 474681
weighted Ngal = 0
Nran = 23820508
weighted Nran = 0
SN(data) = 3494.73687
SN(ran) = 69.4756063
SN(data+ran) = 3564.21248
############################
13 columns: k_central k_mean P_0(k) sigma^{lin}_{P_0(k)} P^img_1(k) sigma^{lin}_{P_1(k)} P_2(k) sigma^{lin}_{P_2(k)} P^img_3(k) sigma^{lin}_{P_3(k)} P_4(k) sigma^{lin}_{P_4(k)} N_modes
### header ###
0.00050000 0 0 0 0 0 0 0 0 0 0 0 0
0.00150000 0.00179520 21723.12623145 0 -7136.48980466 0 -1668.83186899 0 10703.99286123 0 -66340.38776716 0 3
0.00250000 0.00253879 61889.64535981 0 -44114.02437271 0 -13505.24675105 0 -45589.30093154 0 39757.28600307 0 6
0.00350000 0.00331552 65638.40237366 0 -22716.64593742 0 -21157.99477270 0 -11558.28915494 0 -15266.85362969 0 7
0.00450000 0.00420575 85594.27484080 0 -867.34835020 0 -1264.27126477 0 -39429.32374194 0 7438.97464638 0 24
0.00550000 0.00557378 84425.48023294 0 -4828.14259879 0 16953.72231581 0 -16767.92870536 0 7286.34264876 0 45
0.00650000 0.00659388 68368.06261120 0 19011.40316011 0 62884.93663776 0 14206.34635856 0 31303.01238779 0 40
0.00750000 0.00754703 69791.52068988 0 9429.34682811 0 37223.71663806 0 11986.23450918 0 -5554.18815413 0 57
0.00850000 0.00846663 64759.25978306 0 6228.03877027 0 20789.06490975 0 50377.97069236 0 13344.36587143 0 75
0.00950000 0.00948925 62041.66837957 0 -1023.12267361 0 -4866.67428916 0 32662.14025928 0 19240.48956061 0 112
0.01050000 0.01054430 64542.46366311 0 -9221.90682263 0 -2499.42231526 0 43040.56248154 0 28202.53999207 0 105
0.01150000 0.01145670 73200.91094804 0 -7414.63767643 0 -14394.13298749 0 14183.64809269 0 24382.92009938 0 144
0.01250000 0.01249090 68639.22384601 0 -325.04913247 0 -7600.28734666 0 -6216.08065946 0 17000.66897305 0 169
0.01350000 0.01339930 72496.48964308 0 5119.84299614 0 856.04018487 0 -3073.54450176 0 21668.20750035 0 180
0.01450000 0.01448870 71054.20861220 0 3459.78040841 0 14273.55537021 0 -13154.47550079 0 30495.95063176 0 267
0.01550000 0.01550050 71669.38697913 0 238.68278442 0 35099.15895186 0 -14655.99346945 0 28145.84968900 0 238
0.01650000 0.01653350 77046.32935756 0 -517.38980859 0 40096.76348200 0 -5734.76669960 0 3316.30522341 0 315
0.01750000 0.01747870 75595.63335982 0 680.18841486 0 38195.53458740 0 -5041.72774455 0 6987.61132515 0 297
0.01850000 0.01844180 74781.48531590 0 -1718.94521112 0 42318.20401037 0 -3083.28814760 0 -16563.09069621 0 388
0.01950000 0.01947590 81058.05408585 0 741.58556322 0 44470.44250862 0 -1993.66066220 0 -8742.63017053 0 399
0.02050000 0.02045430 74501.46622124 0 6268.18702006 0 38065.21332428 0 2205.66246550 0 -22308.40932136 0 462
0.02150000 0.02154770 74884.45793672 0 4067.32994353 0 38813.81320527 0 -5249.38919652 0 -24739.67040504 0 571
0.02250000 0.02255340 68006.21903613 0 509.24057752 0 38363.50175489 0 5955.61529043 0 -20868.12130895 0 510
0.02350000 0.02348930 73748.54813357 0 1715.06989743 0 39818.51595931 0 12368.11899217 0 -21307.02826476 0 555
0.02450000 0.02439640 70464.05369937 0 2701.66940040 0 40204.38647924 0 3457.80953459 0 -13474.02279506 0 592
0.02550000 0.02547300 75529.75302715 0 212.85769401 0 43750.29850241 0 -2377.94783968 0 -30905.84809654 0 837
0.02650000 0.02652900 71703.37901632 0 2790.95662774 0 40617.93781122 0 -2495.40306135 0 -19323.86416649 0 723
0.02750000 0.02749970 66356.55336140 0 6780.14917502 0 41443.93324269 0 -2577.29397571 0 -18550.35155466 0 826
0.02850000 0.02848090 66156.47645192 0 2116.25344259 0 39250.83786586 0 6043.35239229 0 -20476.93607311 0 831
0.02950000 0.02946900 62419.45610238 0 -1513.03318647 0 35881.75087004 0 13198.32190707 0 -23974.24059033 0 996
0.03050000 0.03053250 60314.82860085 0 1838.21629407 0 25864.50788337 0 15058.69392310 0 -22645.89378183 0 1041
0.03150000 0.03150510 60129.69932989 0 -1594.76908828 0 17863.20307642 0 14337.44268442 0 -20569.16853885 0 1036
0.03250000 0.03246190 59358.29045977 0 -238.86326331 0 14698.84336650 0 5163.27972641 0 -16841.22749566 0 1059
0.03350000 0.03345080 58013.99950354 0 3058.64115255 0 6772.33211370 0 1508.17243587 0 -16765.71424039 0 1302
0.03450000 0.03451200 57781.92357534 0 1612.36301242 0 12125.85652514 0 -7593.69931340 0 -6238.45782792 0 1339
0.03550000 0.03553350 54583.01821198 0 3138.97086911 0 10919.40494058 0 -4400.49619732 0 -9450.77177663 0 1365
0.03650000 0.03647120 54733.71255277 0 3350.82873219 0 18870.56318842 0 -4455.09383100 0 -11991.43850184 0 1308
0.03750000 0.03744890 50731.39930057 0 4207.80452851 0 13009.64949216 0 -3199.42576262 0 -7682.11182707 0 1579
0.03850000 0.03847530 46525.13382521 0 4582.43663874 0 14918.73973740 0 3785.53927690 0 -8439.02702400 0 1662
0.03950000 0.03950240 43206.31518407 0 710.97722849 0 11850.26636040 0 6856.29355280 0 -7087.74943081 0 1683
0.04050000 0.04050350 42710.71792519 0 -132.32646114 0 10452.76181109 0 9563.94200860 0 -5948.82795531 0 1822
0.04150000 0.04152450 43018.41783190 0 -921.72564462 0 9333.52692913 0 2776.99442614 0 -3380.13717599 0 1887
0.04250000 0.04250150 42863.18383794 0 -99.79320274 0 8349.79515829 0 2209.73708103 0 499.34745530 0 1920
0.04350000 0.04349210 44467.78515066 0 139.21455441 0 11837.53318686 0 -2655.64174613 0 1422.99304104 0 2005
0.04450000 0.04448520 43247.72567890 0 -1125.75648129 0 10654.22276117 0 -2190.52659747 0 3681.41513430 0 2151
0.04550000 0.04548030 45171.43139289 0 -616.40960944 0 14689.87478339 0 -1239.21459370 0 1553.60218460 0 2274
0.04650000 0.04648670 46832.94445517 0 -537.19709046 0 16249.85462709 0 -1007.10544853 0 1642.57938685 0 2311
0.04750000 0.04749250 46701.40523633 0 1247.07594432 0 15987.55125214 0 -92.58035819 0 2556.26763088 0 2568
0.04850000 0.04851840 43637.58223576 0 1617.36770323 0 15435.81730643 0 2293.72066478 0 2103.30989487 0 2493
0.04950000 0.04949480 42667.42513515 0 3272.01592413 0 16204.34737209 0 2380.58305298 0 7995.10430505 0 2644
0.05050000 0.05050630 41147.52710729 0 1724.18242076 0 14094.73732439 0 3582.61677995 0 1452.31255716 0 2829
0.05150000 0.05149060 38833.30049695 0 1182.19212089 0 12256.28851150 0 4695.82831721 0 6225.51428021 0 2784
0.05250000 0.05249300 39450.13971260 0 -342.56887203 0 11563.49314760 0 -297.57980183 0 6972.03256413 0 3055
0.05350000 0.05348950 39486.23549150 0 710.28188649 0 10310.59316042 0 -141.38140838 0 6265.83968720 0 3009
0.05450000 0.05448610 37906.10401664 0 1046.22397211 0 10067.87672807 0 51.02138349 0 6447.11578913 0 3336
0.05550000 0.05550870 36935.28257654 0 1858.09111712 0 9161.26369960 0 2602.27314050 0 5024.25561598 0 3349
0.05650000 0.05647670 36198.86225285 0 899.21228657 0 8740.81430926 0 -189.27807108 0 1903.91946954 0 3324
0.05750000 0.05747970 34976.25614637 0 308.04314878 0 8865.77656716 0 967.06017136 0 -122.99581302 0 3639
0.05850000 0.05849280 34784.70492701 0 -1.64759515 0 9647.75950748 0 -2116.28665956 0 -629.33101251 0 3846
0.05950000 0.05951020 34423.96858442 0 1382.39082593 0 10411.39560557 0 -2146.28158750 0 25.45350319 0 3787
0.06050000 0.06049470 34116.15795446 0 495.38245578 0 12482.60683080 0 -1318.72495823 0 -90.84144957 0 3930
0.06150000 0.06148310 32901.52392186 0 637.98624882 0 11435.16490295 0 1266.10927069 0 -1404.44689697 0 4083
0.06250000 0.06249100 32899.30945689 0 700.44966205 0 12818.65188904 0 1353.22632236 0 -2647.76932318 0 4303
0.06350000 0.06350600 32164.66070517 0 849.41782739 0 11861.22796197 0 686.15639794 0 -3421.59196011 0 4470
0.06450000 0.06451750 30494.17905979 0 1884.70898598 0 11164.44656114 0 789.91847551 0 -2927.89914109 0 4479
0.06550000 0.06550280 30127.46366179 0 1012.53753109 0 11173.30442099 0 -1047.16954865 0 -943.57355595 0 4636
0.06650000 0.06648880 29140.47662746 0 1479.62798249 0 11868.09280336 0 561.45323244 0 455.90851057 0 4653
0.06750000 0.06749660 28474.80845936 0 411.60813897 0 11845.17309099 0 1042.30326190 0 2490.04405614 0 5220
0.06850000 0.06852730 29058.76287030 0 -474.93408631 0 13179.94184788 0 2000.12689989 0 1806.72660228 0 5029
0.06950000 0.06949320 28943.49996893 0 193.47337495 0 11776.08178412 0 2371.59232523 0 3187.27942230 0 5040
0.07050000 0.07048030 28844.95627805 0 447.38835662 0 11380.79978809 0 2876.52355394 0 3960.24949021 0 5475
0.07150000 0.07148790 28464.73264378 0 574.51414680 0 11296.09650323 0 405.59586659 0 5893.82064562 0 5509
0.07250000 0.07249820 27363.03632432 0 405.43421065 0 10348.52694525 0 1798.88739631 0 5685.71630065 0 5916
0.07350000 0.07351270 27232.60433796 0 607.79091180 0 10212.95740017 0 1461.40293584 0 6353.86466951 0 5721
0.07450000 0.07449140 26992.33488939 0 391.85068256 0 9837.27341908 0 1411.16779814 0 4233.27087559 0 6028
0.07550000 0.07549160 26245.61730362 0 81.00557127 0 9024.73086226 0 -623.08179238 0 4380.15633663 0 6183
0.07650000 0.07648840 26177.07961300 0 210.67866049 0 9268.77597359 0 -38.63266997 0 3885.15698329 0 6330
0.07750000 0.07749960 26757.93377298 0 100.77133192 0 9029.80198703 0 -357.64273504 0 1605.99642565 0 6583
0.07850000 0.07848650 25694.65842065 0 205.83894731 0 8550.91286629 0 95.12245324 0 2994.86456160 0 6549
0.07950000 0.07947320 26023.61719101 0 1084.23969215 0 10033.45287021 0 -98.88992248 0 159.43261953 0 6828
0.08050000 0.08048110 24495.30419629 0 1101.98419990 0 8316.25708641 0 634.52061115 0 1719.50989969 0 7147
0.08150000 0.08149960 23906.69940893 0 818.64672949 0 8452.70134515 0 1565.68209098 0 615.83606302 0 7386
0.08250000 0.08250610 23435.35054140 0 131.26794689 0 8044.34293352 0 207.36914260 0 397.21854564 0 7227
0.08350000 0.08350160 23146.80575663 0 220.72015186 0 7547.59415285 0 1050.57428854 0 -863.19401393 0 7798
0.08450000 0.08449610 22611.23740515 0 418.16627696 0 8018.87658643 0 -647.54941576 0 -312.17201870 0 7371
0.08550000 0.08548940 22074.22965145 0 423.43006018 0 7490.57168004 0 -38.86474590 0 -458.11743937 0 8256
0.08650000 0.08650700 21868.83802606 0 437.60927934 0 7884.02674247 0 625.25086081 0 -1039.22294113 0 8037
0.08750000 0.08749060 21772.95169313 0 429.98598370 0 8100.56819895 0 453.85127262 0 -85.41767126 0 8155
0.08850000 0.08849210 21495.47923318 0 -213.39580900 0 7422.04506173 0 1010.02189889 0 254.87052330 0 8718
0.08950000 0.08949900 21484.51763160 0 591.15031484 0 6873.12348653 0 1770.03291783 0 1145.02232647 0 8571
0.09050000 0.09049190 20781.53572887 0 447.52011729 0 5665.97434550 0 804.16302139 0 1392.03482085 0 8932
0.09150000 0.09150830 20743.00403850 0 177.90015009 0 6220.77532518 0 461.56646855 0 1566.71181719 0 9285
0.09250000 0.09250820 20407.62331974 0 361.35750001 0 5530.32729414 0 -67.75985981 0 623.22905430 0 9204
0.09350000 0.09350330 20173.99726607 0 871.82932006 0 6553.34367344 0 -953.83317213 0 122.73339892 0 9349
0.09450000 0.09448040 19191.99277790 0 826.13383553 0 6409.17093197 0 -1176.32378873 0 1399.20968733 0 9564
0.09550000 0.09549270 19064.21814950 0 544.75727384 0 7407.18600183 0 -716.73373016 0 528.49092145 0 10155
0.09650000 0.09649430 18724.85139381 0 138.28669359 0 7474.04069908 0 -459.21802846 0 857.64456473 0 9913
0.09750000 0.09749140 18594.64085394 0 387.17926872 0 8132.29040955 0 1052.24399512 0 -249.20149300 0 10476
0.09850000 0.09850240 18013.12235446 0 432.11740623 0 7042.76257507 0 616.51258206 0 146.61640355 0 10575
0.09950000 0.09950330 17708.19052896 0 530.02886737 0 7949.26488030 0 558.21347020 0 345.57279375 0 10882
0.10050000 0.10051200 17505.01336854 0 283.58106156 0 7633.81434622 0 85.86820416 0 525.33087995 0 10875
0.10150000 0.10150300 17190.55934369 0 23.10495237 0 7311.17787333 0 813.76494148 0 209.60243051 0 11118
0.10250000 0.10250800 17023.25651568 0 110.72003721 0 6426.34410777 0 289.99747379 0 494.57417607 0 11575
0.10350000 0.10349800 16776.01150248 0 148.08680829 0 6335.81678005 0 969.13512503 0 -289.38406700 0 11364
0.10450000 0.10450100 16900.35371019 0 305.98480360 0 5777.45051177 0 637.60868254 0 -490.37887220 0 12093
0.10550000 0.10551000 16088.53085449 0 295.52477834 0 4992.24552493 0 1010.20791394 0 -600.04914229 0 12067
0.10650000 0.10649700 15718.38303580 0 563.77731342 0 4725.53536470 0 948.97463600 0 472.77276850 0 12054
0.10750000 0.10749900 15514.43081264 0 179.19450486 0 4458.62590262 0 888.87405688 0 321.77172432 0 12807
0.10850000 0.10850100 15223.56083965 0 97.13972010 0 4357.20340728 0 1025.49990175 0 1023.53124240 0 12736
0.10950000 0.10950300 15391.30656066 0 -77.04267549 0 4230.63566228 0 113.23555869 0 890.62569867 0 12933
0.11050000 0.11050200 15118.81664687 0 -2.52554193 0 4244.53142993 0 -233.72791906 0 1337.04965580 0 13428
0.11150000 0.11150900 15392.85668613 0 366.95123851 0 4835.19566970 0 -236.80381090 0 1371.49565831 0 13453
0.11250000 0.11250000 15271.50400612 0 61.73928319 0 4559.52799869 0 -186.03720160 0 1245.64761442 0 13668
0.11350000 0.11349100 15098.22212271 0 138.21140178 0 4965.39513725 0 203.44621792 0 1068.42841231 0 13791
0.11450000 0.11448600 15098.33284595 0 93.04251702 0 4364.97617931 0 66.72072212 0 542.87608586 0 14205
0.11550000 0.11549300 14908.33175207 0 336.51120312 0 4631.69741186 0 -118.36536678 0 102.92035944 0 14776
0.11650000 0.11649800 14534.30861969 0 526.93636705 0 4446.25811580 0 -457.80298535 0 -51.62150349 0 14553
0.11750000 0.11747300 14162.49995228 0 264.31300191 0 4305.81674780 0 324.23642383 0 629.97099288 0 14568
0.11850000 0.11849100 14150.87401122 0 -251.82563398 0 3966.94824673 0 396.17442541 0 -349.22666094 0 16015
0.11950000 0.11950300 14340.76438186 0 -92.75928695 0 4274.65922576 0 195.45975002 0 -146.50235861 0 15270
0.12050000 0.12050700 14319.61624146 0 339.72549902 0 4371.69708047 0 -373.10080772 0 -726.89037372 0 15999
0.12150000 0.12150000 13992.98265931 0 470.96022893 0 4297.23569607 0 40.54142805 0 125.91558507 0 15670
0.12250000 0.12250700 13687.27577107 0 158.50365148 0 4425.68573629 0 -213.69808346 0 20.23932398 0 16887
0.12350000 0.12352200 13744.74113687 0 -189.31903868 0 4497.85514945 0 289.28109437 0 -32.03422872 0 16407
0.12450000 0.12449800 13873.62299776 0 -151.05419134 0 4647.57512565 0 638.53765059 0 -1060.26367998 0 16306
0.12550000 0.12549900 13882.25941112 0 168.24951178 0 4224.86698105 0 191.41170807 0 -644.07049131 0 17523
0.12650000 0.12650100 13591.72160788 0 377.05362768 0 4130.97366659 0 -87.84394980 0 -332.94702176 0 17154
0.12750000 0.12750600 13452.87465466 0 399.73971400 0 4025.66478524 0 33.69153430 0 33.49057160 0 18007
0.12850000 0.12850300 13458.74298681 0 -106.33550731 0 4080.24027427 0 89.31955853 0 -222.81503572 0 17496
0.12950000 0.12949900 13180.60618736 0 235.32897723 0 4269.89812609 0 -31.57948834 0 274.14633358 0 18405
0.13050000 0.13049000 13059.14278410 0 344.07692267 0 4055.18360321 0 142.19079532 0 32.00344766 0 18100
0.13150000 0.13148800 12818.09827280 0 362.19678224 0 4345.30065810 0 126.59099688 0 450.11879192 0 19059
0.13250000 0.13249300 12706.82140837 0 146.52782495 0 4197.13080738 0 517.84820284 0 857.21052960 0 18957
0.13350000 0.13349100 12224.62166252 0 53.01495557 0 4292.31958385 0 471.78179543 0 598.31300176 0 19468
0.13450000 0.13450700 12492.01830689 0 315.51918250 0 3968.09976851 0 353.79842386 0 225.97286276 0 19953
0.13550000 0.13551000 12076.47395645 0 279.40900957 0 3701.26781270 0 262.47056706 0 936.44076430 0 19956
0.13650000 0.13649900 11926.44395516 0 194.66143540 0 3464.60794203 0 190.18710894 0 952.49009913 0 19723
0.13750000 0.13749600 11829.11822000 0 30.07442723 0 3375.37607631 0 91.96052944 0 733.44186831 0 20946
0.13850000 0.13851100 11619.96200418 0 228.26261953 0 3096.30920159 0 105.61436679 0 -9.26972819 0 20955
0.13950000 0.13949800 11515.43925789 0 172.04399750 0 3457.53272647 0 -112.68526414 0 -348.68190256 0 20506
0.14050000 0.14048300 11205.85705596 0 331.78664212 0 3331.92827373 0 -159.04951709 0 -718.40011505 0 21447
0.14150000 0.14148400 10909.80523496 0 437.17413698 0 3237.10488398 0 -119.86013063 0 -341.27451726 0 21771
0.14250000 0.14249400 10670.07833031 0 53.04861544 0 3111.32327404 0 37.19481787 0 -619.02821426 0 22470
0.14350000 0.14350900 10761.49144401 0 -110.68471650 0 3367.75831684 0 316.85893380 0 -332.23064235 0 22519
0.14450000 0.14449900 10861.95064709 0 -18.90776620 0 3074.85103609 0 688.93333701 0 -128.44118236 0 22218
0.14550000 0.14550500 10533.16903393 0 185.58212905 0 2848.23376402 0 253.19638779 0 -212.59638715 0 23559
0.14650000 0.14650700 10597.10063743 0 271.56316020 0 2601.54236706 0 264.91976531 0 588.61918138 0 23044
0.14750000 0.14750500 10404.38682396 0 12.23093289 0 2498.69154182 0 232.49446208 0 308.01989690 0 23649
0.14850000 0.14849900 10318.37700477 0 97.59313180 0 2566.84170108 0 50.74678983 0 347.35654528 0 23640
0.14950000 0.14949500 10211.92767396 0 243.28554985 0 2583.54983923 0 155.29599898 0 332.93484220 0 24457
0.15050000 0.15050000 9998.94043375 0 192.16351893 0 2565.53516675 0 -166.24652822 0 220.86519932 0 24591
0.15150000 0.15149900 9861.33358091 0 145.43720096 0 2394.22415716 0 162.30920952 0 99.50321855 0 25020
0.15250000 0.15250500 9773.16465838 0 73.07645802 0 2513.47309546 0 38.06864574 0 332.58606397 0 25297
0.15350000 0.15350100 9747.16683970 0 117.19391481 0 2462.16394225 0 25.45771067 0 106.73400028 0 25452
0.15450000 0.15450400 9617.35490353 0 177.13173075 0 2433.34268074 0 150.72866499 0 395.80239529 0 26061
0.15550000 0.15549900 9492.63623677 0 97.86683967 0 2271.94140186 0 49.37116420 0 -87.51687332 0 26128
0.15650000 0.15649500 9434.90513517 0 134.85870183 0 2308.35827819 0 -56.62630503 0 -310.90091582 0 26331
0.15750000 0.15749700 9410.29135709 0 72.81869430 0 2436.88582469 0 -222.67884613 0 -524.92452563 0 27345
0.15850000 0.15849900 9229.36956956 0 172.08164340 0 2470.77821096 0 -320.62241701 0 -469.44442766 0 26980
0.15950000 0.15949700 9243.55321765 0 157.64997523 0 2591.15652638 0 -326.15525772 0 -508.34039752 0 27777
0.16050000 0.16050000 9133.87076800 0 97.25254709 0 2721.56636810 0 164.69308105 0 -534.05033575 0 28224
0.16150000 0.16150500 9034.36378485 0 86.64924595 0 2693.08834866 0 189.13080916 0 -511.83814493 0 28075
0.16250000 0.16249700 8952.67217234 0 66.88226734 0 2631.48193337 0 356.74255503 0 -213.90181424 0 28590
0.16350000 0.16349900 8981.15019177 0 96.35048479 0 2574.22694174 0 404.88170164 0 -157.17054357 0 29163
0.16450000 0.16449100 8903.94287081 0 -12.65300991 0 2357.82942548 0 252.83210830 0 -6.89107173 0 28996
0.16550000 0.16550500 8880.72420567 0 111.15396162 0 2426.49998401 0 219.05819591 0 407.42390742 0 30777
0.16650000 0.16650700 8883.51443152 0 140.04054984 0 2382.58714378 0 -98.61599317 0 122.90169825 0 29211
0.16750000 0.16749900 8651.38314170 0 190.94445596 0 2239.39983922 0 -182.58042179 0 84.42647674 0 30922
0.16850000 0.16850800 8557.65591211 0 142.54400248 0 2506.44216920 0 -227.68021525 0 60.52243469 0 30867
0.16950000 0.16949900 8384.87228331 0 227.24285842 0 2518.58850952 0 -214.30927579 0 -292.33373433 0 30852
0.17050000 0.17049200 8268.79002992 0 211.90879577 0 2796.16062040 0 -215.57373529 0 -140.17895390 0 31257
0.17150000 0.17149500 8006.51987194 0 293.87057301 0 2721.17883673 0 67.99138212 0 -17.53402286 0 32608
0.17250000 0.17250900 7986.11357730 0 36.82422716 0 2681.14131019 0 140.12580674 0 57.29330188 0 32361
0.17350000 0.17350400 7902.86076698 0 -24.58045037 0 2426.61070725 0 579.14016410 0 142.24062078 0 32508
0.17450000 0.17449800 8029.30671641 0 -52.45425304 0 2365.31431706 0 456.08788223 0 91.06987163 0 32791
0.17550000 0.17549800 7880.97078082 0 97.32473865 0 2106.93054509 0 165.60101169 0 128.68255904 0 33633
0.17650000 0.17650100 7912.88122094 0 98.68597026 0 1939.06302852 0 94.97319830 0 94.11321083 0 33984
0.17750000 0.17750300 7747.19495236 0 10.53785263 0 1798.72131144 0 199.81560261 0 414.84236505 0 34069
0.17850000 0.17849800 7850.31151339 0 -158.92107812 0 1647.04153375 0 215.28253315 0 52.55312890 0 34536
