### header ###
fiducial parameters:
Omega_m = 0.31
Omega_nu = 0
Omega_de = 0.69
Omega_k = 0
H_0 = 100
w_de = -1
zeff = 0
beta = 0
fgrowth = 0
b_1 = 2
gamma = 0.55
Lx = 3500 Ly = 3500 Lz = 3500
nx = 700 ny = 700 nz = 700
xoffset = -685.467585 yoffset = -31.7331281 zoffset = 572.489161
bins = 400 dk = 0.001
kx_ny = 0.628318531 ky_ny = 0.628318531 kz_ny = 0.628318531
############################
A(data) = 8.00481985 (not used)
A(ran) = 8.00075451 (used)
Ngal = 475490
weighted Ngal = 0
Nran = 23820508
weighted Nran = 0
SN(data) = 3490.06826
SN(ran) = 69.6894734
SN(data+ran) = 3559.75774
############################
13 columns: k_central k_mean P_0(k) sigma^{lin}_{P_0(k)} P^img_1(k) sigma^{lin}_{P_1(k)} P_2(k) sigma^{lin}_{P_2(k)} P^img_3(k) sigma^{lin}_{P_3(k)} P_4(k) sigma^{lin}_{P_4(k)} N_modes
### header ###
0.00050000 0 0 0 0 0 0 0 0 0 0 0 0
0.00150000 0.00179520 21418.08368269 0 -6662.49465150 0 36598.35173231 0 -5900.74084863 0 -48318.18610635 0 3
0.00250000 0.00253879 37303.32665351 0 -1000.89165984 0 15962.08490506 0 -10158.88016576 0 26140.09804810 0 6
0.00350000 0.00331552 42837.71749086 0 -11098.78767496 0 -4105.82841693 0 -509.82187458 0 14205.12840283 0 7
0.00450000 0.00420575 41434.18959685 0 -10449.68370479 0 9022.22851685 0 -22059.06056644 0 13500.92854437 0 24
0.00550000 0.00557378 60128.92426715 0 -1723.98311891 0 44175.25432895 0 -10802.33725027 0 20177.42968676 0 45
0.00650000 0.00659388 53770.97390978 0 -5050.19807303 0 3395.07374217 0 34263.75204429 0 36955.21276121 0 40
0.00750000 0.00754703 71248.41718952 0 -5244.53951825 0 53332.50984697 0 2568.49147748 0 15071.09492690 0 57
0.00850000 0.00846663 83786.38564441 0 -1561.05385921 0 28832.44455100 0 12046.91084918 0 -2871.18669337 0 75
0.00950000 0.00948925 73712.23090817 0 18446.38242462 0 69849.42894869 0 13933.41355178 0 11878.27934220 0 112
0.01050000 0.01054430 68976.92975298 0 6245.76556230 0 39943.07961352 0 -5399.67386128 0 28147.84270747 0 105
0.01150000 0.01145670 64205.75426537 0 -186.28411445 0 51558.61268777 0 24800.34674504 0 15253.45611666 0 144
0.01250000 0.01249090 72968.39212685 0 -10848.90744846 0 47622.95483098 0 23165.07509258 0 2844.84563263 0 169
0.01350000 0.01339930 84136.82472492 0 -6104.17267252 0 46724.43567195 0 20470.95701771 0 -14466.65671505 0 180
0.01450000 0.01448870 83899.76625056 0 -3858.14051073 0 27996.26258070 0 12475.07764992 0 3071.67327886 0 267
0.01550000 0.01550050 87395.18847255 0 -3598.30626421 0 33795.17125797 0 11945.48835384 0 27865.94131758 0 238
0.01650000 0.01653350 90215.53105036 0 2523.71499591 0 15395.18187434 0 9952.44774184 0 10299.56512490 0 315
0.01750000 0.01747870 92855.39473362 0 2133.95808997 0 16561.31912424 0 13718.38900381 0 9611.05475071 0 297
0.01850000 0.01844180 81031.70195278 0 7094.71392312 0 18616.67478033 0 875.30603005 0 682.06628115 0 388
0.01950000 0.01947590 78108.38675416 0 4573.23553682 0 22850.95323747 0 -309.38843625 0 15127.01016723 0 399
0.02050000 0.02045430 73513.70412417 0 4558.44291086 0 24499.17950998 0 2478.55098298 0 -5576.03385100 0 462
0.02150000 0.02154770 71399.55442330 0 1502.50340557 0 21461.93008897 0 -3980.83294205 0 -7579.52673763 0 571
0.02250000 0.02255340 67904.02147805 0 4989.00133376 0 21529.69271687 0 2648.54438592 0 -4836.48005938 0 510
0.02350000 0.02348930 66388.55238012 0 4748.07861803 0 13004.44549950 0 -3847.92075492 0 -4660.02041875 0 555
0.02450000 0.02439640 62201.99564294 0 2715.45444480 0 16223.50249403 0 10283.55454322 0 -4137.83850798 0 592
0.02550000 0.02547300 62530.62224356 0 49.19168181 0 9595.34312179 0 4737.08379949 0 -14464.33152684 0 837
0.02650000 0.02652900 61762.42434764 0 -833.53125574 0 9961.21702310 0 3127.32278340 0 -8717.90566921 0 723
0.02750000 0.02749970 62498.62322483 0 -118.93116257 0 6576.58448323 0 -1621.98486268 0 -11216.26504129 0 826
0.02850000 0.02848090 61425.49350341 0 2286.95547432 0 11025.41137839 0 -4443.81113201 0 1705.01622650 0 831
0.02950000 0.02946900 63117.89835194 0 82.97899172 0 10566.33064676 0 4130.30932710 0 -3224.07275767 0 996
0.03050000 0.03053250 60994.44789822 0 1669.61800405 0 8730.91565087 0 4368.32002140 0 -318.07578230 0 1041
0.03150000 0.03150510 58778.43280902 0 2762.00249834 0 12837.69628773 0 8360.44673476 0 -439.02432245 0 1036
0.03250000 0.03246190 59953.09574903 0 1826.51284673 0 11137.87298157 0 -6296.74254577 0 -3188.53059500 0 1059
0.03350000 0.03345080 55662.01626556 0 2882.85692373 0 19413.66072077 0 -5681.80776999 0 3904.98751704 0 1302
0.03450000 0.03451200 54041.91369810 0 4466.50939789 0 22917.38718639 0 -8390.40844572 0 -932.85886723 0 1339
0.03550000 0.03553350 51393.19215498 0 2682.30390429 0 26825.03206138 0 -2554.10852754 0 8357.46827939 0 1365
0.03650000 0.03647120 49572.34833855 0 353.40314186 0 26919.81116183 0 6519.75023994 0 1726.74012779 0 1308
0.03750000 0.03744890 50088.87229134 0 -1103.49335777 0 23704.74020424 0 5820.32255347 0 4160.22674876 0 1579
0.03850000 0.03847530 50343.09286918 0 -1147.34751468 0 22616.66284431 0 10325.71795612 0 -3378.47632726 0 1662
0.03950000 0.03950240 50668.61921885 0 2646.28563166 0 19678.95362343 0 2802.66007507 0 -119.39509298 0 1683
0.04050000 0.04050350 46920.52654449 0 2754.42902816 0 16757.07782704 0 1212.06525325 0 2584.25846802 0 1822
0.04150000 0.04152450 45826.69157565 0 1480.35875593 0 17452.97344189 0 1470.93620751 0 5943.39144383 0 1887
0.04250000 0.04250150 45412.91879718 0 498.23247219 0 17608.31815909 0 3301.10292143 0 4407.73749776 0 1920
0.04350000 0.04349210 45292.00901016 0 -1100.04765029 0 15913.69884560 0 3820.68283587 0 -299.89170325 0 2005
0.04450000 0.04448520 44203.93165023 0 1139.89584008 0 13613.20191803 0 1754.08877009 0 2653.68194464 0 2151
0.04550000 0.04548030 43044.21634873 0 2080.04694043 0 13966.18763325 0 -639.74010507 0 -1036.88778783 0 2274
0.04650000 0.04648670 42802.61822119 0 -450.93925119 0 11537.91607727 0 1447.00891357 0 1265.89889652 0 2311
0.04750000 0.04749250 40981.22078852 0 -4.49948278 0 11472.25719110 0 -472.44392045 0 -1863.94837695 0 2568
0.04850000 0.04851840 41316.49078403 0 3045.70867716 0 14180.88001148 0 232.48449698 0 -1605.05527804 0 2493
0.04950000 0.04949480 39326.46184437 0 1872.30798218 0 11525.62579672 0 -496.08001224 0 -2482.01662065 0 2644
0.05050000 0.05050630 37853.95336674 0 2154.24258904 0 15037.76722920 0 -2602.63852722 0 -1185.54703531 0 2829
0.05150000 0.05149060 36811.16181532 0 1250.85160709 0 14123.30392242 0 -2269.90409410 0 -2254.25889913 0 2784
0.05250000 0.05249300 37256.82288927 0 -265.09913697 0 21078.93837350 0 332.66467748 0 2005.74056857 0 3055
0.05350000 0.05348950 37364.11371676 0 257.83901359 0 16926.04150377 0 1985.81038390 0 3861.13003843 0 3009
0.05450000 0.05448610 38202.73159853 0 -784.74327089 0 17839.50830131 0 5411.16693445 0 1112.45861918 0 3336
0.05550000 0.05550870 37847.97431134 0 -540.69483787 0 15499.48317413 0 3596.56790922 0 2213.04770615 0 3349
0.05650000 0.05647670 37825.71893845 0 1084.61393673 0 14715.34113048 0 2520.23828592 0 726.74421903 0 3324
0.05750000 0.05747970 35426.78904324 0 1704.68405675 0 13294.87257949 0 779.16835535 0 1879.72643981 0 3639
0.05850000 0.05849280 33391.91718807 0 2768.95591832 0 12295.81671111 0 -642.70416642 0 822.07361402 0 3846
0.05950000 0.05951020 32731.34228939 0 1044.96504878 0 12331.91249002 0 -1899.70091378 0 -712.39005713 0 3787
0.06050000 0.06049470 31797.17024444 0 -962.23263774 0 11920.68634625 0 668.43514207 0 -495.88735379 0 3930
0.06150000 0.06148310 33053.98983461 0 -1051.28845349 0 11781.72866978 0 927.62387205 0 -2771.00429841 0 4083
0.06250000 0.06249100 33313.41440511 0 -336.18678400 0 11804.53765890 0 2209.48241756 0 -3002.03942808 0 4303
0.06350000 0.06350600 34063.34296508 0 1.73658342 0 10706.40662804 0 2539.19410601 0 -3227.13979164 0 4470
0.06450000 0.06451750 33201.91609419 0 508.18759943 0 8975.80225889 0 2214.91892905 0 -423.17096778 0 4479
0.06550000 0.06550280 33159.61981338 0 281.45296073 0 9269.39602378 0 1229.85847923 0 186.57642382 0 4636
0.06650000 0.06648880 32604.34272372 0 573.62614634 0 10257.35742269 0 -1869.62847958 0 3339.88927527 0 4653
0.06750000 0.06749660 33032.73097096 0 863.99897195 0 10654.34455674 0 -818.24591133 0 1474.40184518 0 5220
0.06850000 0.06852730 31506.74316445 0 698.64265864 0 12023.54824382 0 -495.79434626 0 3555.00240185 0 5029
0.06950000 0.06949320 30937.18277578 0 1725.92077576 0 11817.16010920 0 423.37580579 0 2196.57208682 0 5040
0.07050000 0.07048030 29997.58529167 0 1568.71590798 0 11951.24596275 0 976.16715852 0 2497.16356100 0 5475
0.07150000 0.07148790 28003.79176158 0 898.09287453 0 9671.97468186 0 2579.02125838 0 2524.53434795 0 5509
0.07250000 0.07249820 27593.34068055 0 645.63722527 0 10521.83097331 0 708.13274824 0 1819.47084815 0 5916
0.07350000 0.07351270 27346.20639060 0 464.97674460 0 10546.85442740 0 1727.78092633 0 1910.72894930 0 5721
0.07450000 0.07449140 26472.93213215 0 551.26669361 0 10465.17388722 0 -1001.69772509 0 2225.83624132 0 6028
0.07550000 0.07549160 26192.91303749 0 958.64852619 0 9581.23697997 0 -338.25620151 0 2628.83564774 0 6183
0.07650000 0.07648840 25878.12684289 0 602.12963213 0 11726.14559919 0 -120.95186185 0 2752.62423921 0 6330
0.07750000 0.07749960 25405.56001963 0 179.67282930 0 10927.43237607 0 -118.23914227 0 1705.96844643 0 6583
0.07850000 0.07848650 25326.72506692 0 518.36528041 0 12146.00815631 0 1573.69845415 0 2891.44904779 0 6549
0.07950000 0.07947320 25236.92851264 0 -205.47134612 0 10049.62953677 0 803.01260684 0 337.96278490 0 6828
0.08050000 0.08048110 25691.66889295 0 -211.29649621 0 10041.44708873 0 0.35620001 0 517.75630254 0 7147
0.08150000 0.08149960 25238.25719162 0 634.22830177 0 10250.48150898 0 -185.26767503 0 495.50314412 0 7386
0.08250000 0.08250610 24670.02548193 0 1006.76109923 0 9824.62882413 0 167.42019465 0 509.98463775 0 7227
0.08350000 0.08350160 23559.80347236 0 974.13095799 0 8753.90179719 0 1192.25686415 0 -276.26446932 0 7798
0.08450000 0.08449610 22496.08522704 0 546.19999777 0 8834.58582815 0 1955.58293714 0 -497.62017263 0 7371
0.08550000 0.08548940 22586.32467431 0 246.55852906 0 8139.35455279 0 1100.01000439 0 551.63761649 0 8256
0.08650000 0.08650700 21263.29258173 0 793.42950971 0 7907.43363713 0 149.86280919 0 617.18024325 0 8037
0.08750000 0.08749060 21607.64188359 0 715.05184402 0 7718.30725691 0 -426.07966751 0 1600.85886693 0 8155
0.08850000 0.08849210 20910.97120600 0 140.39375700 0 8808.76516667 0 -199.01839522 0 2120.90381901 0 8718
0.08950000 0.08949900 20698.71473923 0 423.53635450 0 8260.84010070 0 882.64698141 0 1713.12116827 0 8571
0.09050000 0.09049190 20587.54859805 0 -80.95851389 0 7716.88999933 0 1204.69108492 0 1363.65645234 0 8932
0.09150000 0.09150830 20316.83025623 0 -56.14499107 0 7317.84341287 0 1364.27650253 0 1540.42611807 0 9285
0.09250000 0.09250820 20523.32911410 0 141.35040587 0 6854.77664430 0 410.94158502 0 356.71376698 0 9204
0.09350000 0.09350330 19818.46491614 0 647.25046299 0 6564.16133479 0 -166.05276254 0 -79.11829350 0 9349
0.09450000 0.09448040 19771.51825891 0 651.96727337 0 6060.40377251 0 -786.82486796 0 -134.49885127 0 9564
0.09550000 0.09549270 18828.48835411 0 174.12448733 0 6121.60051178 0 -407.69517938 0 -532.36623514 0 10155
0.09650000 0.09649430 19193.76434988 0 462.60173092 0 6489.57815481 0 59.62646217 0 -543.10860468 0 9913
0.09750000 0.09749140 18546.36551773 0 353.09865293 0 6304.16100339 0 759.35000116 0 -1448.45938813 0 10476
0.09850000 0.09850240 18190.61172131 0 179.54439033 0 5418.06499281 0 833.20794386 0 -952.80676762 0 10575
0.09950000 0.09950330 18035.70989709 0 525.29987744 0 5650.56166935 0 304.85321200 0 -1437.07703821 0 10882
0.10050000 0.10051200 17532.58345733 0 899.93420214 0 5955.67065205 0 55.53944563 0 -851.49278106 0 10875
0.10150000 0.10150300 16586.34257833 0 557.32214805 0 5672.70631899 0 -35.33068126 0 -153.32844686 0 11118
0.10250000 0.10250800 16213.31595519 0 489.91826348 0 6212.75896202 0 407.93987776 0 736.15237343 0 11575
0.10350000 0.10349800 16058.08196123 0 -14.35670853 0 6264.33385102 0 961.70338061 0 1388.30344739 0 11364
0.10450000 0.10450100 16155.29697314 0 -237.77263932 0 5676.19410130 0 1952.15051645 0 872.40065202 0 12093
0.10550000 0.10551000 16357.80979408 0 -100.78805113 0 5332.22125849 0 310.22439677 0 851.22593804 0 12067
0.10650000 0.10649700 16227.15636122 0 269.44502446 0 4766.71334070 0 189.82172223 0 624.00633150 0 12054
0.10750000 0.10749900 16004.27046262 0 378.97910496 0 5492.29385839 0 -526.05722446 0 1138.83289690 0 12807
0.10850000 0.10850100 15637.22289488 0 457.14307479 0 5267.09384391 0 -453.28990575 0 868.39247043 0 12736
0.10950000 0.10950300 15666.45383240 0 64.81628226 0 5286.06073632 0 77.36443725 0 936.11523795 0 12933
0.11050000 0.11050200 15386.43473774 0 97.92906614 0 5336.88270724 0 -151.38193215 0 932.55769999 0 13428
0.11150000 0.11150900 15527.38543268 0 90.68034725 0 5064.62531227 0 369.78132474 0 -568.90933597 0 13453
0.11250000 0.11250000 15530.37496038 0 11.60678594 0 5786.07585280 0 187.19758124 0 889.41549357 0 13668
0.11350000 0.11349100 15337.38433879 0 192.18012741 0 5365.71504106 0 -349.05614714 0 391.61262758 0 13791
0.11450000 0.11448600 15308.37484776 0 308.97322406 0 5715.24619094 0 -407.46044609 0 229.10300899 0 14205
0.11550000 0.11549300 14939.55570805 0 141.10792195 0 6021.40704450 0 -133.95520012 0 -47.06867425 0 14776
0.11650000 0.11649800 14896.81653425 0 301.49276142 0 5994.89989888 0 -71.80258705 0 293.41992939 0 14553
0.11750000 0.11747300 14442.96193994 0 408.83009267 0 6045.93224397 0 496.82850140 0 45.09813260 0 14568
0.11850000 0.11849100 14347.40777675 0 181.01036614 0 4997.82597664 0 384.77989594 0 -441.50784491 0 16015
0.11950000 0.11950300 14235.35584959 0 91.93428803 0 5145.26505393 0 237.81914308 0 -175.29815376 0 15270
0.12050000 0.12050700 14038.93280731 0 247.36348708 0 5098.34054134 0 27.00097130 0 -893.92857316 0 15999
0.12150000 0.12150000 14034.72532388 0 168.82748714 0 5193.14178644 0 -27.97932192 0 -451.17287725 0 15670
0.12250000 0.12250700 13720.16057578 0 141.01269996 0 5101.70652809 0 115.72793900 0 -194.72122596 0 16887
0.12350000 0.12352200 13664.24533544 0 189.65563735 0 5154.28899865 0 690.63183163 0 375.81906346 0 16407
0.12450000 0.12449800 13719.93912928 0 -125.90561998 0 5195.30088978 0 702.88557351 0 202.56264639 0 16306
0.12550000 0.12549900 13678.63935771 0 17.96794727 0 4488.80906008 0 740.54808638 0 361.25674186 0 17523
0.12650000 0.12650100 13505.80036729 0 242.14510039 0 4780.44302348 0 -291.10359904 0 339.72771348 0 17154
0.12750000 0.12750600 13339.60477176 0 239.80551815 0 4358.06704862 0 80.23980928 0 455.44347293 0 18007
0.12850000 0.12850300 13217.69847551 0 139.81024549 0 4719.62274325 0 79.18472745 0 171.22132376 0 17496
0.12950000 0.12949900 12916.08834745 0 202.93689097 0 4480.90342016 0 -290.89543933 0 17.27127659 0 18405
0.13050000 0.13049000 12894.38659080 0 250.21239625 0 4662.35667929 0 -270.50907488 0 -368.58329919 0 18100
0.13150000 0.13148800 12640.16601297 0 293.69120135 0 4916.06793018 0 148.80097324 0 -142.47313960 0 19059
0.13250000 0.13249300 12498.55097854 0 78.40866820 0 4548.35602295 0 389.83773391 0 162.91929461 0 18957
0.13350000 0.13349100 12501.31905974 0 143.37664131 0 4680.53743664 0 556.95343963 0 581.23615519 0 19468
0.13450000 0.13450700 12474.74548018 0 33.63451182 0 4711.15241476 0 438.02449152 0 645.64276143 0 19953
0.13550000 0.13551000 12440.75344298 0 63.41718329 0 4612.91874897 0 537.59015799 0 736.88314687 0 19956
0.13650000 0.13649900 12210.11691701 0 336.99838541 0 4524.49516297 0 144.32886124 0 1265.43385887 0 19723
0.13750000 0.13749600 11976.26941684 0 398.02682535 0 4214.90188871 0 167.49548646 0 1132.18950201 0 20946
0.13850000 0.13851100 11779.40348157 0 303.90874269 0 4101.66522279 0 228.26151230 0 1424.45458792 0 20955
0.13950000 0.13949800 11450.99832744 0 182.85058652 0 4104.63260585 0 -321.23582380 0 1029.59001854 0 20506
0.14050000 0.14048300 11278.04861378 0 327.93458032 0 4069.66620407 0 124.27909546 0 684.42579357 0 21447
0.14150000 0.14148400 11067.24262155 0 16.61291616 0 3777.20181631 0 116.51407407 0 714.61780889 0 21771
0.14250000 0.14249400 11051.68600518 0 36.65792084 0 3747.50584114 0 279.89619186 0 615.43524486 0 22470
0.14350000 0.14350900 10817.66134782 0 167.62946159 0 3286.31029547 0 585.49124962 0 509.43766491 0 22519
0.14450000 0.14449900 10638.68828945 0 146.50900200 0 3002.46017642 0 651.48230554 0 361.47708112 0 22218
0.14550000 0.14550500 10478.52711095 0 125.47712101 0 2610.65489039 0 588.61253799 0 113.80246172 0 23559
0.14650000 0.14650700 10464.44311378 0 26.55475661 0 2448.15745135 0 290.27649638 0 250.73833168 0 23044
0.14750000 0.14750500 10344.33053415 0 55.07540450 0 2573.80619339 0 -210.60558314 0 137.11967055 0 23649
0.14850000 0.14849900 10406.04767268 0 176.23819414 0 2738.86133947 0 -539.17017874 0 12.34409205 0 23640
0.14950000 0.14949500 10199.91420154 0 228.71215592 0 3019.23474852 0 -607.47756501 0 235.80951613 0 24457
0.15050000 0.15050000 10175.25613416 0 216.87805515 0 3331.65146561 0 -338.08679494 0 457.91924476 0 24591
0.15150000 0.15149900 10131.68653600 0 -65.42526012 0 3470.49841883 0 112.13939853 0 272.36036759 0 25020
0.15250000 0.15250500 10355.73502871 0 -16.53042734 0 3783.70127098 0 209.08313848 0 -103.79551599 0 25297
0.15350000 0.15350100 10058.62026452 0 208.55720305 0 3487.61623300 0 320.70545944 0 -101.10239443 0 25452
0.15450000 0.15450400 10026.36658233 0 249.02544303 0 3557.79262770 0 28.78416921 0 86.40410468 0 26061
0.15550000 0.15549900 9821.72787503 0 76.93317020 0 3315.87340274 0 134.32612300 0 444.57377165 0 26128
0.15650000 0.15649500 9814.98482922 0 31.23259240 0 3412.46836446 0 367.30887460 0 222.41532479 0 26331
0.15750000 0.15749700 9733.16034881 0 104.77408806 0 3232.95276217 0 160.96945821 0 -31.21631608 0 27345
0.15850000 0.15849900 9700.85130498 0 241.77085581 0 3092.94321484 0 159.29975163 0 100.62484506 0 26980
0.15950000 0.15949700 9433.26643109 0 218.31745738 0 3095.70022372 0 -86.76273728 0 214.27495159 0 27777
0.16050000 0.16050000 9149.36095042 0 211.89218729 0 2781.16869260 0 511.51704751 0 309.05737373 0 28224
0.16150000 0.16150500 9149.21701019 0 53.93395853 0 2801.22067284 0 59.04317210 0 214.85292694 0 28075
0.16250000 0.16249700 8978.92465448 0 177.13394522 0 2691.78181434 0 16.52455901 0 -50.14578404 0 28590
0.16350000 0.16349900 8960.42279971 0 193.72471672 0 2932.33914335 0 -69.82761647 0 -323.18344574 0 29163
0.16450000 0.16449100 8719.45579468 0 116.03796410 0 2716.55060496 0 -156.63021412 0 154.98043772 0 28996
0.16550000 0.16550500 8679.89437811 0 66.53227116 0 2914.04766275 0 9.77288785 0 177.31110241 0 30777
0.16650000 0.16650700 8686.90315972 0 -53.54399125 0 2669.62609237 0 438.15957389 0 324.41579549 0 29211
0.16750000 0.16749900 8782.06979153 0 -23.01305207 0 2700.38501072 0 306.72000596 0 37.20688670 0 30922
0.16850000 0.16850800 8682.62924234 0 104.70499675 0 2662.28514102 0 255.23591002 0 100.76767805 0 30867
0.16950000 0.16949900 8541.89999389 0 247.63586627 0 2389.56270841 0 200.18209656 0 210.89457082 0 30852
0.17050000 0.17049200 8337.61560099 0 130.47959736 0 2098.91418192 0 47.18880897 0 286.87950712 0 31257
0.17150000 0.17149500 8144.12672478 0 54.29901308 0 1870.85750763 0 387.30438599 0 146.96628902 0 32608
0.17250000 0.17250900 8229.94831445 0 -7.37308324 0 1682.11865877 0 148.94712793 0 -136.22613394 0 32361
0.17350000 0.17350400 8106.02685508 0 119.61432502 0 1631.85030410 0 127.25533637 0 -470.72992457 0 32508
0.17450000 0.17449800 8013.42900262 0 211.24667075 0 1451.86966417 0 -125.88679703 0 43.45256369 0 32791
0.17550000 0.17549800 7898.46505403 0 133.90758912 0 1637.96222740 0 100.96565122 0 222.36328487 0 33633
0.17650000 0.17650100 7878.25806124 0 -3.46768605 0 1860.07306326 0 -246.90509283 0 25.90392536 0 33984
0.17750000 0.17750300 7850.42223664 0 105.90401881 0 2144.45465390 0 -66.93851475 0 226.74238933 0 34069
0.17850000 0.17849800 7892.23133516 0 224.36183950 0 2335.89515002 0 -386.74855529 0 312.36246269 0 34536
