### header ###
fiducial parameters:
Omega_m = 0.31
Omega_nu = 0
Omega_de = 0.69
Omega_k = 0
H_0 = 100
w_de = -1
zeff = 0
beta = 0
fgrowth = 0
b_1 = 2
gamma = 0.55
Lx = 3500 Ly = 3500 Lz = 3500
nx = 700 ny = 700 nz = 700
xoffset = -685.467585 yoffset = -31.7331281 zoffset = 572.489161
bins = 400 dk = 0.001
kx_ny = 0.628318531 ky_ny = 0.628318531 kz_ny = 0.628318531
############################
A(data) = 7.9934337 (not used)
A(ran) = 7.99576827 (used)
Ngal = 475856
weighted Ngal = 0
Nran = 23820508
weighted Nran = 0
SN(data) = 3483.56122
SN(ran) = 69.6460414
SN(data+ran) = 3553.20726
############################
13 columns: k_central k_mean P_0(k) sigma^{lin}_{P_0(k)} P^img_1(k) sigma^{lin}_{P_1(k)} P_2(k) sigma^{lin}_{P_2(k)} P^img_3(k) sigma^{lin}_{P_3(k)} P_4(k) sigma^{lin}_{P_4(k)} N_modes
### header ###
0.00050000 0 0 0 0 0 0 0 0 0 0 0 0
0.00150000 0.00179520 33383.17005147 0 -37652.76922479 0 9579.57613125 0 -21846.91482292 0 -61983.87084402 0 3
0.00250000 0.00253879 56885.95105101 0 -30753.93580003 0 -11271.29449564 0 1377.95082368 0 63917.20948060 0 6
0.00350000 0.00331552 63802.83236522 0 -13951.12927149 0 -12023.32679732 0 -22653.09079296 0 35176.22233260 0 7
0.00450000 0.00420575 59350.65055565 0 8278.03542114 0 -14988.93827675 0 -33901.35485298 0 12494.01132536 0 24
0.00550000 0.00557378 45399.85345390 0 2389.28590029 0 -10798.81625098 0 -8563.51317194 0 -7308.34335817 0 45
0.00650000 0.00659388 39694.94881434 0 275.84150651 0 -9989.32965581 0 -21854.88689679 0 16181.75982946 0 40
0.00750000 0.00754703 39869.67009997 0 1372.80219264 0 -14188.29846911 0 -17546.31314011 0 -2271.64244909 0 57
0.00850000 0.00846663 39873.65613691 0 -2361.19541223 0 1612.61767589 0 -27239.69062584 0 5526.64020998 0 75
0.00950000 0.00948925 49479.11936358 0 -8774.33023649 0 -6292.25825421 0 -8867.92459818 0 15714.83989186 0 112
0.01050000 0.01054430 55998.94710979 0 -2151.14233809 0 17280.24517472 0 -17779.82847053 0 17323.31651826 0 105
0.01150000 0.01145670 60007.46086389 0 3140.54313924 0 13794.78804506 0 -1527.01753271 0 20518.01439819 0 144
0.01250000 0.01249090 60189.71133040 0 334.56911735 0 27284.53354136 0 8856.95192428 0 4918.47062467 0 169
0.01350000 0.01339930 59080.26438357 0 1882.39487009 0 19258.75889656 0 14451.81979979 0 21507.32662073 0 180
0.01450000 0.01448870 64442.36984675 0 -5686.88996708 0 9202.45274792 0 23495.36254192 0 7152.45609705 0 267
0.01550000 0.01550050 71740.13913472 0 -13944.92876960 0 15370.26914350 0 5796.25131931 0 12722.65483287 0 238
0.01650000 0.01653350 79798.68786098 0 -3282.12495669 0 4032.15316758 0 5180.06537083 0 -5939.20610505 0 315
0.01750000 0.01747870 85582.64889974 0 1319.88755233 0 20231.24118538 0 -10365.21293875 0 -6603.57881114 0 297
0.01850000 0.01844180 76619.38051255 0 7647.90941571 0 5555.28431428 0 -17392.73999487 0 -4371.42027235 0 388
0.01950000 0.01947590 73845.32025249 0 8727.81539992 0 13612.98047153 0 -6620.09871977 0 -1901.32854553 0 399
0.02050000 0.02045430 71190.73037722 0 634.54164857 0 11450.88760420 0 783.41127022 0 -9155.94898368 0 462
0.02150000 0.02154770 70532.92355974 0 -303.91760055 0 14134.37624724 0 12158.40916011 0 -11470.70706562 0 571
0.02250000 0.02255340 68551.64175669 0 4073.95119377 0 15337.38433879 0 4753.38226162 0 -23786.45396140 0 510
0.02350000 0.02348930 64516.77586953 0 1116.10141404 0 3779.46057057 0 -379.37438696 0 -7354.42637407 0 555
0.02450000 0.02439640 66992.87986872 0 -732.88603761 0 17571.00442445 0 2217.16661099 0 -8217.89055272 0 592
0.02550000 0.02547300 68266.52939261 0 -3136.26922186 0 15695.57404667 0 -6778.87585767 0 -11753.27279499 0 837
0.02650000 0.02652900 70269.95584530 0 2985.86276152 0 30890.56828829 0 -8896.85658293 0 -7596.20165881 0 723
0.02750000 0.02749970 71382.28159658 0 -3116.87050877 0 20246.07810064 0 -921.51859215 0 -7191.00993207 0 826
0.02850000 0.02848090 68924.33621009 0 3926.06922349 0 31196.82879278 0 3418.84602355 0 -2468.60803529 0 831
0.02950000 0.02946900 70120.92235324 0 1750.63420475 0 23377.99589884 0 3610.17579642 0 -3725.16188966 0 996
0.03050000 0.03053250 66758.14658257 0 3470.31018931 0 29327.26674715 0 4119.12627903 0 -3851.26459702 0 1041
0.03150000 0.03150510 63313.32488499 0 3642.67306976 0 20118.19274898 0 3969.38415819 0 -541.13994533 0 1036
0.03250000 0.03246190 60842.09270872 0 -148.77439966 0 23699.97910457 0 3128.75111330 0 6633.98341509 0 1059
0.03350000 0.03345080 60409.38625480 0 2950.76349184 0 25644.16861947 0 8378.28425005 0 4941.22425217 0 1302
0.03450000 0.03451200 59491.93342033 0 3435.81989750 0 21950.66250647 0 5603.69251839 0 2533.44756943 0 1339
0.03550000 0.03553350 56467.63861937 0 -488.93725550 0 20518.45729118 0 2865.97162838 0 9032.49256196 0 1365
0.03650000 0.03647120 57169.95618261 0 848.14340281 0 18977.74329266 0 -507.64062659 0 3486.75259167 0 1308
0.03750000 0.03744890 56918.83585573 0 3186.02824959 0 25194.41078534 0 -867.79235043 0 7409.42261144 0 1579
0.03850000 0.03847530 51357.31782257 0 4497.52297971 0 23327.17392792 0 -3923.03540649 0 3130.72198712 0 1662
0.03950000 0.03950240 49863.55048128 0 3449.63815887 0 22063.04660338 0 1593.34075838 0 1195.58963392 0 1683
0.04050000 0.04050350 47432.40012085 0 601.84618061 0 20140.78029161 0 2798.22007282 0 -2665.42968127 0 1822
0.04150000 0.04152450 44381.75318682 0 483.14753686 0 15495.82930694 0 4886.59340151 0 -7099.14285305 0 1887
0.04250000 0.04250150 46358.93822969 0 644.58203271 0 15747.83541982 0 4390.98507031 0 -6533.33598249 0 1920
0.04350000 0.04349210 44369.57362952 0 -256.09733689 0 13066.33979524 0 3073.53342943 0 -6173.12003917 0 2005
0.04450000 0.04448520 42779.47706231 0 1645.76821639 0 12982.96518935 0 -254.39994950 0 -7932.96641817 0 2151
0.04550000 0.04548030 42897.06515189 0 543.13074933 0 11198.77076808 0 711.24960768 0 -8373.92175407 0 2274
0.04650000 0.04648670 40539.76719800 0 2222.01628926 0 14147.55231378 0 -933.05816907 0 -9174.51727241 0 2311
0.04750000 0.04749250 38827.09999505 0 2934.25465554 0 13948.36119029 0 -1876.72583979 0 -4786.15634308 0 2568
0.04850000 0.04851840 37673.03157920 0 842.27949958 0 13991.10036409 0 1294.94160452 0 -988.03336903 0 2493
0.04950000 0.04949480 36930.07858387 0 -320.39100542 0 14916.74671893 0 3159.82005675 0 -187.89292324 0 2644
0.05050000 0.05050630 37981.17437891 0 -510.26476757 0 12579.82184271 0 442.28622935 0 -4571.36431393 0 2829
0.05150000 0.05149060 39714.65755251 0 1273.10697997 0 15191.45109768 0 -440.56891177 0 -2290.18859316 0 2784
0.05250000 0.05249300 36627.13977683 0 1752.37255975 0 13284.68604066 0 -1867.17042347 0 -1168.36278719 0 3055
0.05350000 0.05348950 35536.62650545 0 1711.91428486 0 14936.12328736 0 49.02781140 0 3456.42549399 0 3009
0.05450000 0.05448610 35253.17499009 0 -381.96420373 0 12122.64555094 0 2008.27613096 0 -2849.90568507 0 3336
0.05550000 0.05550870 35665.95125933 0 -409.99822294 0 12683.12663326 0 5907.06314610 0 -902.51626829 0 3349
0.05650000 0.05647670 34735.32235832 0 -352.94696208 0 8440.65465575 0 3241.97670690 0 -2406.86875210 0 3324
0.05750000 0.05747970 35048.77987394 0 378.49967330 0 7006.84395336 0 2264.67795678 0 -1255.71235768 0 3639
0.05850000 0.05849280 34797.32737730 0 434.91095378 0 5526.20838931 0 1616.81408699 0 -2244.62597654 0 3846
0.05950000 0.05951020 33157.07317867 0 875.81314253 0 6948.01669160 0 -1438.20641534 0 1174.16468539 0 3787
0.06050000 0.06049470 33349.84235376 0 662.40293951 0 6252.61933136 0 349.18458611 0 -612.81442558 0 3930
0.06150000 0.06148310 32293.76401256 0 480.39274244 0 7301.87712048 0 -903.02227354 0 -226.23195516 0 4083
0.06250000 0.06249100 32245.71012285 0 1728.41204884 0 7534.50666492 0 -702.53679528 0 -49.08760196 0 4303
0.06350000 0.06350600 30779.18070062 0 840.43042134 0 9175.82380673 0 -1366.30273797 0 -170.99212664 0 4470
0.06450000 0.06451750 29811.79168121 0 561.14652904 0 7420.20705581 0 136.55166029 0 1896.14669752 0 4479
0.06550000 0.06550280 30393.42090394 0 36.84138926 0 8236.27061192 0 192.39382328 0 506.73269595 0 4636
0.06650000 0.06648880 30824.79867887 0 -932.22442301 0 7338.12791193 0 688.47826446 0 -3264.51996023 0 4653
0.06750000 0.06749660 31066.83969941 0 -245.99051880 0 7437.92277552 0 -675.31437748 0 -2684.58480320 0 5220
0.06850000 0.06852730 30541.12571702 0 1403.97078700 0 8220.84686345 0 -2031.47265145 0 -3764.78974019 0 5029
0.06950000 0.06949320 30169.64921935 0 1393.89497142 0 8331.22686957 0 -1471.34588353 0 -3243.79256817 0 5040
0.07050000 0.07048030 28828.34779082 0 1243.07883506 0 12176.34632631 0 -1054.49389152 0 -3275.47048948 0 5475
0.07150000 0.07148790 28339.94754307 0 1186.31102572 0 12147.11538879 0 334.24801993 0 -1602.23183521 0 5509
0.07250000 0.07249820 27396.25329878 0 252.95611834 0 12950.30183114 0 1314.22959435 0 -2161.33994925 0 5916
0.07350000 0.07351270 27350.19242753 0 -237.67298839 0 12344.42421706 0 3469.91158562 0 143.10979828 0 5721
0.07450000 0.07449140 27122.43470601 0 65.83903290 0 11430.18235678 0 2970.04040935 0 1521.04954964 0 6028
0.07550000 0.07549160 26426.98198415 0 261.84055178 0 9056.39771124 0 1919.79718333 0 2773.26305268 0 6183
0.07650000 0.07648840 27420.39096688 0 -658.24860324 0 8778.03946530 0 2801.81857838 0 3611.42696912 0 6330
0.07750000 0.07749960 26863.78519825 0 73.02131784 0 7679.44339679 0 486.44266072 0 1538.06771288 0 6583
0.07850000 0.07848650 26498.06630949 0 781.29202725 0 7264.48587956 0 370.04927500 0 2041.39345449 0 6549
0.07950000 0.07947320 26141.64817358 0 1013.88060409 0 6595.65102657 0 -1836.82118114 0 942.48182473 0 6828
0.08050000 0.08048110 25580.39202852 0 818.90692912 0 7307.88939285 0 -102.55043307 0 2009.30585716 0 7147
0.08150000 0.08149960 24804.77567497 0 376.38153756 0 7280.72898007 0 -518.20583893 0 -948.27707954 0 7386
0.08250000 0.08250610 24395.98544267 0 811.01125429 0 7638.35399939 0 317.09588155 0 -543.35441029 0 7227
0.08350000 0.08350160 23396.15451154 0 811.33124448 0 7419.50949935 0 -534.82761295 0 -844.23708661 0 7798
0.08450000 0.08449610 22831.57666904 0 597.91661253 0 6905.33287942 0 510.41313672 0 -712.65800739 0 7371
0.08550000 0.08548940 22763.81404115 0 42.73662717 0 7491.60140625 0 513.07160191 0 640.26050434 0 8256
0.08650000 0.08650700 22657.63044614 0 -85.25147566 0 7238.44377159 0 1192.35651507 0 260.01583265 0 8037
0.08750000 0.08749060 22352.14500439 0 318.66372275 0 7617.98092173 0 1183.42114894 0 683.21558847 0 8155
0.08850000 0.08849210 21986.97973188 0 832.38637736 0 6670.14562795 0 1132.76526290 0 142.00920919 0 8718
0.08950000 0.08949900 21426.49864956 0 914.20089267 0 7126.07074701 0 407.81033156 0 1365.29515641 0 8571
0.09050000 0.09049190 20336.87116415 0 802.50327990 0 6917.12490535 0 -522.53179624 0 1250.49729269 0 8932
0.09150000 0.09150830 20051.31590708 0 267.87607603 0 6577.70278804 0 -269.61000210 0 1196.34255201 0 9285
0.09250000 0.09250820 20104.24161971 0 -24.88792883 0 6908.79851709 0 610.90444954 0 -32.56880056 0 9204
0.09350000 0.09350330 19715.60301858 0 -5.95785190 0 5984.69121540 0 -223.62663713 0 -770.74785232 0 9349
0.09450000 0.09448040 19665.11321740 0 846.38179593 0 6040.98291478 0 -170.84929365 0 -835.30172048 0 9564
0.09550000 0.09549270 18961.13480544 0 743.85428257 0 5478.98492396 0 -403.66042422 0 -762.86324982 0 10155
0.09650000 0.09649430 18451.14352429 0 181.55069559 0 6002.39586279 0 410.42229298 0 -1295.43985913 0 9913
0.09750000 0.09749140 18523.77797510 0 194.03142012 0 5457.17244407 0 408.78358891 0 -1271.09181686 0 10476
0.09850000 0.09850240 18062.28347666 0 225.19337109 0 5795.67555842 0 788.59311823 0 -1075.99745355 0 10575
0.09950000 0.09950330 17743.62196838 0 482.99695324 0 5163.53438988 0 323.64073275 0 -1065.07571235 0 10882
0.10050000 0.10051200 17508.55651248 0 491.57025435 0 5514.59352058 0 173.63398334 0 -754.69851750 0 10875
0.10150000 0.10150300 17109.95281901 0 457.67676084 0 5257.13982389 0 147.80778570 0 173.04936459 0 11118
0.10250000 0.10250800 16688.76158290 0 204.54016361 0 5268.35608893 0 -20.03791839 0 -11.79235810 0 11575
0.10350000 0.10349800 16491.67420113 0 280.39333924 0 5950.52202101 0 366.70321844 0 567.91504120 0 11364
0.10450000 0.10450100 16302.00527699 0 360.07200310 0 5622.21651781 0 463.93151713 0 -390.10900587 0 12093
0.10550000 0.10551000 15998.84502345 0 294.00344091 0 5549.65957328 0 -52.86702931 0 105.70394190 0 12067
0.10650000 0.10649700 15589.39045166 0 304.63840890 0 5524.63611919 0 -105.87833102 0 -868.35593176 0 12054
0.10750000 0.10749900 15516.53455435 0 201.00919922 0 5870.77913767 0 -170.45401165 0 10.86319075 0 12807
0.10850000 0.10850100 15488.41084932 0 192.14691044 0 5841.01672855 0 -28.67211729 0 12.71446131 0 12736
0.10950000 0.10950300 15431.16693000 0 143.51947430 0 5683.61255893 0 529.21505150 0 -180.56747314 0 12933
0.11050000 0.11050200 15162.77377640 0 -43.49574575 0 5550.19104487 0 831.22710495 0 89.94481271 0 13428
0.11150000 0.11150900 15676.41892474 0 -216.62782061 0 5310.91810554 0 809.35483450 0 -251.91199811 0 13453
0.11250000 0.11250000 15211.60272885 0 -60.51003369 0 5229.58080742 0 431.47078246 0 597.51357991 0 13668
0.11350000 0.11349100 15603.34158093 0 123.75316003 0 4169.54964626 0 499.44046283 0 -264.60309682 0 13791
0.11450000 0.11448600 15338.49157127 0 73.66993463 0 4178.01997474 0 264.82897224 0 661.76960253 0 14205
0.11550000 0.11549300 15320.44368182 0 276.26779102 0 4237.50050367 0 255.70869829 0 9.95308994 0 14776
0.11650000 0.11649800 15016.39764230 0 229.67544818 0 3778.32012111 0 42.63675480 0 441.33954557 0 14553
0.11750000 0.11747300 14925.38313229 0 165.17140548 0 4193.28871067 0 -18.26933595 0 -151.84807703 0 14568
0.11850000 0.11849100 14775.57457749 0 282.08408324 0 3960.72560018 0 613.81314927 0 759.48176182 0 16015
0.11950000 0.11950300 14639.82787521 0 138.53360643 0 4182.09459028 0 267.61255470 0 657.45471755 0 15270
0.12050000 0.12050700 14254.40024828 0 299.01145342 0 3881.31488658 0 122.65478541 0 808.28414069 0 15999
0.12150000 0.12150000 14350.06513471 0 363.29294239 0 4145.11302538 0 131.99872033 0 1006.21301915 0 15670
0.12250000 0.12250700 13752.82393399 0 284.89202482 0 3649.09501816 0 84.36912210 0 991.22109134 0 16887
0.12350000 0.12352200 13816.04690871 0 194.96592434 0 3729.51331331 0 211.22784780 0 993.72232952 0 16407
0.12450000 0.12449800 13475.57292053 0 155.04022827 0 3917.95320940 0 -336.60199618 0 156.64239367 0 16306
0.12550000 0.12549900 13297.52993745 0 303.45034844 0 3806.26666896 0 105.30057711 0 35.56364298 0 17523
0.12650000 0.12650100 13039.21259943 0 243.47267213 0 3722.81455680 0 -36.75369645 0 365.82961201 0 17154
0.12750000 0.12750600 12983.07591260 0 85.37116750 0 3544.92658626 0 516.77640180 0 165.86564025 0 18007
0.12850000 0.12850300 12906.12325511 0 -31.56243696 0 3612.42347836 0 357.81214161 0 -53.57455087 0 17496
0.12950000 0.12949900 12945.65145471 0 69.41694394 0 3284.98161650 0 559.32845331 0 541.61494806 0 18405
0.13050000 0.13049000 12792.85337222 0 17.13254036 0 2852.07586074 0 78.80350731 0 396.85094445 0 18100
0.13150000 0.13148800 12821.97358649 0 83.53936208 0 3315.92876436 0 -77.50228769 0 704.32165404 0 19059
0.13250000 0.13249300 12663.52861833 0 456.70239626 0 3345.23720816 0 105.68423316 0 801.53777318 0 18957
0.13350000 0.13349100 12290.05910220 0 480.86331625 0 3492.01194595 0 -167.44455377 0 1033.98794596 0 19468
0.13450000 0.13450700 12020.78016261 0 282.55354981 0 3521.61934252 0 401.05953512 0 1119.31238824 0 19953
0.13550000 0.13551000 11804.64838215 0 -80.97921913 0 3493.21882936 0 409.64612301 0 1065.31044564 0 19956
0.13650000 0.13649900 11939.95219144 0 -22.74753772 0 3520.84427978 0 84.15442972 0 430.51745530 0 19723
0.13750000 0.13749600 11925.77961567 0 165.53789943 0 3844.45511726 0 -461.38709689 0 674.04770352 0 20946
0.13850000 0.13851100 11798.11571051 0 262.51485636 0 3919.63620278 0 -446.60000710 0 838.73414117 0 20955
0.13950000 0.13949800 11536.80884479 0 278.68598676 0 4121.10822518 0 -18.01223657 0 1274.29171873 0 20506
0.14050000 0.14048300 11715.84833711 0 29.13837289 0 4207.95954105 0 35.28406678 0 543.25918830 0 21447
0.14150000 0.14148400 11377.92098364 0 15.40271106 0 3778.81837573 0 940.54416788 0 987.74548858 0 21771
0.14250000 0.14249400 11324.88454776 0 109.26347288 0 3477.77293624 0 643.64088510 0 675.20919039 0 22470
0.14350000 0.14350900 11252.13937370 0 157.53150136 0 3104.12626291 0 723.34280084 0 347.51487953 0 22519
0.14450000 0.14449900 11058.35154473 0 175.04016859 0 3172.03283102 0 -98.51147042 0 701.88795704 0 22218
0.14550000 0.14550500 10731.07576774 0 290.73599786 0 2731.48717114 0 -146.22444325 0 1219.59443412 0 23559
0.14650000 0.14650700 10818.22603638 0 47.00921587 0 2969.78574588 0 -102.06624030 0 1270.65999619 0 23044
0.14750000 0.14750500 10658.59632947 0 104.67809101 0 3018.40432416 0 180.17551284 0 1142.59748734 0 23649
0.14850000 0.14849900 10707.97889816 0 244.51568513 0 3253.45870774 0 147.81664356 0 1176.64488615 0 23640
0.14950000 0.14949500 10449.11901623 0 130.42755743 0 3172.73038748 0 -33.62709337 0 1287.12454319 0 24457
0.15050000 0.15050000 10314.50169108 0 123.70222734 0 3215.63564616 0 22.53550270 0 1348.98562195 0 24591
0.15150000 0.15149900 10298.42467545 0 109.03239346 0 3151.68189800 0 206.03714192 0 1283.91356900 0 25020
0.15250000 0.15250500 10197.97654469 0 18.31406814 0 2959.64349635 0 230.55791247 0 1329.75299374 0 25297
0.15350000 0.15350100 10024.29605759 0 180.21758768 0 2926.45973887 0 217.42281353 0 1202.11123324 0 25452
0.15450000 0.15450400 10042.54324889 0 144.27571408 0 2697.27368745 0 224.67186459 0 873.49681218 0 26061
0.15550000 0.15549900 9806.70273025 0 169.63908855 0 2383.81617183 0 69.91265192 0 691.92286471 0 26128
0.15650000 0.15649500 9699.62227693 0 33.53386439 0 2348.76119145 0 -39.80223964 0 488.55968923 0 26331
0.15750000 0.15749700 9647.85915840 0 -8.48185478 0 2378.74504706 0 -58.97518802 0 423.49760136 0 27345
0.15850000 0.15849900 9691.41768424 0 116.22065746 0 2343.83400691 0 85.96663712 0 155.43440304 0 26980
0.15950000 0.15949700 9580.42870026 0 222.70431247 0 2357.19830297 0 -40.11536499 0 -0.63835496 0 27777
0.16050000 0.16050000 9292.79184612 0 207.04250902 0 2261.04623424 0 259.57626135 0 169.26262950 0 28224
0.16150000 0.16150500 9200.42651248 0 312.70791923 0 2353.46692950 0 131.95110933 0 320.59362896 0 28075
0.16250000 0.16249700 8934.15924524 0 241.17959366 0 2313.00865462 0 113.42157374 0 720.21597632 0 28590
0.16350000 0.16349900 8770.84245417 0 85.91382214 0 2354.25306456 0 418.39879578 0 1052.05687283 0 29163
0.16450000 0.16449100 8691.36530662 0 157.57025449 0 2482.38200737 0 377.02041070 0 1343.65983372 0 28996
0.16550000 0.16550500 8793.05353775 0 22.84508491 0 2377.22813856 0 175.89273760 0 1347.25833928 0 30777
0.16650000 0.16650700 8539.25370826 0 101.20093812 0 2423.02327401 0 19.08835582 0 1520.24126992 0 29211
0.16750000 0.16749900 8646.02413649 0 149.97796137 0 2254.49141795 0 -220.60278522 0 1396.74055890 0 30922
0.16850000 0.16850800 8587.85014189 0 -52.19017810 0 2621.27324989 0 -183.21375877 0 1091.82091295 0 30867
0.16950000 0.16949900 8554.85461393 0 6.71911852 0 2279.74739086 0 -284.51445854 0 755.26320606 0 30852
0.17050000 0.17049200 8613.57115244 0 135.05357474 0 2455.18837761 0 -226.86529214 0 567.43893124 0 31257
0.17150000 0.17149500 8393.57513062 0 253.00815827 0 2648.10149293 0 -216.25246880 0 311.39252704 0 32608
0.17250000 0.17250900 8177.31048226 0 207.19309263 0 2421.86067991 0 95.48706490 0 165.90660785 0 32361
0.17350000 0.17350400 8176.57970883 0 74.66644386 0 2456.19595917 0 391.11769466 0 269.67754328 0 32508
0.17450000 0.17449800 8023.49374588 0 63.20647695 0 2227.18706495 0 290.73378339 0 77.91052431 0 32791
0.17550000 0.17549800 8004.16146675 0 23.81479911 0 2232.75644433 0 392.30354065 0 410.53744516 0 33633
0.17650000 0.17650100 8057.30862588 0 28.86920467 0 1851.52522850 0 372.48075753 0 508.70135531 0 33984
0.17750000 0.17750300 8059.68917572 0 -25.12255140 0 1800.72540223 0 175.76208417 0 644.33511987 0 34069
0.17850000 0.17849800 8036.28228105 0 -58.44327354 0 1631.56242365 0 328.66203206 0 577.05635257 0 34536
