### header ###
fiducial parameters:
Omega_m = 0.31
Omega_nu = 0
Omega_de = 0.69
Omega_k = 0
H_0 = 100
w_de = -1
zeff = 0
beta = 0
fgrowth = 0
b_1 = 2
gamma = 0.55
Lx = 3500 Ly = 3500 Lz = 3500
nx = 700 ny = 700 nz = 700
xoffset = -685.467585 yoffset = -31.7331281 zoffset = 572.489161
bins = 400 dk = 0.001
kx_ny = 0.628318531 ky_ny = 0.628318531 kz_ny = 0.628318531
############################
A(data) = 8.05691669 (not used)
A(ran) = 8.05941933 (used)
Ngal = 478926
weighted Ngal = 0
Nran = 23820508
weighted Nran = 0
SN(data) = 3482.69622
SN(ran) = 70.2004652
SN(data+ran) = 3552.89669
############################
13 columns: k_central k_mean P_0(k) sigma^{lin}_{P_0(k)} P^img_1(k) sigma^{lin}_{P_1(k)} P_2(k) sigma^{lin}_{P_2(k)} P^img_3(k) sigma^{lin}_{P_3(k)} P_4(k) sigma^{lin}_{P_4(k)} N_modes
### header ###
0.00050000 0 0 0 0 0 0 0 0 0 0 0 0
0.00150000 0.00179520 25762.42104854 0 -31912.54386905 0 7522.81428991 0 -72357.42124336 0 28984.46757076 0 3
0.00250000 0.00253879 39109.66572442 0 -17297.96089443 0 8085.48769254 0 -38674.74480555 0 -22946.28595416 0 6
0.00350000 0.00331552 51925.88170201 0 -3483.82949791 0 6440.45024959 0 8216.25184865 0 13707.64884873 0 7
0.00450000 0.00420575 55005.42740382 0 2532.99360411 0 13452.21031517 0 6650.11579235 0 39506.49784592 0 24
0.00550000 0.00557378 44764.19128606 0 7926.75484394 0 10874.67274831 0 28573.24142700 0 7518.87254227 0 45
0.00650000 0.00659388 47226.01198623 0 -3540.23192054 0 16913.52977672 0 36838.39973437 0 4946.32859391 0 40
0.00750000 0.00754703 45677.43663710 0 -12251.19524209 0 1843.19884024 0 27649.14519763 0 -14128.72936159 0 57
0.00850000 0.00846663 49924.22682129 0 -8565.38439483 0 -11710.31217470 0 7283.54135058 0 -3611.54876470 0 75
0.00950000 0.00948925 51514.54483499 0 -7515.98266550 0 -25588.03193264 0 -10290.37509530 0 -4122.59191670 0 112
0.01050000 0.01054430 65719.56251458 0 -13897.20704963 0 -21886.55374577 0 -27766.40111746 0 16402.87415609 0 105
0.01150000 0.01145670 72392.18834329 0 -8520.97329998 0 -15487.63578658 0 -25480.07676566 0 2421.76102898 0 144
0.01250000 0.01249090 72886.89981618 0 10105.37869223 0 -1117.51867162 0 -30619.51777673 0 15521.84927027 0 169
0.01350000 0.01339930 74141.83711113 0 12461.12652065 0 4744.55761874 0 -13053.60662169 0 11489.64074106 0 180
0.01450000 0.01448870 63020.68334003 0 3695.05623848 0 16457.23927095 0 -19710.50974916 0 -12537.85773164 0 267
0.01550000 0.01550050 69163.27697967 0 2645.10089290 0 23109.93491498 0 1091.10896246 0 -5388.29151137 0 238
0.01650000 0.01653350 62861.46330914 0 5685.76058995 0 31242.55749428 0 -9475.91702629 0 -17994.07795577 0 315
0.01750000 0.01747870 62263.77921543 0 -1462.68732552 0 30545.55464694 0 5776.53150881 0 -15194.55134863 0 297
0.01850000 0.01844180 66765.45431695 0 -7902.26286144 0 24605.58455148 0 25808.81408953 0 -13912.81902762 0 388
0.01950000 0.01947590 72023.81209657 0 -3302.38731111 0 24300.65272598 0 13881.48434839 0 -23905.70289970 0 399
0.02050000 0.02045430 70285.23565355 0 -625.46455668 0 19833.30183140 0 11505.14199581 0 -14820.08532326 0 462
0.02150000 0.02154770 72352.66014369 0 4474.26002527 0 23268.37988314 0 -3440.95745622 0 -2047.04034015 0 571
0.02250000 0.02255340 68591.39140279 0 3614.21719498 0 29916.64659725 0 -1053.86276901 0 4394.76073307 0 510
0.02350000 0.02348930 66164.44852579 0 6197.71167259 0 28574.90227572 0 -7806.48725176 0 18447.26821060 0 555
0.02450000 0.02439640 66206.41263685 0 5918.21297719 0 38473.00704735 0 2938.96039359 0 15744.51372237 0 592
0.02550000 0.02547300 59721.35199057 0 4030.97950115 0 36136.63578737 0 4389.41280018 0 16420.92204554 0 837
0.02650000 0.02652900 60856.15456124 0 704.59846216 0 32518.20003663 0 11705.77252152 0 11513.44623942 0 723
0.02750000 0.02749970 60211.41308705 0 -3541.59381649 0 25566.44089925 0 7923.97569041 0 5144.71143768 0 826
0.02850000 0.02848090 61505.65713510 0 -1272.66408698 0 15772.41598091 0 12228.38625296 0 1844.31714504 0 831
0.02950000 0.02946900 59742.50013098 0 -816.19753124 0 15365.39732058 0 5977.41669800 0 -3627.99116705 0 996
0.03050000 0.03053250 61281.77472727 0 -199.22323323 0 6982.39626016 0 3094.07259197 0 -7703.65857117 0 1041
0.03150000 0.03150510 60619.53897986 0 2338.92896702 0 11794.46184332 0 -4519.34653193 0 -10761.31428682 0 1036
0.03250000 0.03246190 56376.07049312 0 4467.80485990 0 10880.20891072 0 -7041.94322303 0 -11442.69408383 0 1059
0.03350000 0.03345080 56902.22736850 0 2287.30978871 0 19400.59537749 0 -4502.36158566 0 -4063.26640032 0 1302
0.03450000 0.03451200 53593.37381969 0 2266.80384315 0 19395.61283132 0 -4963.10316601 0 3535.48189319 0 1339
0.03550000 0.03553350 53371.15226058 0 1642.73439939 0 22426.32958068 0 5029.29352378 0 2836.39744879 0 1365
0.03650000 0.03647120 52115.43990290 0 1566.82254044 0 20361.67317175 0 7277.11940218 0 4833.45731471 0 1308
0.03750000 0.03744890 52072.14711286 0 -582.34781660 0 20779.65343365 0 2040.80662127 0 2632.84382933 0 1579
0.03850000 0.03847530 52539.62066670 0 -102.18404984 0 18768.03346060 0 4599.58766989 0 2928.97315660 0 1662
0.03950000 0.03950240 52173.56960820 0 987.33027640 0 23358.95150015 0 412.93571072 0 4259.04724777 0 1683
0.04050000 0.04050350 52104.03540834 0 1083.28193605 0 16696.84438002 0 3079.27996601 0 2383.90475043 0 1822
0.04150000 0.04152450 50010.92312462 0 -479.04745498 0 20392.23278825 0 1950.52288470 0 1131.58052414 0 1887
0.04250000 0.04250150 50197.49179781 0 2580.60460083 0 16917.07292067 0 -764.94263242 0 7075.87989860 0 1920
0.04350000 0.04349210 48693.42719445 0 2783.50495313 0 20597.73513688 0 2460.63596142 0 4402.72173461 0 2005
0.04450000 0.04448520 46015.91760680 0 2651.63356454 0 20574.04036177 0 -155.93930105 0 7547.64951448 0 2151
0.04550000 0.04548030 44998.81384896 0 1739.81654340 0 21691.45938247 0 2426.63285190 0 8371.58549353 0 2274
0.04650000 0.04648670 43709.99524007 0 568.32139552 0 25040.39474711 0 1158.15410371 0 9398.59898209 0 2311
0.04750000 0.04749250 43436.73026355 0 1636.89928421 0 25234.49260118 0 755.16909130 0 7297.35961195 0 2568
0.04850000 0.04851840 40943.57488413 0 1834.07524458 0 23039.18275939 0 316.76039011 0 9882.79174640 0 2493
0.04950000 0.04949480 41436.62550831 0 1439.32472015 0 24928.45354320 0 3882.03458769 0 8829.27111224 0 2644
0.05050000 0.05050630 39780.64860843 0 -195.89267792 0 24179.63221571 0 2182.18913688 0 5384.05081096 0 2829
0.05150000 0.05149060 39901.55839545 0 1503.20096203 0 24209.19532298 0 795.02613895 0 3891.56785936 0 2784
0.05250000 0.05249300 38339.91770303 0 2002.02026743 0 22113.31495806 0 -427.84791778 0 469.97811372 0 3055
0.05350000 0.05348950 36779.93785933 0 1788.61227888 0 23184.45166101 0 -1003.02308237 0 5824.02070996 0 3009
0.05450000 0.05448610 36268.61789921 0 726.39101187 0 22129.70199879 0 1297.90898757 0 2471.08823605 0 3336
0.05550000 0.05550870 36236.95105022 0 -533.09257965 0 23862.07793991 0 1863.14009723 0 2872.77003582 0 3349
0.05650000 0.05647670 37553.67191766 0 -910.57027737 0 22558.64386226 0 3321.06632308 0 1644.07415070 0 3324
0.05750000 0.05747970 37244.42188547 0 -925.19128229 0 22347.82679771 0 3780.37957353 0 2723.91370096 0 3639
0.05850000 0.05849280 37315.83838055 0 343.44247846 0 19524.05179922 0 4258.34969130 0 2125.47668916 0 3846
0.05950000 0.05951020 36447.32522178 0 1160.52358122 0 17074.74282608 0 3004.58606279 0 1727.95808352 0 3787
0.06050000 0.06049470 35790.95780653 0 1508.34959307 0 17770.85988743 0 2479.80215568 0 2105.05932220 0 3930
0.06150000 0.06148310 33118.87365805 0 2540.60029126 0 16463.77194259 0 -794.15585422 0 3016.27843780 0 4083
0.06250000 0.06249100 32136.42627689 0 2753.02284291 0 17281.02023745 0 -766.12072778 0 628.05326622 0 4303
0.06350000 0.06350600 29529.33667509 0 1497.45442545 0 17004.98717973 0 -1607.35832160 0 2414.20970346 0 4470
0.06450000 0.06451750 29383.07126423 0 836.56175105 0 17257.43618559 0 1491.02140473 0 4838.34020995 0 4479
0.06550000 0.06550280 29009.04813186 0 -467.84890565 0 15575.77149213 0 3063.34689060 0 2629.32283003 0 4636
0.06650000 0.06648880 29785.55027139 0 -2165.56957733 0 12951.74123336 0 4173.93428689 0 623.06186219 0 4653
0.06750000 0.06749660 30757.03605098 0 -834.64845332 0 12505.85871292 0 1895.99168497 0 -653.49746866 0 5220
0.06850000 0.06852730 31096.73497642 0 1070.18780472 0 12075.58817046 0 -54.29336619 0 -100.45410981 0 5029
0.06950000 0.06949320 30026.04116645 0 839.79597712 0 11406.93047467 0 16.27122421 0 241.22720466 0 5040
0.07050000 0.07048030 29533.76560502 0 251.56764881 0 13626.15653807 0 -835.07695229 0 729.70274422 0 5475
0.07150000 0.07148790 30314.03233499 0 -172.02296008 0 13341.48706698 0 1582.06913171 0 1076.95078072 0 5509
0.07250000 0.07249820 29431.12515395 0 568.18963486 0 12197.05157372 0 1485.66239952 0 784.59047281 0 5916
0.07350000 0.07351270 29304.34703477 0 109.59818926 0 11195.78124037 0 2142.58343101 0 2026.41259901 0 5721
0.07450000 0.07449140 29328.81687262 0 -641.96453513 0 9458.43382541 0 2967.53806394 0 244.11486697 0 6028
0.07550000 0.07549160 28940.06754824 0 627.22948526 0 9058.30215111 0 729.98508850 0 -666.29375445 0 6183
0.07650000 0.07648840 28363.64231818 0 1627.90855646 0 7770.98937839 0 -6.69995233 0 1018.73138959 0 6330
0.07750000 0.07749960 26680.31677600 0 1553.08178534 0 7098.15741614 0 125.09623303 0 1970.36449078 0 6583
0.07850000 0.07848650 26359.33007951 0 -118.30114729 0 7166.78368537 0 1028.33220244 0 1905.35887177 0 6549
0.07950000 0.07947320 25879.89841486 0 254.04009894 0 7503.65916797 0 1855.05730012 0 -291.73139986 0 6828
0.08050000 0.08048110 25972.79522009 0 946.27188151 0 7255.67230901 0 -649.13829438 0 -989.78611805 0 7147
0.08150000 0.08149960 24299.65621675 0 1555.97166211 0 7698.60959105 0 -1871.23396668 0 435.83660014 0 7386
0.08250000 0.08250610 23824.65348203 0 704.13563898 0 8921.14926358 0 -261.14188808 0 1542.49664281 0 7227
0.08350000 0.08350160 23218.33297496 0 -75.47804527 0 8405.13463773 0 -380.39968424 0 -89.44677954 0 7798
0.08450000 0.08449610 23529.68674886 0 120.79906377 0 10586.29404841 0 1019.91502111 0 -535.69346875 0 7371
0.08550000 0.08548940 23112.37082644 0 104.19467330 0 7827.93434494 0 195.76313172 0 332.42330080 0 8256
0.08650000 0.08650700 23479.97201042 0 829.62936848 0 9216.44816649 0 983.33095268 0 220.98810213 0 8037
0.08750000 0.08749060 22204.10802157 0 512.41390582 0 8225.01005758 0 -388.95637686 0 564.43390228 0 8155
0.08850000 0.08849210 22485.56651846 0 477.78078102 0 10759.96346319 0 568.87722623 0 393.63554133 0 8718
0.08950000 0.08949900 21234.06164421 0 961.66130578 0 9218.69584843 0 -606.05698574 0 665.49876153 0 8571
0.09050000 0.09049190 21298.83474440 0 535.99685045 0 10055.48679660 0 716.63629370 0 1379.63381705 0 8932
0.09150000 0.09150830 20461.98843460 0 278.66273487 0 8340.11794640 0 627.45757515 0 2080.81093084 0 9285
0.09250000 0.09250820 20392.89712773 0 229.63115888 0 8377.47597034 0 1723.52915360 0 766.81828425 0 9204
0.09350000 0.09350330 19904.16471024 0 337.28072970 0 7875.75571583 0 732.42875059 0 632.94391210 0 9349
0.09450000 0.09448040 19441.23080957 0 641.12193121 0 7425.69892892 0 29.83050391 0 297.34617577 0 9564
0.09550000 0.09549270 18940.65100452 0 298.35818626 0 7874.12808408 0 -24.08241720 0 920.83653694 0 10155
0.09650000 0.09649430 18685.43391745 0 203.43182389 0 7107.77926641 0 -29.12973647 0 825.23919169 0 9913
0.09750000 0.09749140 18613.57452938 0 -14.41461679 0 7718.71693293 0 106.68506060 0 -60.85681890 0 10476
0.09850000 0.09850240 18569.28523010 0 644.44252142 0 8031.12257768 0 40.03044026 0 115.18207339 0 10575
0.09950000 0.09950330 17690.14263950 0 956.54367725 0 8027.88945884 0 555.44428176 0 -635.30231728 0 10882
0.10050000 0.10051200 17078.72886302 0 644.34840666 0 6842.82960582 0 36.31157852 0 -584.64753847 0 10875
0.10150000 0.10150300 16573.60940479 0 200.95051590 0 6930.48920141 0 217.16261390 0 -852.46271672 0 11118
0.10250000 0.10250800 16386.70856185 0 65.73096701 0 6881.28378992 0 412.30237374 0 -2384.79053641 0 11575
0.10350000 0.10349800 16248.30450162 0 -9.37193682 0 5769.26806373 0 169.94689918 0 -2113.87289275 0 11364
0.10450000 0.10450100 16360.35642878 0 247.37345217 0 5750.89907686 0 579.36050337 0 -1936.66033403 0 12093
0.10550000 0.10551000 16206.00822081 0 201.78426196 0 5767.34147921 0 -119.07178110 0 -2225.84731364 0 12067
0.10650000 0.10649700 16029.51536320 0 271.83111046 0 6033.76375900 0 432.48832911 0 -838.50162235 0 12054
0.10750000 0.10749900 15781.27384077 0 217.19140195 0 6088.62712847 0 1338.22332223 0 97.72588897 0 12807
0.10850000 0.10850100 15785.14915445 0 134.24086610 0 5873.55829120 0 793.32432263 0 252.57190867 0 12736
0.10950000 0.10950300 15464.71607420 0 413.76281338 0 6206.42559222 0 821.84330966 0 809.54084956 0 12933
0.11050000 0.11050200 15233.41520874 0 466.41614682 0 6047.36057388 0 621.92362720 0 1953.41276148 0 13428
0.11150000 0.11150900 14759.07681351 0 -3.46320176 0 5321.48110341 0 135.65148028 0 1681.59825951 0 13453
0.11250000 0.11250000 14957.49287426 0 -87.74518466 0 5030.48933486 0 686.33909130 0 1814.51044663 0 13668
0.11350000 0.11349100 14835.58657801 0 129.20738724 0 5617.90938346 0 25.27811756 0 706.36228350 0 13791
0.11450000 0.11448600 14681.34909328 0 369.47572857 0 4827.04643864 0 -380.73849738 0 908.61711927 0 14205
0.11550000 0.11549300 14282.52395332 0 438.26143927 0 5262.23309331 0 -829.07353777 0 517.98882136 0 14776
0.11650000 0.11649800 14160.61765706 0 226.84425472 0 5133.46195567 0 -194.75333570 0 -160.44684448 0 14553
0.11750000 0.11747300 14023.76372230 0 -83.69492824 0 5007.33710366 0 -464.92581190 0 -946.78453015 0 14568
0.11850000 0.11849100 14064.17770789 0 41.38048882 0 4968.73897934 0 255.84267342 0 -816.01262341 0 16015
0.11950000 0.11950300 14158.95680834 0 -209.54042550 0 4830.51207631 0 537.47168411 0 -846.45708774 0 15270
0.12050000 0.12050700 14273.66609346 0 21.00453235 0 4321.59481067 0 782.52769870 0 -1491.98469699 0 15999
0.12150000 0.12150000 14070.93182603 0 6.78171037 0 4231.51037594 0 256.18148656 0 -1176.77775405 0 15670
0.12250000 0.12250700 14090.64056421 0 311.77120055 0 4529.88738515 0 -112.34423654 0 -1528.98840653 0 16887
0.12350000 0.12352200 13935.40657025 0 207.87404061 0 4831.59716414 0 -267.14198090 0 -1096.83999779 0 16407
0.12450000 0.12449800 13810.06785330 0 339.13977303 0 4874.53563978 0 -77.40396545 0 -965.76803105 0 16306
0.12550000 0.12549900 13593.71462635 0 172.61975839 0 5060.30710559 0 129.20185108 0 -537.31445710 0 17523
0.12650000 0.12650100 13649.40842019 0 228.94467474 0 4806.98338607 0 662.63545833 0 -602.70760748 0 17154
0.12750000 0.12750600 13370.93945100 0 28.86400068 0 4315.33894714 0 673.56716462 0 -471.04880753 0 18007
0.12850000 0.12850300 13067.77919746 0 445.64557270 0 4183.43434158 0 536.17511488 0 -398.37228188 0 17496
0.12950000 0.12949900 12736.16306914 0 331.09462182 0 3701.83250127 0 430.57835308 0 -257.79029536 0 18405
0.13050000 0.13049000 12630.42236713 0 48.63175435 0 3753.57347515 0 -60.34173435 0 -581.01027977 0 18100
0.13150000 0.13148800 12264.26058537 0 315.14604515 0 3446.32753375 0 152.90548405 0 -185.98848337 0 19059
0.13250000 0.13249300 12196.83012723 0 160.30068979 0 3782.97049754 0 218.29531273 0 224.94092209 0 18957
0.13350000 0.13349100 12248.20571439 0 -46.73384715 0 3301.52366977 0 415.54988661 0 551.77934224 0 19468
0.13450000 0.13450700 12103.04753601 0 3.98322456 0 3625.14557957 0 830.14201712 0 953.26737633 0 19953
0.13550000 0.13551000 12184.09695369 0 265.89523712 0 3615.34657211 0 256.03311741 0 986.94163780 0 19956
0.13650000 0.13649900 11996.97466425 0 159.58320315 0 3495.53294525 0 46.05644232 0 1322.26810217 0 19723
0.13750000 0.13749600 11885.91924632 0 111.92570266 0 3472.04854431 0 -30.71507194 0 1873.73631209 0 20946
0.13850000 0.13851100 11675.65579801 0 137.46734155 0 3600.09998083 0 -181.97808732 0 1522.82112161 0 20955
0.13950000 0.13949800 11738.98949598 0 200.99923413 0 4141.80240026 0 -57.08215265 0 1382.43511523 0 20506
0.14050000 0.14048300 11498.27715442 0 293.11322599 0 3853.99946125 0 -91.46094615 0 1184.55052607 0 21447
0.14150000 0.14148400 11155.25653154 0 349.96518501 0 3875.14760165 0 -27.38828122 0 1069.08610840 0 21771
0.14250000 0.14249400 10957.29443611 0 138.37305772 0 3707.91120759 0 40.97745620 0 956.99653533 0 22470
0.14350000 0.14350900 11074.53928361 0 167.85422979 0 3854.34270332 0 157.47392527 0 426.83369283 0 22519
0.14450000 0.14449900 10707.44742657 0 122.92052121 0 3577.11383451 0 213.99150007 0 629.05198992 0 22218
0.14550000 0.14550500 10719.37232040 0 132.48811708 0 3250.55775863 0 216.98988563 0 735.74601911 0 23559
0.14650000 0.14650700 10651.76470506 0 16.29890503 0 2868.18609335 0 400.88791408 0 1011.86765543 0 23044
0.14750000 0.14750500 10611.31750250 0 47.65528602 0 3035.64393390 0 467.85222735 0 486.57995755 0 23649
0.14850000 0.14849900 10524.93122426 0 -5.98404902 0 2984.06904490 0 295.76394056 0 628.30128630 0 23640
0.14950000 0.14949500 10421.71501230 0 213.17657697 0 2626.38866396 0 65.23647698 0 191.96310985 0 24457
0.15050000 0.15050000 10267.41109363 0 241.19288045 0 2823.68641990 0 -264.70717667 0 640.85065925 0 24591
0.15150000 0.15149900 10167.41692819 0 146.79134628 0 2847.33690571 0 -53.60965014 0 279.78436138 0 25020
0.15250000 0.15250500 10063.14884538 0 158.33645937 0 2858.71925563 0 56.08331822 0 531.87351669 0 25297
0.15350000 0.15350100 9873.15882381 0 211.42714964 0 2689.63378332 0 215.15298695 0 221.08000242 0 25452
0.15450000 0.15450400 9659.77297991 0 285.17104740 0 2580.23921411 0 271.05051156 0 469.40899622 0 26061
0.15550000 0.15549900 9462.07662027 0 196.47618944 0 2294.71717401 0 114.57309553 0 182.05005744 0 26128
0.15650000 0.15649500 9287.39962393 0 63.49358233 0 2304.22830103 0 143.00461120 0 177.38971592 0 26331
0.15750000 0.15749700 9282.29528219 0 66.18271786 0 2522.51918483 0 153.62297070 0 422.32504216 0 27345
0.15850000 0.15849900 9184.26091825 0 115.69250757 0 2416.39095145 0 -50.76893448 0 112.28001706 0 26980
0.15950000 0.15949700 9081.26615278 0 112.39295477 0 2510.89324377 0 -106.87971207 0 496.63030679 0 27777
0.16050000 0.16050000 9046.39940193 0 198.08942717 0 2563.87431803 0 41.76226258 0 581.13207534 0 28224
0.16150000 0.16150500 8958.07546685 0 34.29951565 0 2455.49840271 0 274.29027380 0 832.89238260 0 28075
0.16250000 0.16249700 8972.66879096 0 -104.73843518 0 2480.25612100 0 385.54610081 0 748.14591567 0 28590
0.16350000 0.16349900 8980.14261021 0 102.11661938 0 2285.98110973 0 20.78341802 0 320.94240719 0 29163
0.16450000 0.16449100 8957.68793548 0 175.37012387 0 2333.83569760 0 -119.37405557 0 501.95830949 0 28996
0.16550000 0.16550500 8723.82936299 0 199.31402629 0 2319.34202441 0 -169.45085902 0 264.44476257 0 30777
0.16650000 0.16650700 8596.82979732 0 119.30872885 0 2358.06194430 0 -134.46120537 0 465.60233095 0 29211
0.16750000 0.16749900 8537.23854514 0 115.45888151 0 2308.07039775 0 -58.17975221 0 -222.88257690 0 30922
0.16850000 0.16850800 8489.84899492 0 75.45877943 0 2502.14610717 0 -4.87046102 0 -189.52830562 0 30867
0.16950000 0.16949900 8454.00787948 0 -23.76109834 0 2397.05867231 0 51.67775090 0 -101.27678354 0 30852
0.17050000 0.17049200 8579.81163407 0 17.25223219 0 2415.49409314 0 131.19708401 0 -54.67502923 0 31257
0.17150000 0.17149500 8469.97417187 0 46.93281683 0 2243.46338243 0 250.60324932 0 30.56205241 0 32608
0.17250000 0.17250900 8370.75506917 0 103.53354479 0 2189.92869193 0 264.97623416 0 206.54425440 0 32361
0.17350000 0.17350400 8349.36333762 0 31.58934271 0 2095.30460403 0 254.85834375 0 31.67282804 0 32508
0.17450000 0.17449800 8250.64248954 0 107.98495154 0 2032.49130533 0 303.85005937 0 125.24570942 0 32791
0.17550000 0.17549800 8200.29662859 0 51.15004390 0 1832.75763793 0 -39.94474046 0 292.68915595 0 33633
0.17650000 0.17650100 8246.72288655 0 46.85863225 0 1837.15335088 0 -133.99948942 0 242.60903080 0 33984
0.17750000 0.17750300 8137.14008782 0 79.04377675 0 1872.66229658 0 -74.35542226 0 343.51555580 0 34069
0.17850000 0.17849800 8244.49734926 0 87.97593191 0 2040.62946408 0 12.30367806 0 318.75008688 0 34536
