### header ###
fiducial parameters:
Omega_m = 0.31
Omega_nu = 0
Omega_de = 0.69
Omega_k = 0
H_0 = 100
w_de = -1
zeff = 0
beta = 0
fgrowth = 0
b_1 = 2
gamma = 0.55
Lx = 3500 Ly = 3500 Lz = 3500
nx = 700 ny = 700 nz = 700
xoffset = -685.467585 yoffset = -31.7331281 zoffset = 572.489161
bins = 400 dk = 0.001
kx_ny = 0.628318531 ky_ny = 0.628318531 kz_ny = 0.628318531
############################
A(data) = 8.00439525 (not used)
A(ran) = 7.9985584 (used)
Ngal = 475122
weighted Ngal = 0
Nran = 23820508
weighted Nran = 0
SN(data) = 3488.94829
SN(ran) = 69.6703445
SN(data+ran) = 3558.61863
############################
13 columns: k_central k_mean P_0(k) sigma^{lin}_{P_0(k)} P^img_1(k) sigma^{lin}_{P_1(k)} P_2(k) sigma^{lin}_{P_2(k)} P^img_3(k) sigma^{lin}_{P_3(k)} P_4(k) sigma^{lin}_{P_4(k)} N_modes
### header ###
0.00050000 0 0 0 0 0 0 0 0 0 0 0 0
0.00150000 0.00179520 34043.41278040 0 -38587.05199298 0 21026.89844685 0 3942.01337123 0 14967.45796660 0 3
0.00250000 0.00253879 59971.91870122 0 -35898.47008052 0 2978.34465297 0 -27700.52078479 0 -19665.55611040 0 6
0.00350000 0.00331552 62186.93728119 0 -10246.06365138 0 -10732.24943417 0 -8313.06825687 0 44177.02590092 0 7
0.00450000 0.00420575 57546.96884269 0 12718.22590294 0 -14727.40996453 0 -25698.20156459 0 14488.02630195 0 24
0.00550000 0.00557378 35267.90118210 0 13236.41070445 0 -18255.49554474 0 -19781.81552099 0 -3757.96918810 0 45
0.00650000 0.00659388 29741.15024887 0 558.64529086 0 -7319.78106971 0 -12161.73085755 0 -15372.70505496 0 40
0.00750000 0.00754703 30375.92663072 0 -4580.69828375 0 -7107.09278227 0 -22966.88047833 0 -18255.49554474 0 57
0.00850000 0.00846663 35872.78228694 0 -7132.60341865 0 -812.93451711 0 -29305.45426726 0 -17653.71469085 0 75
0.00950000 0.00948925 38876.03967075 0 -527.31171886 0 9279.26146519 0 -31312.97748012 0 -8797.18351491 0 112
0.01050000 0.01054430 42815.01922498 0 5413.35925476 0 13606.11563015 0 -21190.32596117 0 -11812.62045602 0 105
0.01150000 0.01145670 46086.78048564 0 -838.96666000 0 16189.28901034 0 -7962.50738078 0 -6277.67600243 0 144
0.01250000 0.01249090 49254.57261626 0 -6902.08868825 0 10841.28968898 0 10089.93279911 0 -14591.22036926 0 169
0.01350000 0.01339930 59733.86371762 0 -13593.27173336 0 13920.90182474 0 13945.70383233 0 -23357.29065143 0 180
0.01450000 0.01448870 70188.46353463 0 -15626.15057006 0 693.87159388 0 4759.50525724 0 -33649.01657036 0 267
0.01550000 0.01550050 80012.71589972 0 -3332.70333646 0 -2994.51024720 0 -6821.91398424 0 -22377.16845848 0 238
0.01650000 0.01653350 73027.51834138 0 8327.73908725 0 1054.39313337 0 -9917.86887143 0 -16260.48405892 0 315
0.01750000 0.01747870 69068.16570948 0 10832.14394868 0 -4171.70874960 0 -5980.71625079 0 -8897.07802942 0 297
0.01850000 0.01844180 61534.44517963 0 3194.42107180 0 -638.65169554 0 -5380.31943750 0 -18010.57571975 0 388
0.01950000 0.01947590 62623.62977204 0 3439.06408867 0 -610.30100784 0 -10246.19651928 0 -21424.83780083 0 399
0.02050000 0.02045430 61505.32496535 0 2005.67413462 0 10290.45260158 0 -11030.26105666 0 -28808.97122239 0 462
0.02150000 0.02154770 62929.77955327 0 -5761.53958101 0 18911.86295999 0 -13138.30990656 0 -19624.25633882 0 571
0.02250000 0.02255340 66192.68295408 0 -3695.77593959 0 19909.59014940 0 4598.00432744 0 -23240.36690135 0 510
0.02350000 0.02348930 75222.49601343 0 3063.23616735 0 31720.43903345 0 -4319.20318851 0 -32871.29647510 0 555
0.02450000 0.02439640 70395.07311575 0 4489.31838702 0 30707.76420554 0 1504.59607496 0 -13144.62113170 0 592
0.02550000 0.02547300 63593.56542615 0 5797.12603297 0 30587.40803476 0 5412.93850642 0 -5308.44897710 0 837
0.02650000 0.02652900 62821.38149330 0 432.41082284 0 29786.54678063 0 10978.39828721 0 4946.05178579 0 723
0.02750000 0.02749970 67417.94641851 0 -6775.52094325 0 31408.19947356 0 10297.17350274 0 -11393.75440813 0 826
0.02850000 0.02848090 63702.18493262 0 -471.47287757 0 27206.25220489 0 5794.93371266 0 -3971.26645340 0 831
0.02950000 0.02946900 66593.05821952 0 3144.91670754 0 27605.40951460 0 2954.46164833 0 -4932.78714066 0 996
0.03050000 0.03053250 60400.97128794 0 7117.03572996 0 25825.75474650 0 -2016.15962623 0 -4282.50950406 0 1041
0.03150000 0.03150510 57002.98552435 0 6819.62201300 0 21837.72479332 0 -3762.44240732 0 -8123.99723826 0 1036
0.03250000 0.03246190 50605.39624413 0 4485.01125266 0 18635.94062551 0 -1290.84484433 0 -6131.91991852 0 1059
0.03350000 0.03345080 50203.24940672 0 823.17641757 0 22589.31420201 0 5018.79695985 0 -7451.71889225 0 1302
0.03450000 0.03451200 48552.69794601 0 -2116.78491418 0 17062.00965254 0 4118.26263770 0 -8338.87784602 0 1339
0.03550000 0.03553350 49917.80487290 0 1073.41870910 0 16861.60057332 0 5972.14627138 0 -9917.73600353 0 1365
0.03650000 0.03647120 50948.97048326 0 660.80298857 0 16446.83128562 0 1677.14718493 0 -4840.46609632 0 1308
0.03750000 0.03744890 46541.74231244 0 2102.50161516 0 14764.72369917 0 3279.82191313 0 7061.29764682 0 1579
0.03850000 0.03847530 49505.36077340 0 957.51361290 0 16049.88844087 0 7506.90335914 0 8167.04643716 0 1662
0.03950000 0.03950240 46542.73882168 0 -340.63342965 0 19834.96268012 0 5585.60033964 0 9558.20654435 0 1683
0.04050000 0.04050350 48826.40581552 0 2060.39356388 0 19853.78563231 0 835.76454366 0 7983.50050864 0 1822
0.04150000 0.04152450 44754.00474722 0 1520.83917547 0 20771.90280628 0 -1932.04317458 0 14368.88808690 0 1887
0.04250000 0.04250150 43745.86957249 0 2674.52005994 0 20926.80463049 0 -1772.26952745 0 11595.60288958 0 1920
0.04350000 0.04349210 43592.29642725 0 1364.42044275 0 22352.80934388 0 -711.76889971 0 10934.92833997 0 2005
0.04450000 0.04448520 41730.59573224 0 294.77186025 0 21358.73602167 0 2604.88620916 0 8163.41471462 0 2151
0.04550000 0.04548030 42089.56050286 0 -266.41342193 0 20685.53867269 0 762.75252657 0 4921.43800772 0 2274
0.04650000 0.04648670 42077.93456181 0 191.43938888 0 20370.97392459 0 3567.19303147 0 3735.78024916 0 2311
0.04750000 0.04749250 41437.17912455 0 -101.56787496 0 17287.11001610 0 -835.94612979 0 -2979.34116220 0 2568
0.04850000 0.04851840 42352.30677081 0 1276.58368997 0 19465.14703118 0 -106.06833211 0 3462.28275382 0 2493
0.04950000 0.04949480 41409.60903575 0 2189.58544986 0 19697.99802212 0 -2207.97658139 0 2299.12395929 0 2644
0.05050000 0.05050630 39417.58707763 0 2105.24755172 0 19403.47418194 0 2388.94265822 0 8704.41957758 0 2829
0.05150000 0.05149060 39062.60834394 0 1062.02860856 0 19298.17637292 0 2547.14403523 0 4423.01730601 0 2784
0.05250000 0.05249300 36825.77728408 0 351.01594863 0 18382.05221742 0 2464.74379393 0 6044.03887643 0 3055
0.05350000 0.05348950 38463.70629450 0 -81.30253102 0 17909.59611741 0 2662.97162516 0 2028.68242560 0 3009
0.05450000 0.05448610 35927.92246454 0 -702.26552332 0 15185.69348877 0 731.04581722 0 1291.58669010 0 3336
0.05550000 0.05550870 37545.69984379 0 -251.67947929 0 14614.58297463 0 -118.66321231 0 -632.04594655 0 3349
0.05650000 0.05647670 36842.27504806 0 376.92961764 0 15119.03809337 0 1058.44449702 0 -1955.35041832 0 3324
0.05750000 0.05747970 36581.85396833 0 1818.18645847 0 14860.61003210 0 1775.93446696 0 -77.78817512 0 3639
0.05850000 0.05849280 34515.86888041 0 1567.88548362 0 14063.62409165 0 749.20664439 0 -84.00672491 0 3846
0.05950000 0.05951020 32986.11648347 0 1441.22916002 0 13074.64403885 0 823.90719101 0 -1733.73783708 0 3787
0.06050000 0.06049470 33014.68308150 0 -20.10468451 0 15187.90795374 0 1178.64897694 0 -313.55052314 0 3930
0.06150000 0.06148310 32472.47133513 0 302.56124076 0 15657.04235630 0 -58.18517765 0 -949.71316006 0 4083
0.06250000 0.06249100 32032.56787009 0 198.01524259 0 13287.45412186 0 381.01419826 0 -1705.86879551 0 4303
0.06350000 0.06350600 32092.13697761 0 456.10670518 0 13418.32900122 0 398.03457598 0 -1119.23488197 0 4470
0.06450000 0.06451750 31709.92032487 0 589.77070316 0 12099.06149908 0 711.45998185 0 -2446.66268750 0 4479
0.06550000 0.06550280 31147.44622409 0 716.12364506 0 11655.39344360 0 592.49892400 0 -2926.83619791 0 4636
0.06650000 0.06648880 30502.48330340 0 926.52439020 0 9725.64224025 0 1006.32374240 0 -3768.95293432 0 4653
0.06750000 0.06749660 29860.62063366 0 773.02653677 0 10062.18555312 0 377.50980746 0 -2101.13971921 0 5220
0.06850000 0.06852730 30140.52900508 0 -634.36006244 0 9724.69002032 0 1074.30892402 0 -1990.70435147 0 5029
0.06950000 0.06949320 30403.27527302 0 -645.34823759 0 10628.15850855 0 7.83856378 0 528.92274212 0 5040
0.07050000 0.07048030 30731.34825740 0 546.13134935 0 11581.87320680 0 173.15233721 0 -773.63994357 0 5475
0.07150000 0.07148790 30345.80990722 0 864.73417431 0 13918.24446678 0 -229.19490928 0 1124.09563256 0 5509
0.07250000 0.07249820 29702.06494226 0 2020.75464103 0 13183.59571507 0 -1148.22222834 0 1693.33492381 0 5916
0.07350000 0.07351270 28553.42196557 0 525.38402711 0 14696.85034803 0 789.43240045 0 2751.09625839 0 5721
0.07450000 0.07449140 28212.39436116 0 355.72611561 0 14673.15557292 0 547.80769933 0 1043.05839445 0 6028
0.07550000 0.07549160 27292.39489198 0 320.07655139 0 12767.49774838 0 2875.26130891 0 2944.95052131 0 6183
0.07650000 0.07648840 27369.45827272 0 64.45886761 0 11519.97891106 0 2024.29778497 0 -1112.68006568 0 6330
0.07750000 0.07749960 27364.58644980 0 -317.60299403 0 9179.92056692 0 1868.33301757 0 235.27915177 0 6583
0.07850000 0.07848650 27128.08159167 0 -107.74612149 0 8442.14941960 0 95.48562549 0 -2371.03870899 0 6549
0.07950000 0.07947320 26580.11223639 0 853.40164986 0 8522.65629336 0 -916.94240030 0 -3687.70421480 0 6828
0.08050000 0.08048110 26263.33302333 0 738.09888813 0 7646.56966441 0 69.65433459 0 -3592.81439110 0 7147
0.08150000 0.08149960 24966.32089408 0 1650.98328138 0 7210.15398168 0 -417.06568787 0 -3494.64715926 0 7386
0.08250000 0.08250610 24037.02067205 0 1086.62356368 0 8286.37288173 0 413.31327699 0 -4772.05020126 0 7227
0.08350000 0.08350160 23686.69231479 0 830.92815218 0 8425.12018403 0 -622.22036551 0 -4526.39960284 0 7798
0.08450000 0.08449610 22189.93544580 0 1088.03639233 0 8916.93070782 0 -1071.48326672 0 -4431.93052748 0 7371
0.08550000 0.08548940 21591.69773585 0 388.52123449 0 8571.54060743 0 212.45798309 0 -1565.59351238 0 8256
0.08650000 0.08650700 22071.35084699 0 -377.88183757 0 9413.49125897 0 1122.58979639 0 -3220.07564841 0 8037
0.08750000 0.08749060 21701.31375155 0 82.71746341 0 8836.77814846 0 2018.29658492 0 -1751.57535236 0 8155
0.08850000 0.08849210 21541.31865792 0 942.59919137 0 7500.58106167 0 1513.03318647 0 -2821.63803981 0 8718
0.08950000 0.08949900 20649.44289378 0 681.27682439 0 7064.91829703 0 1021.13076238 0 -961.07004363 0 8571
0.09050000 0.09049190 19748.81999303 0 441.42148078 0 6137.02426026 0 1320.20864975 0 -485.59341341 0 8932
0.09150000 0.09150830 19679.06434668 0 -90.62941455 0 6053.37284625 0 586.20652180 0 -731.99692992 0 9285
0.09250000 0.09250820 19760.77810384 0 -108.32376468 0 6425.15936901 0 -32.73377820 0 -1275.28822796 0 9204
0.09350000 0.09350330 19683.82544635 0 454.41263949 0 6259.65025762 0 -1081.46607478 0 -2215.95972758 0 9349
0.09450000 0.09448040 19452.30313439 0 518.78602875 0 6282.60318697 0 -1189.28948110 0 -1102.36398064 0 9564
0.09550000 0.09549270 19276.14244653 0 445.70425602 0 7363.46139112 0 -422.97941656 0 -862.09674654 0 10155
0.09650000 0.09649430 18913.52380872 0 245.18666802 0 6911.40051342 0 691.00939791 0 -458.88918041 0 9913
0.09750000 0.09749140 18522.44929612 0 321.11292100 0 7005.07238139 0 1312.92306002 0 -1626.95633653 0 10476
0.09850000 0.09850240 18114.21268006 0 509.11324579 0 6353.03424514 0 1687.13442192 0 -1171.89485881 0 10575
0.09950000 0.09950330 17857.33474426 0 433.86240462 0 6526.30505623 0 440.91104660 0 -979.18325980 0 10882
0.10050000 0.10051200 17318.88758833 0 473.24002061 0 5222.41701326 0 640.58492345 0 -302.92441302 0 10875
0.10150000 0.10150300 17325.42025998 0 -175.32472734 0 5567.97319853 0 208.25825028 0 138.94992585 0 11118
0.10250000 0.10250800 17210.15735861 0 -239.65382730 0 4865.17952531 0 309.35854097 0 -614.96134936 0 11575
0.10350000 0.10349800 17321.21277655 0 279.97259090 0 5374.09679095 0 -1.86662788 0 -1240.23324759 0 11364
0.10450000 0.10450100 16800.59206357 0 523.10644989 0 4915.35930139 0 220.18092965 0 -124.08311531 0 12093
0.10550000 0.10551000 16217.74488512 0 494.25529311 0 5118.90184853 0 90.72507944 0 -468.13900056 0 12067
0.10650000 0.10649700 16133.59521650 0 298.95609180 0 4907.38722752 0 203.79167445 0 105.18963241 0 12054
0.10750000 0.10749900 15955.88440316 0 280.46088042 0 5301.36268922 0 336.85776689 0 595.84608779 0 12807
0.10850000 0.10850100 15920.34224049 0 168.61822020 0 5065.45573663 0 460.25218360 0 -291.29847196 0 12736
0.10950000 0.10950300 15628.69720477 0 119.45156184 0 5210.83536150 0 42.67030394 0 871.00664632 0 12933
0.11050000 0.11050200 15722.59051923 0 263.51690175 0 5241.58320752 0 -75.95537319 0 1213.92540382 0 13428
0.11150000 0.11150900 15331.07311364 0 242.55809810 0 5352.10715386 0 387.08958289 0 1090.72143110 0 13453
0.11250000 0.11250000 15150.59421910 0 251.55879095 0 5337.52490208 0 795.54543099 0 1265.48922050 0 13668
0.11350000 0.11349100 14939.77715455 0 288.09081946 0 5202.74149206 0 440.38289671 0 1008.60242685 0 13791
0.11450000 0.11448600 14684.11717449 0 257.73161204 0 5231.29701777 0 -512.77707807 0 1060.32236331 0 14205
0.11550000 0.11549300 14674.48425190 0 280.97242183 0 5425.32843789 0 -532.02077861 0 761.20904449 0 14776
0.11650000 0.11649800 14477.17542363 0 320.41536453 0 5651.32565976 0 -674.01337931 0 889.29591246 0 14553
0.11750000 0.11747300 14121.31090396 0 77.90576321 0 5813.91167740 0 -222.00786324 0 959.16671099 0 14568
0.11850000 0.11849100 14171.91142838 0 -5.10276947 0 5837.78360971 0 842.21860180 0 778.04340715 0 16015
0.11950000 0.11950300 14224.94786426 0 -71.97974424 0 5473.38232760 0 863.52618368 0 874.32502207 0 15270
0.12050000 0.12050700 14455.03077399 0 -65.09497267 0 5512.15760912 0 558.75269242 0 518.42728543 0 15999
0.12150000 0.12150000 14321.05564369 0 208.58599110 0 5280.44706764 0 5.67175410 0 673.96355385 0 15670
0.12250000 0.12250700 14078.35028366 0 400.22136013 0 5698.43840187 0 -416.52314396 0 756.79893752 0 16887
0.12350000 0.12352200 13645.86527624 0 317.64617609 0 5584.17200974 0 191.04521412 0 1521.02740499 0 16407
0.12450000 0.12449800 13514.32605740 0 157.72969597 0 5532.25387866 0 567.25291618 0 845.23470308 0 16306
0.12550000 0.12549900 13453.98188714 0 74.46636695 0 5064.24885323 0 499.76045301 0 695.50808348 0 17523
0.12650000 0.12650100 13428.40481681 0 -8.38507159 0 4871.32466559 0 632.93062531 0 374.91334729 0 17154
0.12750000 0.12750600 13228.66007708 0 98.71586554 0 4260.34270977 0 282.03757948 0 306.84290877 0 18007
0.12850000 0.12850300 13268.74189292 0 75.18950049 0 4157.97906682 0 189.62795654 0 90.25129466 0 17496
0.12950000 0.12949900 13083.16972896 0 76.76343146 0 4059.55717151 0 6.73601489 0 -344.02598998 0 18405
0.13050000 0.13049000 13012.41757337 0 339.11430669 0 4199.89888858 0 -263.95093689 0 -21.95055178 0 18100
0.13150000 0.13148800 12707.48574786 0 428.29413247 0 3917.75390756 0 -42.21345982 0 65.16926797 0 19059
0.13250000 0.13249300 12482.82827729 0 248.30684915 0 4098.40995930 0 229.10522345 0 478.46837239 0 18957
0.13350000 0.13349100 12304.01023147 0 123.55164372 0 3845.18589069 0 283.17027831 0 215.93580031 0 19468
0.13450000 0.13450700 12268.68951530 0 115.15549981 0 3968.24370873 0 438.74529987 0 429.22310052 0 19953
0.13550000 0.13551000 12091.53231820 0 237.66080884 0 3469.12545055 0 612.69041554 0 -30.14440432 0 19956
0.13650000 0.13649900 11904.85292176 0 164.61778924 0 3457.23377370 0 73.58999244 0 239.55860531 0 19723
0.13750000 0.13749600 11655.17199710 0 130.14853485 0 3065.09631792 0 409.37263659 0 655.60674653 0 20946
0.13850000 0.13851100 11591.17395965 0 141.59178255 0 3239.47436149 0 30.16610608 0 22.36255299 0 20955
0.13950000 0.13949800 11413.02025332 0 184.83363990 0 2967.01766468 0 507.77460172 0 320.67667140 0 20506
0.14050000 0.14048300 11170.64706304 0 209.77958771 0 2620.30995763 0 41.84043319 0 45.63292589 0 21447
0.14150000 0.14148400 11307.72244429 0 146.52339602 0 2773.46235452 0 85.15913248 0 466.61323420 0 21771
0.14250000 0.14249400 10956.59687964 0 24.96886753 0 2661.95297127 0 -53.50700969 0 340.74526013 0 22470
0.14350000 0.14350900 10985.78352786 0 230.27999711 0 2861.80843425 0 -212.85990848 0 -64.50847163 0 22519
0.14450000 0.14449900 10876.09000589 0 180.79224134 0 3172.59751959 0 -202.52167879 0 380.11069656 0 22218
0.14550000 0.14550500 10622.36768267 0 245.95287289 0 3108.53304819 0 77.81419508 0 181.37464562 0 23559
0.14650000 0.14650700 10513.68174225 0 119.90109823 0 3270.08933961 0 61.53743471 0 583.61449056 0 23044
0.14750000 0.14750500 10537.76404873 0 61.68835049 0 3165.40050845 0 720.93678466 0 589.24698220 0 23649
0.14850000 0.14849900 10580.21534208 0 -106.66645910 0 3129.92477973 0 358.06791231 0 696.42155028 0 23640
0.14950000 0.14949500 10508.33380936 0 45.30806388 0 2873.00255464 0 380.88465206 0 839.48041587 0 24457
0.15050000 0.15050000 10509.88393483 0 196.53265830 0 2757.87252118 0 161.69137379 0 787.35191062 0 24591
0.15150000 0.15149900 10477.64132496 0 24.76192578 0 2795.85059531 0 65.00373672 0 1134.64755812 0 25020
0.15250000 0.15250500 10313.74877300 0 -15.54764779 0 2711.74521598 0 174.70910608 0 1322.06880032 0 25297
0.15350000 0.15350100 10419.56698129 0 148.88733737 0 2797.16820196 0 182.23275080 0 1116.26749892 0 25452
0.15450000 0.15450400 10202.59370414 0 137.70871823 0 2741.44119115 0 61.95120749 0 830.99126443 0 26061
0.15550000 0.15549900 9975.04635679 0 444.69445999 0 2795.60700416 0 -338.54408196 0 639.79768116 0 26128
0.15650000 0.15649500 9699.52262601 0 453.45045446 0 2865.37372284 0 -404.32144201 0 759.98223090 0 26331
0.15750000 0.15749700 9327.41500583 0 276.35969131 0 2864.18898409 0 -77.14210497 0 627.63583958 0 27345
0.15850000 0.15849900 9190.58321572 0 68.43671103 0 2864.27756269 0 -243.25786903 0 132.12383760 0 26980
0.15950000 0.15949700 9191.87867772 0 150.73420115 0 2962.68838567 0 -129.18634982 0 -114.52548453 0 27777
0.16050000 0.16050000 8971.83836660 0 215.73871293 0 2910.84776087 0 -195.81184995 0 -470.06447785 0 28224
0.16150000 0.16150500 8910.78556755 0 63.33735183 0 2995.34067156 0 -135.19087157 0 -460.45259268 0 28075
0.16250000 0.16249700 9015.64048358 0 -189.68774710 0 2883.17802115 0 124.04879111 0 -510.98336145 0 28590
0.16350000 0.16349900 9162.50379998 0 -117.75195998 0 2888.41523079 0 258.94292437 0 -883.52169507 0 29163
0.16450000 0.16449100 9263.49447465 0 -3.52949177 0 2864.55437081 0 50.25351776 0 -654.40982822 0 28996
0.16550000 0.16550500 9159.38140438 0 196.48061837 0 2877.26539970 0 157.29676807 0 -497.24260635 0 30777
0.16650000 0.16650700 9021.47559876 0 235.72425923 0 2719.97195332 0 115.66482675 0 9.88190596 0 29211
0.16750000 0.16749900 8904.61828263 0 52.20988683 0 2615.89210003 0 751.52629644 0 142.10332395 0 30922
0.16850000 0.16850800 8711.90446916 0 -63.98574717 0 2262.37491322 0 583.37865004 0 1.91947609 0 30867
0.16950000 0.16949900 8776.66649702 0 21.52482089 0 2124.44696295 0 728.83245949 0 77.28837038 0 30852
0.17050000 0.17049200 8683.86934272 0 181.46100976 0 1897.71896764 0 46.72454640 0 60.59407263 0 31257
0.17150000 0.17149500 8537.64822116 0 238.51337785 0 1981.10464585 0 -216.47834423 0 217.81255937 0 32608
0.17250000 0.17250900 8318.17259861 0 239.89963292 0 2081.92923565 0 -308.58347823 0 247.67904833 0 32361
0.17350000 0.17350400 8172.36115307 0 304.08368542 0 2223.62177635 0 -286.27938712 0 185.93312175 0 32508
0.17450000 0.17449800 8059.00269158 0 159.83343769 0 2539.68128830 0 42.80151099 0 496.61923446 0 32791
0.17550000 0.17549800 7942.95365515 0 -9.19663978 0 2205.19742786 0 193.20099576 0 202.82506049 0 33633
0.17650000 0.17650100 7965.05401549 0 60.19513677 0 2414.35364368 0 317.63842547 0 258.37712857 0 33984
0.17750000 0.17750300 7926.20122770 0 -28.04276634 0 2307.50570918 0 222.28024243 0 73.28184964 0 34069
0.17850000 0.17849800 7879.71960811 0 -11.36396985 0 1924.60257230 0 187.72351667 0 85.28436047 0 34536
