### header ###
fiducial parameters:
Omega_m = 0.31
Omega_nu = 0
Omega_de = 0.69
Omega_k = 0
H_0 = 100
w_de = -1
zeff = 0
beta = 0
fgrowth = 0
b_1 = 2
gamma = 0.55
Lx = 3500 Ly = 3500 Lz = 3500
nx = 700 ny = 700 nz = 700
xoffset = -685.467585 yoffset = -31.7331281 zoffset = 572.489161
bins = 400 dk = 0.001
kx_ny = 0.628318531 ky_ny = 0.628318531 kz_ny = 0.628318531
############################
A(data) = 8.03643774 (not used)
A(ran) = 8.03558618 (used)
Ngal = 477897
weighted Ngal = 0
Nran = 23820508
weighted Nran = 0
SN(data) = 3485.24605
SN(ran) = 69.9928699
SN(data+ran) = 3555.23892
############################
13 columns: k_central k_mean P_0(k) sigma^{lin}_{P_0(k)} P^img_1(k) sigma^{lin}_{P_1(k)} P_2(k) sigma^{lin}_{P_2(k)} P^img_3(k) sigma^{lin}_{P_3(k)} P_4(k) sigma^{lin}_{P_4(k)} N_modes
### header ###
0.00050000 0 0 0 0 0 0 0 0 0 0 0 0
0.00150000 0.00179520 78823.10532121 0 -68608.11061327 0 4384.12022892 0 103451.05596882 0 -86525.12518830 0 3
0.00250000 0.00253879 128351.49653023 0 -48462.45849873 0 36192.77247420 0 -93475.99853971 0 1532.39868258 0 6
0.00350000 0.00331552 120763.63233201 0 8235.78342963 0 -7038.96476766 0 -42681.04409468 0 74810.49480693 0 7
0.00450000 0.00420575 104553.30590452 0 35245.53508596 0 5645.82271433 0 -54552.23714899 0 67942.77461491 0 24
0.00550000 0.00557378 68004.44746415 0 20134.80123621 0 21761.99009156 0 -24681.54069974 0 3928.91481097 0 45
0.00650000 0.00659388 74317.00128976 0 6534.85289099 0 37762.38524049 0 -6054.54651268 0 -8930.19535296 0 40
0.00750000 0.00754703 60756.17146812 0 2921.38861410 0 21556.37701968 0 -16157.62216135 0 -25864.72932986 0 57
0.00850000 0.00846663 64778.74707474 0 -2930.05824443 0 25328.93953189 0 -8482.09836755 0 -15693.80247470 0 75
0.00950000 0.00948925 65727.53458845 0 2927.82163482 0 23064.20621348 0 -13536.47070704 0 -38002.54396581 0 112
0.01050000 0.01054430 69433.66315175 0 5508.09406591 0 37026.62925629 0 -7245.97295247 0 -35349.94710900 0 105
0.01150000 0.01145670 62631.71256915 0 5589.45350868 0 31297.69767187 0 2595.86226443 0 -28185.37788860 0 144
0.01250000 0.01249090 64061.92476598 0 -188.13429992 0 29595.77062400 0 20063.16329464 0 -15093.35029979 0 169
0.01350000 0.01339930 62047.09381873 0 -8383.13392832 0 17013.29142334 0 22349.26619994 0 -8899.25927741 0 180
0.01450000 0.01448870 68502.92352749 0 -8815.27569366 0 12194.17276927 0 25904.25752946 0 -7536.87614243 0 267
0.01550000 0.01550050 75935.44300850 0 -2715.24407063 0 10301.83495149 0 6688.99072479 0 -9044.38423881 0 238
0.01650000 0.01653350 72703.09922420 0 2927.67769460 0 4953.14914600 0 -8254.87211762 0 11306.17231882 0 315
0.01750000 0.01747870 72479.77043260 0 4925.68978045 0 16716.99601119 0 -6554.04122990 0 9618.93824598 0 297
0.01850000 0.01844180 65627.44077209 0 5274.06940854 0 17636.10969439 0 -14745.34713074 0 17488.51560456 0 388
0.01950000 0.01947590 69973.43898665 0 4903.96587915 0 23455.83434232 0 -7093.07521905 0 12252.19175132 0 399
0.02050000 0.02045430 66954.56962485 0 -3880.96057218 0 39454.23647278 0 -5276.01813771 0 3104.76845775 0 462
0.02150000 0.02154770 68812.50572942 0 5696.30144318 0 45031.47720718 0 -1651.54796995 0 13193.89297715 0 571
0.02250000 0.02255340 75623.53561836 0 6650.78013184 0 58416.36778745 0 13562.26922386 0 13497.27467718 0 510
0.02350000 0.02348930 66305.95283697 0 -4495.00956198 0 36828.32391879 0 8929.78567694 0 25951.09346345 0 555
0.02450000 0.02439640 64203.31835391 0 -1807.92241336 0 41335.64590596 0 22087.95933422 0 31703.83054622 0 592
0.02550000 0.02547300 72748.49575595 0 1762.89126833 0 42610.73483208 0 15443.23576406 0 5343.84719955 0 837
0.02650000 0.02652900 65147.45549120 0 6239.99688107 0 34237.28918798 0 15048.28593777 0 27321.73655275 0 723
0.02750000 0.02749970 62072.33871932 0 3299.17633691 0 29124.31103322 0 -2495.79059272 0 21163.53093511 0 826
0.02850000 0.02848090 60210.08440807 0 -1352.42911497 0 29927.71892206 0 6305.68898422 0 31220.41284464 0 831
0.02950000 0.02946900 63396.36732113 0 -2223.00172616 0 32704.99015632 0 6610.58759275 0 13336.83669056 0 996
0.03050000 0.03053250 64325.66754316 0 -2680.35517512 0 26021.95634229 0 2873.66689413 0 11585.85924374 0 1041
0.03150000 0.03150510 64653.29763454 0 2323.13983182 0 21696.99554487 0 3094.24974917 0 12577.05376150 0 1036
0.03250000 0.03246190 63846.90021800 0 6031.89253610 0 23448.41588469 0 -3261.84045762 0 10363.57423468 0 1059
0.03350000 0.03345080 59453.40172996 0 2109.76506024 0 20176.65462403 0 2959.00130151 0 4624.71077490 0 1302
0.03450000 0.03451200 55554.06109858 0 2479.46998594 0 21392.06371937 0 129.21624510 0 754.29327041 0 1339
0.03550000 0.03553350 55193.10330949 0 3911.25445289 0 20109.66705887 0 2241.76931673 0 -1725.17892999 0 1365
0.03650000 0.03647120 50192.50925165 0 2832.41141186 0 21908.47694891 0 -3924.06513270 0 -2459.84982636 0 1308
0.03750000 0.03744890 49460.18568814 0 1473.98109683 0 23175.04018492 0 1385.56858316 0 -4845.96904175 0 1579
0.03850000 0.03847530 47686.28852895 0 2138.32058595 0 20987.59169374 0 -1715.05882511 0 -8149.18677722 0 1662
0.03950000 0.03950240 47041.54705476 0 -185.97962551 0 21028.33784908 0 1865.91925076 0 -4190.77529293 0 1683
0.04050000 0.04050350 46788.76587915 0 627.18741042 0 25116.35089537 0 -1973.30972918 0 -8483.50455280 0 1822
0.04150000 0.04152450 48153.54063629 0 2096.74400626 0 24966.76378707 0 223.65210348 0 -5969.02387578 0 1887
0.04250000 0.04250150 44465.90285544 0 3185.56321195 0 31544.49979208 0 153.64068642 0 -518.04086129 0 1920
0.04350000 0.04349210 43147.07824629 0 1687.20085587 0 26398.74755586 0 3766.43951658 0 -974.04680832 0 2005
0.04450000 0.04448520 42399.14270479 0 -351.33040266 0 25131.74142687 0 6392.32992592 0 948.52952854 0 2151
0.04550000 0.04548030 42397.81402582 0 -772.20939920 0 23399.91910198 0 6139.49338869 0 2065.77471374 0 2274
0.04650000 0.04648670 43817.83968381 0 -198.70394120 0 22916.83357015 0 4215.85410865 0 -1338.22332223 0 2311
0.04750000 0.04749250 43488.10585071 0 1018.68377859 0 22804.00658024 0 -60.04964642 0 2264.47865494 0 2568
0.04850000 0.04851840 40714.93137663 0 2196.64959310 0 20916.06447542 0 2315.84316977 0 2858.06598846 0 2493
0.04950000 0.04949480 40692.34383400 0 662.32764770 0 20955.48195177 0 624.90318981 0 5615.37382108 0 2644
0.05050000 0.05050630 40060.44625660 0 983.53579069 0 19972.70240087 0 2619.57918419 0 3658.51756658 0 2829
0.05150000 0.05149060 39821.94838001 0 579.95840891 0 21619.59999439 0 2685.71418034 0 4228.69800544 0 2784
0.05250000 0.05249300 38960.07861612 0 651.52327314 0 19096.21716822 0 2212.77089803 0 553.92515879 0 3055
0.05350000 0.05348950 36816.58725448 0 2797.43393776 0 18396.66768618 0 -349.75148914 0 860.60308992 0 3009
0.05450000 0.05448610 34868.07953290 0 2231.84851369 0 17891.88039770 0 237.96751223 0 451.06104676 0 3336
0.05550000 0.05550870 34130.66269997 0 -645.69590859 0 15817.03744993 0 1993.95961497 0 -1616.45977260 0 3349
0.05650000 0.05647670 34108.29660384 0 -1604.22485367 0 13374.37187169 0 5255.11358845 0 -1068.83365939 0 3324
0.05750000 0.05747970 35891.49451588 0 -1202.38804136 0 10721.26568795 0 3378.93029258 0 -5675.33045997 0 3639
0.05850000 0.05849280 36393.62444641 0 -591.69285875 0 10789.93624647 0 -169.79410109 0 -6401.86319759 0 3846
0.05950000 0.05951020 35677.68792363 0 1507.61881963 0 10048.52230429 0 -1763.14593180 0 -3859.88993805 0 3787
0.06050000 0.06049470 33509.50527765 0 2645.92024494 0 10687.36222935 0 -1273.37271577 0 -385.39662443 0 3930
0.06150000 0.06148310 33007.04317738 0 1512.59029348 0 10683.91873633 0 1603.68230976 0 2202.79473337 0 4083
0.06250000 0.06249100 31825.73684248 0 -247.36570154 0 10337.75357320 0 3971.35503200 0 2938.38463270 0 4303
0.06350000 0.06350600 32212.38242514 0 -43.89180281 0 8020.52636283 0 4435.06399541 0 2479.61392616 0 4470
0.06450000 0.06451750 32324.76652205 0 -43.27917108 0 7282.74414319 0 1908.28196552 0 2149.40398309 0 4479
0.06550000 0.06550280 30811.29044259 0 908.06018133 0 5186.70876572 0 -984.51458420 0 2822.88921251 0 4636
0.06650000 0.06648880 31029.30451827 0 977.83575787 0 7324.23214429 0 -194.18975437 0 2867.02349924 0 4653
0.06750000 0.06749660 29750.11883197 0 484.00564203 0 6728.97288971 0 -651.24867949 0 3523.55699936 0 5220
0.06850000 0.06852730 30267.41784750 0 287.53166705 0 8495.03084293 0 288.88691961 0 975.15404080 0 5029
0.06950000 0.06949320 28998.30797679 0 638.02389472 0 7837.47868893 0 -692.38347342 0 534.00826091 0 5040
0.07050000 0.07048030 29297.70363988 0 932.16352523 0 8944.48972430 0 1338.56656430 0 1016.26336839 0 5475
0.07150000 0.07148790 27831.61711065 0 604.23891000 0 9146.02818065 0 -18.26911450 0 1692.81452455 0 5509
0.07250000 0.07249820 27821.98418805 0 581.56943217 0 8141.76831960 0 1667.35924979 0 -320.78739465 0 5916
0.07350000 0.07351270 26902.87050486 0 461.53657328 0 8067.04119939 0 1129.50999940 0 1501.76155980 0 5721
0.07450000 0.07449140 26757.04798700 0 123.98346439 0 6334.58775200 0 1437.26526773 0 995.79728319 0 6028
0.07550000 0.07549160 26350.91511265 0 498.11399831 0 6593.97910552 0 107.95771362 0 67.00937763 0 6183
0.07650000 0.07648840 26578.00849468 0 252.78449731 0 6771.80064211 0 -77.50394854 0 763.81104082 0 6330
0.07750000 0.07749960 25983.09248217 0 191.91992778 0 6468.98363064 0 -1001.27697675 0 1051.24527142 0 6583
0.07850000 0.07848650 26793.03304266 0 86.50907032 0 8434.68667267 0 -1369.12618080 0 909.52726437 0 6549
0.07950000 0.07947320 25888.31338173 0 359.45306015 0 8794.24934883 0 -613.15213148 0 -1.07927929 0 6828
0.08050000 0.08048110 25980.87801721 0 975.14296848 0 9966.62031761 0 -1006.82864041 0 400.24350478 0 7147
0.08150000 0.08149960 25077.92992825 0 809.34376218 0 8249.02593011 0 -7.55433720 0 -178.68407069 0 7386
0.08250000 0.08250610 24377.16249048 0 600.11779071 0 9569.58889426 0 -0.31504086 0 -156.83062320 0 7227
0.08350000 0.08350160 24172.98882082 0 50.28640257 0 8958.19726242 0 507.05047168 0 -1312.36944378 0 7798
0.08450000 0.08449610 23722.67737045 0 262.92563961 0 8705.79254586 0 1331.48027642 0 -1854.26009273 0 7371
0.08550000 0.08548940 23204.60329218 0 584.91216703 0 8474.31452320 0 387.23684481 0 -986.27729831 0 8256
0.08650000 0.08650700 22891.69939281 0 495.91835630 0 8512.07115083 0 1134.21573745 0 -409.86867674 0 8037
0.08750000 0.08749060 22567.50172212 0 268.70096423 0 8150.55974550 0 836.04024455 0 -465.69644571 0 8155
0.08850000 0.08849210 22457.88570641 0 407.65199731 0 7780.46728844 0 553.70703400 0 146.69723152 0 8718
0.08950000 0.08949900 21492.04681248 0 852.03864668 0 7942.56612378 0 949.61240191 0 -468.98935511 0 8571
0.09050000 0.09049190 20866.01756724 0 906.69607091 0 7286.89626500 0 -4.55817718 0 37.22471315 0 8932
0.09150000 0.09150830 20054.30543478 0 672.42228624 0 7322.01767932 0 459.48265702 0 -827.79911318 0 9285
0.09250000 0.09250820 19495.92809418 0 202.82838219 0 6233.65243895 0 420.09950487 0 -1715.52386275 0 9204
0.09350000 0.09350330 19344.56941391 0 242.17721013 0 5959.99993106 0 -121.76567773 0 -1507.53024103 0 9349
0.09450000 0.09448040 18911.75223674 0 535.39340875 0 5829.90011444 0 -425.77960751 0 -2312.28895350 0 9564
0.09550000 0.09549270 19111.38625322 0 227.70125266 0 6566.16542558 0 -543.88809635 0 -2041.30487589 0 10155
0.09650000 0.09649430 18294.13795836 0 636.73064718 0 6621.60455594 0 196.02222412 0 -733.67881606 0 9913
0.09750000 0.09749140 18373.52652731 0 458.94232757 0 6479.49126690 0 747.80156637 0 -1157.33475167 0 10476
0.09850000 0.09850240 17607.87526610 0 130.97895921 0 6637.08366604 0 1525.04665890 0 163.10641690 0 10575
0.09950000 0.09950330 17645.29972399 0 736.65062804 0 5975.96622344 0 1018.12905512 0 -230.25120907 0 10882
0.10050000 0.10051200 16890.05644811 0 590.74396051 0 5974.84791864 0 870.34895023 0 1224.76520981 0 10875
0.10150000 0.10150300 16013.68193871 0 595.38658631 0 5401.86618160 0 312.87400410 0 1600.33846766 0 11118
0.10250000 0.10250800 16262.36635414 0 135.70352021 0 5631.40654741 0 -36.69324156 0 689.68071893 0 11575
0.10350000 0.10349800 15806.96163435 0 -110.51619571 0 5193.06428017 0 112.03421144 0 767.90115761 0 11364
0.10450000 0.10450100 16323.26414064 0 -319.49968327 0 5279.91559605 0 -256.82700310 0 240.40231646 0 12093
0.10550000 0.10551000 16068.26850007 0 6.90363881 0 4929.52080483 0 -254.68672271 0 -481.15784009 0 12067
0.10650000 0.10649700 16536.07422366 0 273.68793933 0 5582.65510124 0 -478.50491106 0 -906.51891371 0 12054
0.10750000 0.10749900 15835.41750913 0 263.49475710 0 5356.45857752 0 -601.18848452 0 -41.71952341 0 12807
0.10850000 0.10850100 16085.76277328 0 367.32326863 0 6130.92340928 0 161.69912442 0 278.17444535 0 12736
0.10950000 0.10950300 15582.85778002 0 -134.42134500 0 5701.25077237 0 997.19128889 0 558.62646791 0 12933
0.11050000 0.11050200 15893.99010742 0 -118.78390065 0 5857.38162464 0 1033.17413008 0 186.39483769 0 13428
0.11150000 0.11150900 16148.54285500 0 -85.98856033 0 5600.00543423 0 531.47491299 0 780.76830628 0 13453
0.11250000 0.11250000 15839.84643906 0 295.19371583 0 6149.74636147 0 695.45050739 0 1296.83497206 0 13668
0.11350000 0.11349100 15539.89715972 0 588.10874721 0 5294.48677551 0 -329.84455635 0 565.34072568 0 13791
0.11450000 0.11448600 15279.25463349 0 508.79436283 0 5297.09984416 0 -153.50117512 0 283.46590938 0 14205
0.11550000 0.11549300 14598.74955014 0 454.78245514 0 5088.34223203 0 -306.30590102 0 -85.76866396 0 14776
0.11650000 0.11649800 14226.16581999 0 234.93590970 0 4858.32575625 0 -365.57827023 0 -735.28873209 0 14553
0.11750000 0.11747300 14432.66467786 0 106.03987623 0 4780.29908325 0 -381.88891193 0 -1698.36175928 0 14568
0.11850000 0.11849100 14061.40962669 0 95.45860902 0 4948.62056515 0 -170.85150811 0 -1528.74481539 0 16015
0.11950000 0.11950300 14162.49995228 0 222.80285616 0 5298.69425894 0 -131.30891449 0 -1889.86868935 0 15270
0.12050000 0.12050700 13971.05945617 0 228.30358713 0 5201.54568098 0 -14.70227579 0 -1514.93762634 0 15999
0.12150000 0.12150000 13765.00349129 0 77.33520631 0 5066.27508867 0 863.07111113 0 -1152.58472432 0 15670
0.12250000 0.12250700 13956.33326416 0 -96.05895047 0 4940.92529940 0 835.52427421 0 -976.06972206 0 16887
0.12350000 0.12352200 13745.51619961 0 7.99503787 0 5004.21470806 0 768.80798102 0 -1365.61625383 0 16407
0.12450000 0.12449800 13703.44136530 0 404.93817050 0 4711.76139263 0 83.01851992 0 -939.05604743 0 16306
0.12550000 0.12549900 13263.31645376 0 465.17826091 0 4127.28658242 0 -0.12004282 0 -159.42154720 0 17523
0.12650000 0.12650100 13125.68745626 0 -92.76537673 0 4341.54713999 0 -139.78477914 0 -459.58784411 0 17154
0.12750000 0.12750600 12988.83352151 0 214.10000886 0 4248.49532221 0 202.34673606 0 -413.18373079 0 18007
0.12850000 0.12850300 13125.68745626 0 415.28857974 0 4780.86377182 0 -266.56289831 0 -526.59091051 0 17496
0.12950000 0.12949900 12660.64981388 0 242.77843737 0 4250.17831559 0 82.67771376 0 -110.41787347 0 18405
0.13050000 0.13049000 12594.32658822 0 121.55530356 0 4810.48224071 0 -103.82961875 0 -15.19909100 0 18100
0.13150000 0.13148800 12745.24237550 0 29.44939449 0 4309.68098916 0 340.34444197 0 -4.86082810 0 19059
0.13250000 0.13249300 12625.21837446 0 70.42341827 0 4460.06530485 0 621.07437989 0 -202.97010795 0 18957
0.13350000 0.13349100 12531.21433675 0 40.31333816 0 4083.20765732 0 362.15913633 0 104.20463840 0 19468
0.13450000 0.13450700 12390.15291856 0 -92.58988038 0 4061.05193536 0 875.67806016 0 -6.72589478 0 19953
0.13550000 0.13551000 12451.16142831 0 97.53001955 0 3613.34248132 0 583.25242554 0 -399.50719518 0 19956
0.13650000 0.13649900 12262.93190640 0 158.01093302 0 3339.28029741 0 559.19115648 0 203.48054212 0 19723
0.13750000 0.13749600 12108.47297518 0 347.32332831 0 3238.33391203 0 86.09286163 0 470.16080708 0 20946
0.13850000 0.13851100 11930.54071534 0 244.89103694 0 3340.03321549 0 83.02859573 0 1109.40265753 0 20955
0.13950000 0.13949800 11497.83426143 0 214.20408871 0 3337.39800219 0 61.63996444 0 1091.28722689 0 20506
0.14050000 0.14048300 11675.10218177 0 207.05025964 0 3377.63483058 0 138.34759138 0 1086.96126959 0 21447
0.14150000 0.14148400 11304.17930035 0 120.10815070 0 3565.87542482 0 -181.46765315 0 1228.00940099 0 21771
0.14250000 0.14249400 11436.05068894 0 52.67016338 0 3403.26726253 0 182.91591324 0 1106.71872599 0 22470
0.14350000 0.14350900 11341.49303499 0 -42.51141608 0 3466.81133467 0 -48.13792866 0 830.41661077 0 22519
0.14450000 0.14449900 11198.32787508 0 251.08932438 0 3351.41556541 0 32.98545214 0 332.25721593 0 22218
0.14550000 0.14550500 11017.78254659 0 360.50382377 0 3142.51401305 0 -10.01213864 0 644.14246142 0 23559
0.14650000 0.14650700 10769.54102416 0 230.22463549 0 2887.45193853 0 193.65606831 0 763.18213277 0 23044
0.14750000 0.14750500 10515.74119466 0 -19.40424924 0 2755.60269459 0 151.79271540 0 388.22117449 0 23649
0.14850000 0.14849900 10503.94916873 0 19.44909216 0 2694.27308742 0 608.40321137 0 329.34519450 0 23640
0.14950000 0.14949500 10579.58421957 0 57.01693665 0 2516.94980545 0 48.19904789 0 61.33724707 0 24457
0.15050000 0.15050000 10296.35415071 0 213.60286147 0 2704.69214507 0 7.95955107 0 0.80803834 0 24591
0.15150000 0.15149900 10274.25379037 0 166.26535117 0 2631.67016290 0 -343.10920148 0 345.76102327 0 25020
0.15250000 0.15250500 10144.87367486 0 309.38400732 0 3019.21260387 0 -202.54271621 0 317.32618591 0 25297
0.15350000 0.15350100 9912.03375625 0 269.26676003 0 3159.27751283 0 20.80157664 0 820.46259076 0 25452
0.15450000 0.15450400 9818.40617758 0 67.28961817 0 2938.41784967 0 420.89449780 0 379.18062127 0 26061
0.15550000 0.15549900 9635.04847859 0 -32.77707099 0 2895.49044635 0 245.62734654 0 526.38164358 0 26128
0.15650000 0.15649500 9636.32179594 0 189.77854016 0 2878.83766982 0 233.21194873 0 442.88413489 0 26331
0.15750000 0.15749700 9454.53636707 0 239.13674974 0 2529.76048527 0 133.99173879 0 385.21060937 0 27345
0.15850000 0.15849900 9201.40087707 0 201.58938904 0 2400.04820001 0 45.60092687 0 737.69696274 0 26980
0.15950000 0.15949700 9237.57416225 0 116.34134580 0 2553.44418805 0 0.99809922 0 536.70880093 0 27777
0.16050000 0.16050000 9078.90774760 0 45.53072833 0 2640.50587810 0 97.35563043 0 800.04190210 0 28224
0.16150000 0.16150500 9046.23331706 0 206.39809971 0 2645.54378589 0 -1.81390147 0 624.57323453 0 28075
0.16250000 0.16249700 8993.49583395 0 151.62552330 0 2793.97937241 0 15.69092367 0 684.57859165 0 28590
0.16350000 0.16349900 8950.47985203 0 109.48923759 0 3117.31340177 0 -203.88911091 0 453.02306272 0 29163
0.16450000 0.16449100 8736.83934465 0 130.15074931 0 3014.52901048 0 -165.51796925 0 614.10435142 0 28996
0.16550000 0.16550500 8800.87059908 0 98.32180150 0 3207.74107856 0 -158.44275369 0 418.29693039 0 30777
0.16650000 0.16650700 8724.64871502 0 21.41830513 0 2946.06882612 0 183.89692122 0 389.23982837 0 29211
0.16750000 0.16749900 8776.53362912 0 12.65909969 0 3034.01630216 0 277.55550239 0 267.09104821 0 30922
0.16850000 0.16850800 8672.04409981 0 95.49990879 0 2888.16056732 0 285.52646903 0 296.73166174 0 30867
0.16950000 0.16949900 8653.59760666 0 56.85472710 0 2623.93060785 0 202.32791311 0 55.06278205 0 30852
0.17050000 0.17049200 8516.53329773 0 180.88414163 0 2745.38293878 0 259.39246076 0 200.63938357 0 31257
0.17150000 0.17149500 8375.85941091 0 161.43671032 0 2646.16383608 0 -192.30635192 0 397.18975759 0 32608
0.17250000 0.17250900 8202.54431053 0 227.93044979 0 2675.87088357 0 198.40498843 0 662.02426600 0 32361
0.17350000 0.17350400 8135.10278006 0 76.38996194 0 2589.66176253 0 202.25040683 0 792.22484077 0 32508
0.17450000 0.17449800 8036.23799175 0 40.25332615 0 2641.51345966 0 264.62191977 0 612.98051045 0 32791
0.17550000 0.17549800 8041.22053792 0 88.67005595 0 2258.42209326 0 220.67586257 0 524.87248570 0 33633
0.17650000 0.17650100 7839.36098415 0 117.66781031 0 2370.71761157 0 7.79228146 0 524.12731824 0 33984
0.17750000 0.17750300 7831.55499515 0 109.62908105 0 2119.53085073 0 76.96683007 0 743.26080596 0 34069
0.17850000 0.17849800 7852.34882116 0 -96.75097077 0 2169.42274637 0 27.74481008 0 418.23603261 0 34536
