### header ###
fiducial parameters:
Omega_m = 0.31
Omega_nu = 0
Omega_de = 0.69
Omega_k = 0
H_0 = 100
w_de = -1
zeff = 0
beta = 0
fgrowth = 0
b_1 = 2
gamma = 0.55
Lx = 3500 Ly = 3500 Lz = 3500
nx = 700 ny = 700 nz = 700
xoffset = -685.467585 yoffset = -31.7331281 zoffset = 572.489161
bins = 400 dk = 0.001
kx_ny = 0.628318531 ky_ny = 0.628318531 kz_ny = 0.628318531
############################
A(data) = 8.07579938 (not used)
A(ran) = 8.07527809 (used)
Ngal = 479939
weighted Ngal = 0
Nran = 23820508
weighted Nran = 0
SN(data) = 3489.34961
SN(ran) = 70.3386008
SN(data+ran) = 3559.68822
############################
13 columns: k_central k_mean P_0(k) sigma^{lin}_{P_0(k)} P^img_1(k) sigma^{lin}_{P_1(k)} P_2(k) sigma^{lin}_{P_2(k)} P^img_3(k) sigma^{lin}_{P_3(k)} P_4(k) sigma^{lin}_{P_4(k)} N_modes
### header ###
0.00050000 0 0 0 0 0 0 0 0 0 0 0 0
0.00150000 0.00179520 7633.50432112 0 -10745.28156048 0 15385.43822850 0 -30128.68161752 0 -22264.89508482 0 3
0.00250000 0.00253879 16642.36854191 0 -8116.20232159 0 142.15536388 0 33906.44812240 0 -2621.59434731 0 6
0.00350000 0.00331552 34602.34373725 0 -20199.68505965 0 21299.05619089 0 14741.36109380 0 -3558.23552069 0 7
0.00450000 0.00420575 42739.72741622 0 -9977.08366456 0 16251.95836881 0 6621.65991757 0 -28801.22059501 0 24
0.00550000 0.00557378 65017.24495133 0 -12250.30945610 0 17286.44567662 0 6654.09075696 0 -28147.51053772 0 45
0.00650000 0.00659388 58343.17972040 0 -16771.25040280 0 13468.26518615 0 -7424.19309275 0 -5763.27793600 0 40
0.00750000 0.00754703 74669.21194224 0 -515.09673012 0 7173.29421236 0 17101.20568240 0 -17853.12726083 0 57
0.00850000 0.00846663 88110.34993259 0 -3492.49912825 0 7403.45462836 0 -21926.85700811 0 -38382.65687683 0 75
0.00950000 0.00948925 70989.10334227 0 12824.29877470 0 -4289.55150264 0 -21655.03143381 0 -19039.08397216 0 112
0.01050000 0.01054430 75793.71725082 0 -2679.91228213 0 -31857.07152171 0 -12008.15771232 0 -21276.57937151 0 105
0.01150000 0.01145670 75259.25613183 0 -9362.49213085 0 -24883.61062768 0 2247.79266143 0 -24496.52215202 0 144
0.01250000 0.01249090 86809.13031990 0 -11380.46761835 0 -21944.90489756 0 -15636.44783214 0 -29710.81207887 0 169
0.01350000 0.01339930 87894.43959863 0 4962.04022283 0 -18448.92905932 0 -11069.49030349 0 -43109.65378841 0 180
0.01450000 0.01448870 83662.70777619 0 6290.24309110 0 -9882.38207039 0 -9503.14387302 0 -7919.24780772 0 267
0.01550000 0.01550050 77374.18089544 0 14782.21797238 0 -6067.86651944 0 -17294.19630399 0 20229.58033666 0 238
0.01650000 0.01653350 71165.04258364 0 10811.21725477 0 22885.94178390 0 -5263.31818114 0 5337.38096185 0 315
0.01750000 0.01747870 71715.66929687 0 2496.67637871 0 36574.32478745 0 -1131.85733226 0 34600.46144203 0 297
0.01850000 0.01844180 62536.49057571 0 4716.07959931 0 43821.05065800 0 13790.35911513 0 40872.15838905 0 388
0.01950000 0.01947590 68866.42795129 0 -2665.08643920 0 42063.76198604 0 17143.61268645 0 37834.68752156 0 399
0.02050000 0.02045430 70869.96512722 0 -5691.28568003 0 48120.21293859 0 23543.74860138 0 29827.73582895 0 462
0.02150000 0.02154770 75499.52558039 0 -3132.70393326 0 41578.57271248 0 19204.94739794 0 30990.99427440 0 571
0.02250000 0.02255340 73461.88564402 0 3891.18032799 0 28120.27261867 0 3143.70982413 0 11360.75888017 0 510
0.02350000 0.02348930 71917.51777831 0 780.00874480 0 22326.01431782 0 -556.86818273 0 13610.21239033 0 555
0.02450000 0.02439640 68467.04919508 0 924.97647919 0 22399.42383137 0 -2404.98645688 0 5984.22617776 0 592
0.02550000 0.02547300 68636.78793455 0 1145.59808736 0 13041.42706439 0 -227.56063414 0 -6267.86592264 0 837
0.02650000 0.02652900 67081.45846727 0 1021.29352555 0 13791.46634761 0 -4492.62901214 0 -13233.53190000 0 723
0.02750000 0.02749970 67114.34327198 0 3001.64082439 0 14557.56050181 0 -3512.06392620 0 -8129.19015860 0 826
0.02850000 0.02848090 65694.42833724 0 722.73825191 0 16095.50641912 0 -2261.95416488 0 -8791.53662925 0 831
0.02950000 0.02946900 61641.29311413 0 2013.51334060 0 15146.05456592 0 -294.68771058 0 -14049.67296238 0 996
0.03050000 0.03053250 64814.62140715 0 688.47051383 0 22441.27721918 0 2383.56150836 0 -6984.20104911 0 1041
0.03150000 0.03150510 61117.12925721 0 2145.09684874 0 24826.47743162 0 782.67938955 0 -4326.09017454 0 1036
0.03250000 0.03246190 60013.77208903 0 3110.37105411 0 15170.74585027 0 7988.97023710 0 -1890.31158234 0 1059
0.03350000 0.03345080 57952.54810079 0 638.92296750 0 21984.65454366 0 3374.51243498 0 3056.58170014 0 1302
0.03450000 0.03451200 56476.93937221 0 2708.61174806 0 18065.49445086 0 3994.62905877 0 910.76515028 0 1339
0.03550000 0.03553350 53090.35810318 0 4401.34876634 0 18707.57856709 0 -1541.77694170 0 8136.77470110 0 1365
0.03650000 0.03647120 49070.77202427 0 5419.27187621 0 12846.44342434 0 3772.45178896 0 -1265.95425814 0 1308
0.03750000 0.03744890 47602.02813708 0 934.05800000 0 16696.40148703 0 -2367.04159973 0 4114.88557863 0 1579
0.03850000 0.03847530 44922.85770071 0 1614.80999620 0 20743.77910124 0 3952.55422446 0 2699.60994798 0 1662
0.03950000 0.03950240 45688.06606892 0 -206.35713211 0 20300.11104575 0 -4085.53284553 0 4655.10430653 0 1683
0.04050000 0.04050350 44971.79737641 0 -613.58063045 0 14153.30992268 0 4983.08871231 0 4543.38454911 0 1822
0.04150000 0.04152450 48201.70524925 0 -1067.91908536 0 16737.81198185 0 6111.67970875 0 369.83668636 0 1887
0.04250000 0.04250150 45843.41078613 0 -432.54036904 0 13519.86221981 0 -173.12465640 0 388.93533944 0 1920
0.04350000 0.04349210 46535.65253379 0 4346.14215479 0 14712.79449577 0 1421.33219232 0 2075.25262378 0 2005
0.04450000 0.04448520 42025.23029567 0 3002.46017642 0 11448.78386248 0 -1536.05254977 0 5909.18903246 0 2151
0.04550000 0.04548030 41086.62932079 0 1073.28141227 0 12524.46021861 0 2976.30734520 0 3608.60352629 0 2274
0.04650000 0.04648670 41107.22384495 0 -629.25904240 0 14078.79317665 0 918.52242105 0 2531.80886536 0 2311
0.04750000 0.04749250 40714.37776039 0 1210.88051449 0 17134.20121036 0 18.97298219 0 -1897.91826949 0 2568
0.04850000 0.04851840 39667.15727904 0 2120.91489134 0 16890.49934110 0 -2531.56527421 0 -14.64658199 0 2493
0.04950000 0.04949480 38589.70935094 0 697.31287243 0 17378.23524936 0 -1587.70494504 0 1014.65234513 0 2644
0.05050000 0.05050630 37438.74118604 0 1462.82019342 0 17137.52290780 0 -2468.30908252 0 103.62821317 0 2829
0.05150000 0.05149060 37655.75875249 0 324.98380575 0 20000.60465941 0 4291.69953366 0 -371.72230328 0 2784
0.05250000 0.05249300 36924.98531446 0 41.19724185 0 16445.61332989 0 2831.14916683 0 471.02444841 0 3055
0.05350000 0.05348950 37062.28214221 0 -359.78080096 0 14213.54336970 0 1724.28207168 0 -145.14599882 0 3009
0.05450000 0.05448610 37746.33036950 0 -1465.14538163 0 13626.26726132 0 3013.65429681 0 -1562.51540608 0 3336
0.05550000 0.05550870 37505.50730470 0 552.55551221 0 14028.08192898 0 389.20661140 0 -1131.13763115 0 3349
0.05650000 0.05647670 37472.17960699 0 1171.49625511 0 14417.93848585 0 -108.24260453 0 1994.15891681 0 3324
0.05750000 0.05747970 37307.86630668 0 1457.84871957 0 13029.57967684 0 463.70896340 0 3748.00409576 0 3639
0.05850000 0.05849280 34515.86888041 0 1331.08167272 0 14140.35530265 0 2295.23757328 0 5720.69377475 0 3846
0.05950000 0.05951020 34683.83604791 0 1008.24479075 0 13559.05824967 0 2213.45738217 0 1765.02822702 0 3787
0.06050000 0.06049470 32901.19175211 0 460.10049275 0 14110.90291863 0 4400.21938920 0 537.90793371 0 3930
0.06150000 0.06148310 31881.98425255 0 1257.86038870 0 11191.90592669 0 1174.64079536 0 3084.04106569 0 4083
0.06250000 0.06249100 31058.53545579 0 1316.32226374 0 10435.33397183 0 1915.21324086 0 5721.40240354 0 4303
0.06350000 0.06350600 30274.50413538 0 290.39939918 0 8422.24137958 0 1093.56148241 0 4982.45758979 0 4470
0.06450000 0.06451750 29806.25551880 0 80.21688957 0 8859.54284829 0 1396.59661868 0 5707.55092519 0 4479
0.06550000 0.06550280 30490.74663909 0 -6.23098401 0 10167.63837469 0 962.57698704 0 5371.20691417 0 4636
0.06650000 0.06648880 30115.50555099 0 -204.51912619 0 10505.97540417 0 532.50463920 0 6392.55137242 0 4653
0.06750000 0.06749660 30272.17894717 0 737.31607477 0 10282.63554026 0 -163.50834229 0 5554.94107222 0 5220
0.06850000 0.06852730 30123.25617836 0 771.43876539 0 10786.37095788 0 134.30840728 0 6250.47130035 0 5029
0.06950000 0.06949320 29835.26500983 0 541.31710252 0 10848.30954292 0 -610.75718762 0 6296.42144835 0 5040
0.07050000 0.07048030 29444.07977399 0 208.09216541 0 9949.29212927 0 1330.41733323 0 3584.83124491 0 5475
0.07150000 0.07148790 29101.61276734 0 28.93563862 0 10099.54357705 0 620.54623000 0 3977.88770365 0 5509
0.07250000 0.07249820 28667.02401821 0 925.32857912 0 9129.63006759 0 -224.56224858 0 2358.37196940 0 5916
0.07350000 0.07351270 27816.66947214 0 544.88239112 0 8665.26783702 0 358.39343866 0 1004.76254460 0 5721
0.07450000 0.07449140 27327.93705465 0 774.96640808 0 9403.73654080 0 -606.16438729 0 395.13916304 0 6028
0.07550000 0.07549160 27002.96432122 0 704.37812290 0 8243.29046586 0 770.57844575 0 718.58391564 0 6183
0.07650000 0.07648840 26332.31360695 0 350.67492103 0 9761.85981474 0 1845.08113545 0 2513.06341944 0 6330
0.07750000 0.07749960 26445.69421310 0 -73.84786689 0 8739.45241331 0 2389.50734679 0 1569.94493604 0 6583
0.07850000 0.07848650 25969.25207615 0 229.00667976 0 8903.23424202 0 834.28638830 0 2414.06576324 0 6549
0.07950000 0.07947320 25754.67042116 0 843.28929561 0 8030.44716587 0 -38.73287451 0 3816.69679894 0 6828
0.08050000 0.08048110 25117.34740460 0 401.72608907 0 9704.09549616 0 -188.82521299 0 5860.98013020 0 7147
0.08150000 0.08149960 25178.35591435 0 344.23414968 0 9476.02774954 0 511.82817983 0 4891.40986281 0 7386
0.08250000 0.08250610 24699.69931244 0 960.95821315 0 10854.59862341 0 -152.21899991 0 6115.57716708 0 7227
0.08350000 0.08350160 24318.25772244 0 707.18606447 0 9869.44959500 0 594.43325914 0 4706.40238741 0 7798
0.08450000 0.08449610 23249.77837744 0 451.91029408 0 10005.31809285 0 1127.45054698 0 5654.91309300 0 7371
0.08550000 0.08548940 23294.06767672 0 -393.34876811 0 8563.36923172 0 2373.40818650 0 5412.53990272 0 8256
0.08650000 0.08650700 23438.89368534 0 14.39933698 0 7192.33861105 0 2268.33182397 0 4054.80714416 0 8037
0.08750000 0.08749060 22833.45896426 0 207.47100799 0 6041.47009707 0 1232.01758257 0 4233.80234718 0 8155
0.08850000 0.08849210 22244.96490015 0 1286.60414393 0 5593.78278768 0 -360.68762436 0 2600.98875082 0 8718
0.08950000 0.08949900 20781.42500562 0 1300.52205622 0 5246.79827251 0 -901.66369928 0 3184.84351084 0 8571
0.09050000 0.09049190 20517.79295169 0 321.11956439 0 6633.46301583 0 -142.28712455 0 2679.90120981 0 8932
0.09150000 0.09150830 19874.15870998 0 289.84799741 0 6592.07466565 0 -351.15878162 0 1150.17095751 0 9285
0.09250000 0.09250820 19999.05453394 0 276.75829500 0 6475.94812296 0 665.51537001 0 1319.85433536 0 9204
0.09350000 0.09350330 19421.63279464 0 613.15213148 0 6252.81863321 0 -136.61809424 0 1657.20592793 0 9349
0.09450000 0.09448040 19013.50690183 0 352.85616902 0 5877.76577463 0 237.37957179 0 1972.11391810 0 9564
0.09550000 0.09549270 19096.10644497 0 -122.27500467 0 5240.95208501 0 323.07382972 0 831.64342436 0 10155
0.09650000 0.09649430 18905.88390459 0 -89.15247714 0 5524.17108154 0 -212.71043209 0 767.77161141 0 9913
0.09750000 0.09749140 18725.40501005 0 270.97521975 0 5973.00991272 0 -618.98503220 0 -262.39527525 0 10476
0.09850000 0.09850240 18616.01044084 0 951.61317100 0 6167.99355277 0 -249.08080466 0 894.75235413 0 10575
0.09950000 0.09950330 18089.18922597 0 825.48831899 0 6778.43296468 0 -878.35977724 0 439.87578423 0 10882
0.10050000 0.10051200 17216.80075351 0 461.37491733 0 6803.57821434 0 -408.01074064 0 690.42256469 0 10875
0.10150000 0.10150300 17401.37640823 0 29.47231420 0 7778.88394599 0 414.42493840 0 52.63262820 0 11118
0.10250000 0.10250800 16939.54974005 0 269.76722911 0 7551.86807023 0 1565.33884891 0 320.83500564 0 11575
0.10350000 0.10349800 16962.02655943 0 339.08330418 0 6882.34673310 0 451.14741090 0 -358.97805741 0 11364
0.10450000 0.10450100 16405.19934430 0 577.17039752 0 6939.04810850 0 70.32000275 0 481.20434385 0 12093
0.10550000 0.10551000 16124.62663339 0 415.05827538 0 6753.71953568 0 479.58003380 0 384.36136206 0 12067
0.10650000 0.10649700 15818.80902190 0 137.05766554 0 6729.94725430 0 678.23968570 0 1147.89005860 0 12054
0.10750000 0.10749900 15664.90370692 0 180.83542340 0 6782.20862744 0 467.82343931 0 909.86829197 0 12807
0.10850000 0.10850100 15490.18242129 0 155.79868252 0 6682.25875130 0 453.83798583 0 1112.93472915 0 12736
0.10950000 0.10950300 15449.43626595 0 307.53382184 0 6365.97779286 0 298.85865534 0 1736.97095593 0 12933
0.11050000 0.11050200 14886.62999542 0 352.95471271 0 5996.08463764 0 53.91790366 0 1282.13092470 0 13428
0.11150000 0.11150900 14822.63195797 0 261.45523487 0 5913.09756312 0 367.83481003 0 1066.96132927 0 13453
0.11250000 0.11250000 14411.84870720 0 188.55947720 0 5520.83831177 0 317.27303875 0 901.44557448 0 13668
0.11350000 0.11349100 14398.56191742 0 239.07031579 0 5732.37507743 0 559.43031869 0 506.05506967 0 13791
0.11450000 0.11448600 14302.23269149 0 -105.46012931 0 4914.35171983 0 501.18767568 0 810.69790750 0 14205
0.11550000 0.11549300 14092.07996644 0 -22.66493818 0 4815.49800385 0 823.86179448 0 760.94220146 0 14776
0.11650000 0.11649800 14353.05466241 0 129.23617528 0 4670.90451405 0 135.50643283 0 1014.50729767 0 14553
0.11750000 0.11747300 13916.36217156 0 152.98188309 0 4412.44323580 0 538.58334553 0 1562.38253818 0 14568
0.11850000 0.11849100 13836.41998637 0 185.43929606 0 4243.40205280 0 993.51416981 0 1467.40413589 0 16015
0.11950000 0.11950300 13731.12217735 0 -196.73196015 0 4261.71567805 0 327.56033574 0 1594.11582111 0 15270
0.12050000 0.12050700 13932.74921230 0 37.34739451 0 4212.31096471 0 345.07453914 0 1796.13038743 0 15999
0.12150000 0.12150000 13916.58361806 0 217.90113797 0 4029.00862733 0 -22.86512581 0 2009.12869997 0 15670
0.12250000 0.12250700 13719.82840603 0 1.09848535 0 3914.95260938 0 -156.24711168 0 2249.89640315 0 16887
0.12350000 0.12352200 14005.49438635 0 118.20813976 0 4122.78014622 0 71.16205306 0 1973.96299634 0 16407
0.12450000 0.12449800 13771.97905593 0 166.75142623 0 4039.82628868 0 -153.55432228 0 1437.33170168 0 16306
0.12550000 0.12549900 13654.16951986 0 263.27995400 0 4435.67297327 0 -178.00976611 0 1384.89317134 0 17523
0.12650000 0.12650100 13240.50746463 0 403.19538657 0 4679.58521670 0 -14.42546767 0 1832.73549328 0 17154
0.12750000 0.12750600 12904.68385288 0 425.48951260 0 4331.30523953 0 146.76366547 0 1151.42213022 0 18007
0.12850000 0.12850300 12673.60443392 0 156.40655316 0 4248.00813992 0 357.25077474 0 1673.16114800 0 17496
0.12950000 0.12949900 12551.14452142 0 50.70482572 0 4090.11678801 0 374.12499776 0 1225.91673160 0 18405
0.13050000 0.13049000 12520.25273518 0 85.04486608 0 3852.62649297 0 196.05544110 0 1407.19283353 0 18100
0.13150000 0.13148800 12314.75038655 0 232.03385336 0 3695.87559052 0 276.30211522 0 749.35612077 0 19059
0.13250000 0.13249300 12200.59471767 0 62.63780235 0 3418.93460215 0 -35.62686595 0 1291.68634102 0 18957
0.13350000 0.13349100 12332.46610626 0 -7.19355657 0 3239.48543382 0 63.09951829 0 790.93048600 0 19468
0.13450000 0.13450700 12235.47254085 0 215.09541086 0 3938.74703541 0 -159.40161702 0 833.08614828 0 19953
0.13550000 0.13551000 12175.34981708 0 314.76847887 0 3597.99623912 0 -520.84991010 0 771.17413683 0 19956
0.13650000 0.13649900 11741.64685393 0 510.87153097 0 4282.56486568 0 76.18290947 0 881.01713519 0 19723
0.13750000 0.13749600 11569.69364950 0 170.69095940 0 3840.07047663 0 229.30784699 0 1370.48807675 0 20946
0.13850000 0.13851100 11598.48169403 0 -265.52542148 0 3543.90793238 0 1143.73793679 0 969.95558430 0 20955
0.13950000 0.13949800 11547.88116961 0 -175.31697671 0 3372.77407998 0 558.65082703 0 764.84298150 0 20506
0.14050000 0.14048300 11703.11516356 0 152.40280050 0 3161.84629219 0 187.14000515 0 379.16401279 0 21447
0.14150000 0.14148400 11320.12344809 0 408.60753894 0 3008.06277278 0 -183.52267664 0 1068.77276161 0 21771
0.14250000 0.14249400 11172.52935826 0 193.00612284 0 3273.54390496 0 -194.08124558 0 1099.72876734 0 22470
0.14350000 0.14350900 11076.75374857 0 -20.82549286 0 3197.96421575 0 -52.29481156 0 1023.37401539 0 22519
0.14450000 0.14449900 11057.21109527 0 76.40889562 0 3654.84155474 0 3.62530059 0 611.29530261 0 22218
0.14550000 0.14550500 10934.69582115 0 253.19306609 0 3348.75820745 0 152.07948862 0 737.23967572 0 23559
0.14650000 0.14650700 10755.47917164 0 216.14174555 0 3313.60357615 0 284.56428400 0 908.72894975 0 23044
0.14750000 0.14750500 10523.81291946 0 -15.73665237 0 2895.70082052 0 225.61411943 0 744.96372952 0 23649
0.14850000 0.14849900 10546.44475138 0 122.40344364 0 2835.66667535 0 412.00009927 0 728.84685351 0 23640
0.14950000 0.14949500 10477.08770872 0 104.71994439 0 2599.88151834 0 57.10640104 0 626.67586902 0 24457
0.15050000 0.15050000 10397.67699512 0 113.17908983 0 2437.64981510 0 34.37104287 0 653.22176777 0 24591
0.15150000 0.15149900 10244.07063291 0 223.82151005 0 2643.35146558 0 33.24011561 0 731.80537870 0 25020
0.15250000 0.15250500 10249.17497465 0 111.62232096 0 2497.70610492 0 41.85936687 0 553.10912846 0 25297
0.15350000 0.15350100 9945.33930931 0 239.27293933 0 2795.33019604 0 56.09129030 0 945.93749730 0 25452
0.15450000 0.15450400 9912.18876880 0 374.62435961 0 2908.36756011 0 -38.90073096 0 1001.28140568 0 26061
0.15550000 0.15549900 9639.36668527 0 164.81709109 0 3095.43448792 0 -41.32003393 0 1319.63288886 0 26128
0.15650000 0.15649500 9608.96208131 0 73.79239454 0 3079.46819554 0 410.12444745 0 1383.35411819 0 26331
0.15750000 0.15749700 9598.66481923 0 18.55323036 0 3190.77827694 0 139.37178142 0 1350.12607141 0 27345
0.15850000 0.15849900 9519.88522815 0 99.78755586 0 3045.49830299 0 -156.19507175 0 1052.16095268 0 26980
0.15950000 0.15949700 9441.27172194 0 80.61903641 0 3175.58704729 0 -208.10545220 0 1082.30646423 0 27777
0.16050000 0.16050000 9424.41964356 0 197.55352665 0 3096.95139643 0 -347.43183709 0 682.59885998 0 28224
0.16150000 0.16150500 9255.58883473 0 125.32100123 0 3238.65500945 0 69.79572817 0 710.52104870 0 28075
0.16250000 0.16249700 9098.14037581 0 104.37769883 0 3032.62118923 0 -26.79247943 0 343.19999454 0 28590
0.16350000 0.16349900 9027.56537741 0 196.60684287 0 2828.37001330 0 198.65411573 0 250.98524452 0 29163
0.16450000 0.16449100 8912.76751369 0 150.54043547 0 2687.49682463 0 364.19201517 0 163.15734960 0 28996
0.16550000 0.16550500 8682.16420469 0 143.26481083 0 2521.61125420 0 133.18124462 0 376.11137283 0 30777
0.16650000 0.16650700 8636.46872017 0 120.65623078 0 2592.52949466 0 333.70658324 0 220.47877518 0 29211
0.16750000 0.16749900 8464.61516666 0 37.83601620 0 2331.55479869 0 271.30406780 0 270.45924942 0 30922
0.16850000 0.16850800 8538.78867062 0 12.18741865 0 2420.07803561 0 104.25324590 0 370.56524533 0 30867
0.16950000 0.16949900 8533.87255840 0 18.08354234 0 2390.79173647 0 89.71207244 0 190.64771766 0 30852
0.17050000 0.17049200 8541.98857249 0 117.97119201 0 2410.46725767 0 -116.00585436 0 351.77218842 0 31257
0.17150000 0.17149500 8424.13474712 0 269.66979266 0 2509.81922827 0 -152.37511969 0 560.34378549 0 32608
0.17250000 0.17250900 8189.32395469 0 134.77012323 0 2316.25284579 0 58.79581636 0 344.82430459 0 32361
0.17350000 0.17350400 8097.29079080 0 92.63217667 0 2332.01983633 0 332.05680685 0 362.07498666 0 32508
0.17450000 0.17449800 8062.00329160 0 30.51444141 0 1956.03690246 0 356.12914823 0 256.60777107 0 32791
0.17550000 0.17549800 7960.27077117 0 51.00577151 0 2006.75922246 0 462.10015461 0 379.80842209 0 33633
0.17650000 0.17650100 7931.29449712 0 14.11378172 0 1573.75381577 0 311.88635272 0 315.63433468 0 33984
0.17750000 0.17750300 8007.73782767 0 -42.98664026 0 1656.06547848 0 32.00377983 0 262.66211828 0 34069
0.17850000 0.17849800 8038.59639694 0 133.77693569 0 1801.09078895 0 -251.34841678 0 421.94747589 0 34536
