### header ###
fiducial parameters:
Omega_m = 0.31
Omega_nu = 0
Omega_de = 0.69
Omega_k = 0
H_0 = 100
w_de = -1
zeff = 0
beta = 0
fgrowth = 0
b_1 = 2
gamma = 0.55
Lx = 3500 Ly = 3500 Lz = 3500
nx = 700 ny = 700 nz = 700
xoffset = -685.467585 yoffset = -31.7331281 zoffset = 572.489161
bins = 400 dk = 0.001
kx_ny = 0.628318531 ky_ny = 0.628318531 kz_ny = 0.628318531
############################
A(data) = 7.99201663 (not used)
A(ran) = 7.99119605 (used)
Ngal = 475101
weighted Ngal = 0
Nran = 23820508
weighted Nran = 0
SN(data) = 3486.74789
SN(ran) = 69.6062157
SN(data+ran) = 3556.35411
############################
13 columns: k_central k_mean P_0(k) sigma^{lin}_{P_0(k)} P^img_1(k) sigma^{lin}_{P_1(k)} P_2(k) sigma^{lin}_{P_2(k)} P^img_3(k) sigma^{lin}_{P_3(k)} P_4(k) sigma^{lin}_{P_4(k)} N_modes
### header ###
0.00050000 0 0 0 0 0 0 0 0 0 0 0 0
0.00150000 0.00179520 7119.28341189 0 -7203.12305542 0 -47.58032638 0 -590.02093770 0 -12412.29756820 0 3
0.00250000 0.00253879 17264.96536647 0 -9997.54532083 0 5693.07939665 0 -9993.02781230 0 3814.41590002 0 6
0.00350000 0.00331552 20725.62048853 0 -3670.51996668 0 3520.00278310 0 -2643.67256300 0 32094.35144258 0 7
0.00450000 0.00420575 26497.95558624 0 -777.77767135 0 6660.37983746 0 2722.82861313 0 17909.81756390 0 24
0.00550000 0.00557378 34535.35617210 0 -18709.23941581 0 4736.04300095 0 21025.45904462 0 2441.41440554 0 45
0.00650000 0.00659388 50975.65478607 0 -22018.42513436 0 -12391.92449053 0 37157.06124265 0 11470.81778887 0 40
0.00750000 0.00754703 65998.36365351 0 -9404.82162863 0 -7000.37771567 0 17777.39255907 0 -17652.27528862 0 57
0.00850000 0.00846663 73946.41057808 0 -2816.36761320 0 -19077.06204629 0 -11249.48201574 0 -1611.74296223 0 75
0.00950000 0.00948925 68882.15065253 0 5098.68378341 0 -10248.24489937 0 -25616.37708418 0 -7952.33191427 0 112
0.01050000 0.01054430 69705.93161904 0 -2068.24384217 0 -11205.30343972 0 -23002.64408749 0 2216.03723385 0 105
0.01150000 0.01145670 73406.74546642 0 -13709.97403694 0 -136.20620376 0 -94.62752032 0 -3989.05967939 0 144
0.01250000 0.01249090 84068.61920404 0 -10116.01919638 0 -3900.79110593 0 -1013.53293309 0 -17412.89162604 0 169
0.01350000 0.01339930 90309.42436482 0 -8344.70188887 0 -10991.43041352 0 15491.17893052 0 -25925.95928611 0 180
0.01450000 0.01448870 88127.29058956 0 -3980.72221880 0 -11532.26919161 0 -1210.89158682 0 -13928.32028237 0 267
0.01550000 0.01550050 89629.80506745 0 8525.97799080 0 -21126.99226321 0 -3496.73982865 0 -4079.67558570 0 238
0.01650000 0.01653350 82788.10483876 0 -436.14219630 0 -15383.00231704 0 -1896.21313147 0 1368.94902360 0 315
0.01750000 0.01747870 85636.01750537 0 2051.60213797 0 -17801.30878068 0 -14775.46385424 0 -5972.32342858 0 297
0.01850000 0.01844180 78533.23185745 0 13481.33052944 0 -1373.68797863 0 -23848.23753389 0 4418.06797681 0 388
0.01950000 0.01947590 77028.06002161 0 8962.81442187 0 4791.49320365 0 -17331.62076188 0 25595.22894378 0 399
0.02050000 0.02045430 66133.33529305 0 5452.59957392 0 9915.62118949 0 -1956.39121686 0 24907.74829579 0 462
0.02150000 0.02154770 67932.92024583 0 1132.57703337 0 18220.83916806 0 6579.97261463 0 16275.98531367 0 571
0.02250000 0.02255340 68460.40580019 0 -792.08754395 0 23877.91136440 0 8192.91138793 0 -2236.27744362 0 510
0.02350000 0.02348930 67519.81180684 0 477.43311002 0 16917.84798340 0 4196.30038302 0 14053.65899932 0 555
0.02450000 0.02439640 70410.90654024 0 -308.24466509 0 22667.04192224 0 -1479.88264596 0 13710.74909968 0 592
0.02550000 0.02547300 70316.12743979 0 -5026.08254958 0 24625.07184317 0 901.89732534 0 3665.73672236 0 837
0.02650000 0.02652900 73669.71318086 0 -3.53415321 0 28896.55331170 0 -3544.32868072 0 -7125.91573446 0 723
0.02750000 0.02749970 73202.23962702 0 2133.39340141 0 28617.64144952 0 -5554.34316668 0 -8325.82357506 0 826
0.02850000 0.02848090 69360.80725444 0 4954.11243826 0 23033.20370399 0 6269.77036251 0 -8710.95224922 0 831
0.02950000 0.02946900 63185.21808684 0 4198.74736680 0 25200.72201049 0 -280.00027171 0 -11689.60692729 0 996
0.03050000 0.03053250 63845.46081577 0 3382.60630442 0 22631.72120606 0 1214.50116471 0 -7945.35634964 0 1041
0.03150000 0.03150510 59649.82477225 0 -567.44114570 0 25858.08593497 0 9504.87115569 0 -46.37156068 0 1036
0.03250000 0.03246190 60294.67696968 0 3027.19575007 0 22770.78960579 0 632.12788176 0 3115.86292722 0 1059
0.03350000 0.03345080 61729.65026618 0 811.10315459 0 28465.39698327 0 2964.91392296 0 13058.92133761 0 1302
0.03450000 0.03451200 57652.93099120 0 2567.68319777 0 25729.09335083 0 5326.99512117 0 15407.58287814 0 1339
0.03550000 0.03553350 58084.41948938 0 3290.79458703 0 29007.16583664 0 4447.81931360 0 24488.99297114 0 1365
0.03650000 0.03647120 53177.27585301 0 3993.87614068 0 26057.49850495 0 7308.97448069 0 17556.38895569 0 1308
0.03750000 0.03744890 52399.00214151 0 3149.85496441 0 29537.30874896 0 4113.46832105 0 20790.39358872 0 1579
0.03850000 0.03847530 45825.03072693 0 5673.35958615 0 25586.03891418 0 3789.06027619 0 14193.28101528 0 1662
0.03950000 0.03950240 41507.48838715 0 4853.83039237 0 24037.57428829 0 -2029.13639091 0 10295.67873889 0 1683
0.04050000 0.04050350 38389.41099497 0 1667.58069629 0 20616.44736582 0 1200.77148193 0 9077.13617563 0 1822
0.04150000 0.04152450 39478.48486413 0 -2506.59718174 0 18856.16916615 0 2065.94079861 0 6363.42008582 0 1887
0.04250000 0.04250150 41697.26803454 0 -5027.01262486 0 16417.04673186 0 2669.80324957 0 -1061.26018922 0 1920
0.04350000 0.04349210 45370.40106988 0 -1257.80502707 0 16184.86008041 0 2739.18243688 0 -2741.89515647 0 2005
0.04450000 0.04448520 44791.53992836 0 1886.83487235 0 12899.81202996 0 1150.31489773 0 -2953.79730884 0 2151
0.04550000 0.04548030 42489.16070557 0 3194.72002457 0 15404.81479693 0 -835.38808461 0 2195.94096431 0 2274
0.04650000 0.04648670 40227.85980786 0 2908.14611362 0 15718.71520554 0 2627.71734294 0 1064.33165212 0 2311
0.04750000 0.04749250 37850.52094605 0 1719.13344064 0 16320.93895243 0 2879.71238348 0 2855.86259582 0 2568
0.04850000 0.04851840 35809.33786573 0 568.29592918 0 12569.96747362 0 2726.58213124 0 2518.24526745 0 2493
0.04950000 0.04949480 37217.18396642 0 -1041.39533126 0 14510.83529108 0 1542.41913654 0 5250.34141645 0 2644
0.05050000 0.05050630 37290.03986373 0 5.34585129 0 11012.61177090 0 815.39257322 0 -1640.06596911 0 2829
0.05150000 0.05149060 36389.52768623 0 1066.63801738 0 10890.04113516 0 -657.73595460 0 4624.10179704 0 2784
0.05250000 0.05249300 35745.67199802 0 1059.89386433 0 10803.95380969 0 99.24301892 0 3930.57565970 0 3055
0.05350000 0.05348950 35911.20325406 0 328.58452578 0 12441.86067546 0 1149.31838850 0 6375.54428150 0 3009
0.05450000 0.05448610 35313.62988360 0 145.84687698 0 12273.11844523 0 2143.38063839 0 3261.36434766 0 3336
0.05550000 0.05550870 35592.65246903 0 305.19756130 0 11665.02636619 0 3179.07482960 0 6001.67616167 0 3349
0.05650000 0.05647670 35533.08336150 0 -528.60053747 0 10820.52907995 0 2565.61267303 0 6722.61737527 0 3324
0.05750000 0.05747970 35598.18863144 0 453.12603534 0 10912.49580989 0 -301.19491588 0 3596.56790922 0 3639
0.05850000 0.05849280 35797.93337117 0 1385.12569016 0 11524.40784099 0 -935.67013050 0 5622.11686689 0 3846
0.05950000 0.05951020 34083.38387300 0 1105.69564318 0 11205.19271647 0 -1263.88373340 0 5077.88995740 0 3787
0.06050000 0.06049470 33857.28700020 0 176.39209945 0 10278.02945313 0 867.00842983 0 5030.64434740 0 3930
0.06150000 0.06148310 33834.69945757 0 -127.79788029 0 12852.64392624 0 1551.16627314 0 2207.42296514 0 4083
0.06250000 0.06249100 33060.52250625 0 856.79199572 0 9661.74385373 0 1606.32859539 0 1922.99708520 0 4303
0.06350000 0.06350600 33187.96496491 0 966.48994663 0 10349.74490098 0 1188.02723607 0 2025.62646395 0 4470
0.06450000 0.06451750 31914.20471778 0 229.33109888 0 9820.35490675 0 219.40143798 0 2515.89793459 0 4479
0.06550000 0.06550280 32023.37784049 0 907.11571202 0 11216.70793428 0 -1430.22326915 0 513.42370184 0 4636
0.06650000 0.06648880 30953.68053976 0 842.16213294 0 11291.44612681 0 -1545.50831516 0 -63.45316835 0 4653
0.06750000 0.06749660 30201.09462184 0 1127.98201857 0 11929.98709910 0 -600.26394539 0 -675.73069689 0 5220
0.06850000 0.06852730 29481.61495512 0 -10.55613304 0 11218.47950625 0 20.83058613 0 -1053.69114797 0 5029
0.06950000 0.06949320 30598.70180607 0 -162.21066583 0 12258.06008348 0 2199.05228758 0 -1493.00335087 0 5040
0.07050000 0.07048030 29358.26925664 0 1443.67614380 0 11540.68415848 0 779.72307882 0 -657.13362013 0 5475
0.07150000 0.07148790 28768.11434381 0 350.27742457 0 10069.27184100 0 1959.02643016 0 -661.60130319 0 5509
0.07250000 0.07249820 28144.07811703 0 533.11693876 0 9244.52758223 0 1281.44444056 0 -1179.75620943 0 5916
0.07350000 0.07351270 27906.13385668 0 1032.33816956 0 10037.06244810 0 -310.37055146 0 -1039.56507597 0 5721
0.07450000 0.07449140 26459.20244937 0 554.21303924 0 9290.82097230 0 -325.44995063 0 248.19834037 0 6028
0.07550000 0.07549160 26454.66279620 0 233.49982917 0 9122.92023875 0 -326.70887396 0 264.88433387 0 6183
0.07650000 0.07648840 26600.70676056 0 -540.81109728 0 9351.01013001 0 175.81523133 0 -1147.01534494 0 6330
0.07750000 0.07749960 26793.36521240 0 295.05641900 0 8678.29996333 0 533.98722349 0 -2801.55284259 0 6583
0.07850000 0.07848650 26188.81627730 0 644.90645183 0 8429.81484975 0 -249.04537322 0 -3539.18004968 0 6549
0.07950000 0.07947320 25649.04044239 0 1199.02205461 0 8813.17195195 0 -1106.14296510 0 -3716.71370582 0 6828
0.08050000 0.08048110 24104.89402319 0 1314.65034269 0 7905.88351166 0 -203.59458707 0 -4423.29411413 0 7147
0.08150000 0.08149960 23473.21789228 0 908.34252561 0 8075.56688951 0 345.28712777 0 -5590.66039208 0 7386
0.08250000 0.08250610 22758.61004849 0 461.35387992 0 7905.70635446 0 -241.68338444 0 -6766.79595129 0 7227
0.08350000 0.08350160 22195.69305471 0 212.63956921 0 7895.01048869 0 1072.12103263 0 -5744.66535798 0 7798
0.08450000 0.08449610 22133.02369623 0 158.15708771 0 7151.27135829 0 672.93272041 0 -5372.54666548 0 7371
0.08550000 0.08548940 21635.65486538 0 431.72655317 0 6832.44376514 0 967.48313417 0 -4366.54844943 0 8256
0.08650000 0.08650700 21538.77202322 0 181.15098466 0 6491.70404117 0 1359.67041540 0 -4174.38825220 0 8037
0.08750000 0.08749060 21076.72390853 0 46.25452621 0 6354.30756250 0 1407.29248445 0 -2396.98116604 0 8155
0.08850000 0.08849210 21356.85372645 0 -123.37670099 0 7480.13047773 0 570.53143156 0 -2625.85719237 0 8718
0.08950000 0.08949900 21122.78477978 0 413.52032947 0 7177.12523675 0 -61.54452100 0 -1537.13763760 0 8571
0.09050000 0.09049190 21031.65954652 0 908.11554295 0 8016.81713402 0 -1069.55336051 0 -346.00904335 0 8932
0.09150000 0.09150830 20870.66794366 0 279.45994226 0 8377.70848916 0 -749.91859487 0 1163.21415615 0 9285
0.09250000 0.09250820 20302.43623397 0 232.83327522 0 8966.83367578 0 -127.72701741 0 1134.80257066 0 9204
0.09350000 0.09350330 20411.83080317 0 614.13092500 0 9250.38484206 0 440.43272217 0 -199.45796652 0 9349
0.09450000 0.09448040 19832.63749191 0 428.66505535 0 9097.02207100 0 461.94071313 0 -577.97646277 0 9564
0.09550000 0.09549270 19240.60028386 0 554.86630640 0 8987.11817485 0 590.21248892 0 -331.56851732 0 10155
0.09650000 0.09649430 18619.88575452 0 445.36101395 0 8103.88989639 0 1257.10747061 0 -437.24057093 0 9913
0.09750000 0.09749140 18421.91258677 0 321.75290137 0 6913.88071418 0 1068.69636257 0 -472.42509750 0 10476
0.09850000 0.09850240 18002.49292264 0 207.52747684 0 6881.13984969 0 396.11242039 0 -150.49393170 0 10575
0.09950000 0.09950330 17925.76171164 0 248.36996140 0 7017.26301101 0 689.01084328 0 250.97085050 0 10882
0.10050000 0.10051200 17528.04380416 0 277.27647981 0 6617.29742159 0 -234.77757545 0 229.20044544 0 10875
0.10150000 0.10150300 17548.85977482 0 408.64075592 0 6247.91359332 0 225.86103228 0 823.85847278 0 11118
0.10250000 0.10250800 17314.12648866 0 350.03051172 0 7337.64072964 0 195.00135578 0 700.10420552 0 11575
0.10350000 0.10349800 16935.56370311 0 388.97741427 0 7345.80103303 0 -118.50377084 0 1297.95327687 0 11364
0.10450000 0.10450100 16903.45396114 0 197.81815521 0 7042.70721345 0 377.39354805 0 85.18714546 0 12093
0.10550000 0.10551000 16502.52507946 0 104.23763392 0 7160.50567719 0 305.20641916 0 490.46745079 0 12067
0.10650000 0.10649700 16669.93863071 0 445.06759734 0 6841.96596449 0 365.53619540 0 75.57116352 0 12054
0.10750000 0.10749900 16445.17043689 0 -293.82849818 0 6760.55116009 0 545.81800256 0 -352.18407890 0 12807
0.10850000 0.10850100 16467.86870277 0 -188.23616531 0 6113.52878699 0 526.01625686 0 -600.55846923 0 12736
0.10950000 0.10950300 16476.72656263 0 568.64360018 0 6671.43001763 0 -118.04980552 0 554.67696965 0 12933
0.11050000 0.11050200 15975.81458783 0 886.42928756 0 6338.54057196 0 479.07735025 0 894.49990512 0 13428
0.11150000 0.11150900 15242.49451509 0 266.58172126 0 6321.97637403 0 736.16566022 0 1564.51949687 0 13453
0.11250000 0.11250000 15105.97275008 0 145.19582428 0 5897.88418882 0 1099.87824372 0 1747.89934052 0 13668
0.11350000 0.11349100 14985.06296306 0 81.31116743 0 5419.83656478 0 947.79211171 0 1292.93751372 0 13791
0.11450000 0.11448600 14742.35760303 0 130.37883920 0 5283.24836582 0 259.19980231 0 1606.58325886 0 14205
0.11550000 0.11549300 14664.96205255 0 180.16665498 0 4899.40408133 0 113.91650666 0 1241.16332287 0 14776
0.11650000 0.11649800 14347.29705351 0 77.39521831 0 4217.33780017 0 27.05622220 0 1326.69703210 0 14553
0.11750000 0.11747300 14553.90663462 0 12.59941986 0 4265.08166479 0 179.68390162 0 581.09664390 0 14568
0.11850000 0.11849100 14330.35639653 0 -161.14550818 0 3994.85050527 0 253.09452240 0 607.25944021 0 16015
0.11950000 0.11950300 14721.43090913 0 32.67133029 0 4049.56993452 0 456.60385257 0 694.19601299 0 15270
0.12050000 0.12050700 14395.24021997 0 336.55217072 0 3685.39009891 0 331.58512581 0 344.24965094 0 15999
0.12150000 0.12150000 14251.85361357 0 424.49411059 0 4142.88748809 0 217.87788608 0 1404.21437815 0 15670
0.12250000 0.12250700 13768.98952823 0 542.56052460 0 4450.96385385 0 -26.35080439 0 1831.93828589 0 16887
0.12350000 0.12352200 13411.35343659 0 432.01221915 0 4490.53634275 0 216.72082814 0 2208.00979836 0 16407
0.12450000 0.12449800 13194.00370040 0 27.77116222 0 4577.99663649 0 375.02739223 0 2363.97456576 0 16306
0.12550000 0.12549900 13259.33041683 0 -10.46282655 0 4753.34904464 0 423.71019000 0 2187.76958859 0 17523
0.12650000 0.12650100 13344.47659468 0 -155.87065263 0 4365.35263835 0 -224.42605898 0 1539.77285091 0 17154
0.12750000 0.12750600 13114.17223845 0 93.76609345 0 4496.92507417 0 -112.04196207 0 1766.32368902 0 18007
0.12850000 0.12850300 13381.90105257 0 137.52159595 0 4063.39926822 0 -153.75916029 0 1241.07474427 0 17496
0.12950000 0.12949900 13083.61262195 0 46.17569125 0 4161.16789637 0 -155.39786436 0 999.12119510 0 18405
0.13050000 0.13049000 13078.51935254 0 186.25754087 0 3997.37499533 0 323.41485733 0 416.92174765 0 18100
0.13150000 0.13148800 12664.74657406 0 484.62347775 0 3875.15867398 0 404.05238451 0 860.67948897 0 19059
0.13250000 0.13249300 12376.53395903 0 431.19840327 0 3628.78837444 0 522.05125734 0 904.76505746 0 18957
0.13350000 0.13349100 12223.40370679 0 38.88390102 0 3396.88960344 0 595.48402277 0 1564.44199060 0 19468
0.13450000 0.13450700 12022.10884159 0 75.07833434 0 3285.67917296 0 492.09840424 0 1249.01360117 0 19953
0.13550000 0.13551000 12088.54279050 0 142.69015717 0 3066.95646849 0 6.37255475 0 823.35468200 0 19956
0.13650000 0.13649900 11836.53667763 0 149.13203575 0 3400.18915623 0 -561.86623015 0 968.22276546 0 19723
0.13750000 0.13749600 11826.12869230 0 304.72809473 0 3269.94539939 0 -230.93880044 0 585.41152888 0 20946
0.13850000 0.13851100 11529.27966391 0 148.92166158 0 3652.33920933 0 -598.13916626 0 333.22936604 0 20955
0.13950000 0.13949800 11346.14341141 0 270.66298019 0 3489.39887730 0 -105.62067802 0 -86.65013174 0 20506
0.14050000 0.14048300 11334.96036334 0 321.10738483 0 3885.21234491 0 180.20540812 0 -451.41425393 0 21447
0.14150000 0.14148400 10742.00415233 0 292.61497138 0 3747.97087879 0 520.68161076 0 197.83365646 0 21771
0.14250000 0.14249400 10700.50507891 0 120.15686893 0 3496.91698585 0 851.50496062 0 220.02923880 0 22470
0.14350000 0.14350900 10635.15621783 0 111.46620118 0 3270.65402818 0 639.21749134 0 358.44326412 0 22519
0.14450000 0.14449900 10602.90253563 0 -3.27751887 0 3094.81443774 0 331.92172448 0 687.56369043 0 22218
0.14550000 0.14550500 10534.71915940 0 -65.18078319 0 2875.15058566 0 204.33643283 0 801.44698012 0 23559
0.14650000 0.14650700 10744.25183427 0 21.31854348 0 3086.31089227 0 -305.13112735 0 704.24082607 0 23044
0.14750000 0.14750500 10610.16598072 0 250.88005744 0 3286.22171687 0 -373.37872307 0 683.23330419 0 23649
0.14850000 0.14849900 10455.38595208 0 175.85952063 0 3377.70126453 0 -260.33582283 0 1065.50864025 0 23640
0.14950000 0.14949500 10436.15332387 0 96.95846614 0 3253.72444353 0 496.04015188 0 819.43840071 0 24457
0.15050000 0.15050000 10267.24500876 0 26.38202835 0 3264.85212997 0 243.31544512 0 695.25120555 0 24591
0.15150000 0.15149900 10203.54592408 0 156.36115662 0 3132.39390817 0 453.16257402 0 135.87514124 0 25020
0.15250000 0.15250500 10030.69586133 0 266.18643927 0 2754.63940233 0 112.17150827 0 479.13824804 0 25297
0.15350000 0.15350100 9768.22640151 0 267.84064460 0 2791.12271261 0 -264.27424877 0 797.05458886 0 25452
0.15450000 0.15450400 9636.59860406 0 140.13798630 0 2928.46382966 0 -367.75841099 0 573.58296428 0 26061
0.15550000 0.15549900 9577.00735189 0 107.61347504 0 3090.45194176 0 32.35012215 0 708.73508271 0 26128
0.15650000 0.15649500 9531.17899946 0 13.09966749 0 2936.51340980 0 -216.82269353 0 139.56776157 0 26331
0.15750000 0.15749700 9473.69148901 0 117.42754086 0 3022.60073527 0 211.49358359 0 473.41939227 0 27345
0.15850000 0.15849900 9403.31579246 0 328.73068047 0 3200.17868071 0 96.08275597 0 121.08472975 0 26980
0.15950000 0.15949700 9139.65052155 0 219.15563237 0 2872.68145722 0 389.51995819 0 720.66219101 0 27777
0.16050000 0.16050000 8873.09537387 0 133.12256129 0 2598.60820099 0 411.26157520 0 374.72511777 0 28224
0.16150000 0.16150500 8893.72311500 0 -64.53703822 0 2651.88822801 0 448.24978349 0 475.19871487 0 28075
0.16250000 0.16249700 8859.78643944 0 32.29487125 0 2366.10045212 0 334.75845410 0 389.76465657 0 28590
0.16350000 0.16349900 8725.97739400 0 189.53494901 0 2288.07377912 0 27.74901757 0 438.81726998 0 29163
0.16450000 0.16449100 8631.70762050 0 136.53837350 0 2075.88374630 0 47.30130380 0 705.35138025 0 28996
0.16550000 0.16550500 8562.62738595 0 41.57159715 0 2146.07121332 0 156.90148608 0 448.01505021 0 30777
0.16650000 0.16650700 8568.87217715 0 -139.00971640 0 1834.70636710 0 138.41070363 0 142.64697510 0 29211
0.16750000 0.16749900 8574.98410045 0 27.56687782 0 1928.79898341 0 21.48451763 0 -211.00307960 0 30922
0.16850000 0.16850800 8547.92333859 0 203.24027267 0 1778.33716145 0 -59.81114854 0 77.26855092 0 30867
0.16950000 0.16949900 8415.42082749 0 224.65525611 0 1826.47962976 0 -158.05300786 0 -212.05495046 0 30852
0.17050000 0.17049200 8306.32521105 0 151.28671016 0 1895.53771965 0 -35.66196522 0 -101.45394074 0 31257
0.17150000 0.17149500 8266.77486680 0 116.49303665 0 1875.90648775 0 119.72615550 0 -2.81917998 0 32608
0.17250000 0.17250900 8113.31244481 0 98.68740966 0 2012.93757971 0 -137.62567580 0 173.22098563 0 32361
0.17350000 0.17350400 8123.07823530 0 123.29698025 0 2080.68913527 0 24.72007239 0 209.16175199 0 32508
0.17450000 0.17449800 8036.92447589 0 135.34256242 0 2401.54296387 0 60.10700106 0 490.06663264 0 32791
0.17550000 0.17549800 7894.03612410 0 110.13862944 0 2303.48645527 0 55.74029760 0 600.62933211 0 33633
0.17650000 0.17650100 7892.29776911 0 132.65309472 0 2345.83809770 0 159.14363185 0 530.06762051 0 33984
0.17750000 0.17750300 7762.13151854 0 85.47690820 0 2393.78126417 0 142.11550351 0 626.90285167 0 34069
0.17850000 0.17849800 7650.19031462 0 202.48846182 0 2503.13154408 0 128.92836465 0 771.17856576 0 34536
