### header ###
fiducial parameters:
Omega_m = 0.31
Omega_nu = 0
Omega_de = 0.69
Omega_k = 0
H_0 = 100
w_de = -1
zeff = 0
beta = 0
fgrowth = 0
b_1 = 2
gamma = 0.55
Lx = 3500 Ly = 3500 Lz = 3500
nx = 700 ny = 700 nz = 700
xoffset = -685.467585 yoffset = -31.7331281 zoffset = 572.489161
bins = 400 dk = 0.001
kx_ny = 0.628318531 ky_ny = 0.628318531 kz_ny = 0.628318531
############################
A(data) = 8.03033579 (not used)
A(ran) = 8.02546969 (used)
Ngal = 477255
weighted Ngal = 0
Nran = 23820508
weighted Nran = 0
SN(data) = 3492.34532
SN(ran) = 69.9047516
SN(data+ran) = 3562.25007
############################
13 columns: k_central k_mean P_0(k) sigma^{lin}_{P_0(k)} P^img_1(k) sigma^{lin}_{P_1(k)} P_2(k) sigma^{lin}_{P_2(k)} P^img_3(k) sigma^{lin}_{P_3(k)} P_4(k) sigma^{lin}_{P_4(k)} N_modes
### header ###
0.00050000 0 0 0 0 0 0 0 0 0 0 0 0
0.00150000 0.00179520 2457.61321675 0 -6411.04215487 0 6696.96279866 0 13869.30479108 0 -725.02357975 0 3
0.00250000 0.00253879 15891.55419596 0 -23727.88136311 0 6355.73589240 0 -18721.75114286 0 -13353.99879402 0 6
0.00350000 0.00331552 26668.69083494 0 -18832.36366779 0 -468.04599304 0 29177.23674586 0 -17925.31881865 0 7
0.00450000 0.00420575 50632.63416319 0 -16822.62598996 0 18622.54311248 0 -946.04157715 0 -15622.93959586 0 24
0.00550000 0.00557378 59922.64685578 0 3435.88633145 0 28391.10168373 0 -2583.42804366 0 -11630.14854301 0 45
0.00650000 0.00659388 68282.69498685 0 20415.26322387 0 45421.00159430 0 -3735.82453846 0 27087.99977583 0 40
0.00750000 0.00754703 56667.49408234 0 6128.05567715 0 26661.49382381 0 22092.27754090 0 -5330.36110792 0 57
0.00850000 0.00846663 54823.84127679 0 2525.32048301 0 39848.18978983 0 25769.95022941 0 15894.32227717 0 75
0.00950000 0.00948925 58282.06048740 0 -7529.30267225 0 15829.88134672 0 39097.04327413 0 -12174.68547759 0 112
0.01050000 0.01054430 71170.24657630 0 -10414.25226537 0 5541.05637689 0 23563.90023255 0 -24564.39550316 0 105
0.01150000 0.01145670 76516.18644524 0 -7743.18677077 0 2516.75050360 0 -3251.24424277 0 -20642.02443615 0 144
0.01250000 0.01249090 70286.78577902 0 11583.42333228 0 10484.52831100 0 -20591.31318848 0 -19827.54422249 0 169
0.01350000 0.01339930 62717.52308650 0 15263.86410199 0 6989.40504177 0 -20897.13079998 0 -10402.59310734 0 180
0.01450000 0.01448870 59021.91323178 0 4456.28964209 0 9864.31203628 0 -4276.74082283 0 -13015.07493133 0 267
0.01550000 0.01550050 58388.35480566 0 -5453.78431267 0 20034.48597336 0 12019.11931389 0 -1416.98076867 0 238
0.01650000 0.01653350 67999.35419474 0 -11022.39970604 0 18459.22632141 0 19033.21564000 0 -34099.54946723 0 315
0.01750000 0.01747870 71711.01892044 0 -9547.98678854 0 9223.99949202 0 13113.50789896 0 -30530.71773169 0 297
0.01850000 0.01844180 78387.07716985 0 -2256.81660616 0 11844.28730500 0 6369.07804381 0 -23864.29240488 0 388
0.01950000 0.01947590 78934.82507863 0 7019.46640365 0 9777.91468572 0 -5396.85041845 0 -12451.82576780 0 399
0.02050000 0.02045430 78199.62271067 0 4300.22522377 0 7273.79770474 0 -12651.57050753 0 -8137.00721992 0 462
0.02150000 0.02154770 72350.22423223 0 3316.27200643 0 13303.50899285 0 -10427.00758357 0 -11487.42627610 0 571
0.02250000 0.02255340 75604.71266617 0 192.08822712 0 17384.10358152 0 -12038.71732882 0 -23017.37027950 0 510
0.02350000 0.02348930 71461.00582604 0 2003.38216339 0 18371.86567859 0 -8100.41318640 0 -30150.49409741 0 555
0.02450000 0.02439640 69928.59607114 0 3010.13329752 0 25557.80448589 0 -6301.75830891 0 -23929.84056780 0 592
0.02550000 0.02547300 67893.61349272 0 3653.03676579 0 30375.26229123 0 -1202.58734320 0 -27624.67535979 0 837
0.02650000 0.02652900 63393.70996317 0 5106.20189197 0 22608.13715420 0 9864.77707392 0 -13970.17367018 0 723
0.02750000 0.02749970 57557.93044426 0 -547.83095121 0 24492.75756158 0 11190.90941745 0 -18439.62830648 0 826
0.02850000 0.02848090 62392.77179957 0 1863.70478580 0 22606.69775197 0 7024.18321403 0 -9558.74908826 0 831
0.02950000 0.02946900 57714.71456369 0 3214.58377530 0 23511.52813615 0 2405.61757940 0 -13292.99028427 0 996
0.03050000 0.03053250 59155.99908533 0 2831.78028934 0 24463.41590081 0 -4820.29232050 0 -1957.19949657 0 1041
0.03150000 0.03150510 54708.79982192 0 1217.34675219 0 28432.06928556 0 -5054.59378599 0 5107.81845139 0 1036
0.03250000 0.03246190 55997.61843081 0 2223.18995569 0 30126.35642931 0 682.35637606 0 -532.45702820 0 1059
0.03350000 0.03345080 54987.60096086 0 588.07442300 0 32015.84865961 0 8414.02571456 0 5799.79446326 0 1302
0.03450000 0.03451200 54572.49950341 0 1897.16535140 0 27474.64535849 0 7445.39659478 0 -1308.69343194 0 1339
0.03550000 0.03553350 51230.31825690 0 3688.11389082 0 28733.79013687 0 8157.23635737 0 6411.09751649 0 1365
0.03650000 0.03647120 47660.26856562 0 4405.83305789 0 23846.79813166 0 5149.58326060 0 5643.16535637 0 1308
0.03750000 0.03744890 45318.69331297 0 2842.96333741 0 21249.89506870 0 6987.48952958 0 11873.96113552 0 1579
0.03850000 0.03847530 41980.83027315 0 483.57271413 0 18097.71491608 0 5907.26244794 0 14395.12949672 0 1662
0.03950000 0.03950240 43254.25835054 0 -1653.96173676 0 16116.87600602 0 4930.16299967 0 9904.52672002 0 1683
0.04050000 0.04050350 44651.58574265 0 -1330.98202180 0 15609.87425258 0 4581.00830884 0 5648.46899996 0 1822
0.04150000 0.04152450 44175.58649870 0 -170.59130848 0 14457.68813195 0 -553.32946772 0 3858.46160815 0 1887
0.04250000 0.04250150 45226.90374023 0 376.69709882 0 13389.98384969 0 -971.89988454 0 6884.48369179 0 1920
0.04350000 0.04349210 44668.52639962 0 -688.41625944 0 14198.15283820 0 281.83495593 0 3590.81030031 0 2005
0.04450000 0.04448520 45048.08569441 0 1266.92862272 0 17046.84056754 0 3425.20153800 0 3773.60331074 0 2151
0.04550000 0.04548030 44486.38665636 0 1256.23275695 0 15260.09951155 0 -395.85997138 0 2813.55524269 0 2274
0.04650000 0.04648670 42166.95605335 0 2804.05518800 0 15418.21230996 0 1262.17859538 0 3169.59691956 0 2311
0.04750000 0.04749250 41025.84225754 0 1356.02762054 0 16008.14577630 0 231.60535439 0 8453.91930088 0 2568
0.04850000 0.04851840 39863.24815158 0 1799.14205978 0 18956.48442901 0 -511.97544175 0 7746.17629848 0 2493
0.04950000 0.04949480 39678.11888061 0 1294.76444732 0 18372.30857158 0 2659.79386794 0 10308.06867036 0 2644
0.05050000 0.05050630 38285.99548116 0 -298.38918877 0 18298.45616504 0 3256.54788636 0 7942.98687213 0 2829
0.05150000 0.05149060 39229.35755571 0 -254.43759540 0 16126.50892861 0 2534.82053771 0 9665.19841907 0 2784
0.05250000 0.05249300 38930.07261586 0 -1284.29002804 0 15870.73822530 0 1233.08052575 0 5743.86815060 0 3055
0.05350000 0.05348950 38827.43216480 0 886.33849450 0 16503.74303519 0 -565.65628694 0 1222.70575740 0 3009
0.05450000 0.05448610 39144.87571735 0 2492.42460598 0 16680.01444630 0 -4604.38198653 0 -255.35216943 0 3336
0.05550000 0.05550870 35795.27601321 0 2340.82233456 0 16983.28542308 0 -2769.42095596 0 10.36573334 0 3349
0.05650000 0.05647670 35703.81861021 0 483.61811066 0 18611.69223416 0 -1046.08335359 0 1437.56422050 0 3324
0.05750000 0.05747970 35276.64831870 0 -553.79782706 0 17671.31968731 0 5017.47935319 0 -673.70224699 0 3639
0.05850000 0.05849280 35351.94012747 0 -457.85170358 0 15410.12951285 0 6201.76414347 0 -1906.33323635 0 3846
0.05950000 0.05951020 35558.10681559 0 -459.48154979 0 13661.36653099 0 4284.07070186 0 -1368.05216529 0 3787
0.06050000 0.06049470 35154.74202245 0 1749.99200991 0 11480.78288121 0 2881.67218498 0 -413.87021493 0 3930
0.06150000 0.06148310 32678.30585351 0 1638.27225249 0 10544.58460082 0 876.11430976 0 3993.35574142 0 4083
0.06250000 0.06249100 32347.68623443 0 832.86027286 0 11120.71087810 0 315.76055918 0 3808.94617156 0 4303
0.06350000 0.06350600 32010.42322045 0 -104.72990949 0 9232.27051866 0 261.12306513 0 4311.19789766 0 4470
0.06450000 0.06451750 31565.75865573 0 -288.87806175 0 10719.01800601 0 787.02416981 0 1194.08379774 0 4479
0.06550000 0.06550280 32749.94379509 0 -644.70936445 0 8129.97629366 0 286.20077361 0 -378.58714466 0 4636
0.06650000 0.06648880 32808.40567013 0 101.37942400 0 10943.44295776 0 -2116.31987654 0 -244.32745561 0 4653
0.06750000 0.06749660 32701.88990538 0 305.92944197 0 10705.91944575 0 -2932.38343265 0 -2752.70174549 0 5220
0.06850000 0.06852730 32975.48705164 0 856.78092340 0 12901.25143219 0 -2748.80428715 0 -2265.13192210 0 5029
0.06950000 0.06949320 31355.38448418 0 1944.34452745 0 13828.89080550 0 753.55031742 0 -1171.45196581 0 5040
0.07050000 0.07048030 30318.35054167 0 1410.25986750 0 11757.14810868 0 2541.20926913 0 -2955.98962916 0 5475
0.07150000 0.07148790 29355.16900569 0 610.53906282 0 10999.56857226 0 2980.62555188 0 -704.84648224 0 5509
0.07250000 0.07249820 28318.13506318 0 454.91753750 0 9752.52584491 0 3554.52629188 0 -1571.22932571 0 5916
0.07350000 0.07351270 28693.92976752 0 519.90876249 0 10647.03682236 0 1734.11429612 0 557.48491122 0 5721
0.07450000 0.07449140 27144.35790915 0 417.18305452 0 8528.51355319 0 309.44379787 0 847.35394605 0 6028
0.07550000 0.07549160 27173.58884667 0 586.16887590 0 9353.46818612 0 -149.96246011 0 453.68740221 0 6183
0.07650000 0.07648840 26828.02158908 0 201.69900506 0 7926.94307346 0 531.91669875 0 468.62396839 0 6330
0.07750000 0.07749960 27107.15489776 0 -254.90706197 0 8456.42164629 0 94.84420572 0 -839.95098967 0 6583
0.07850000 0.07848650 26601.59254654 0 921.46655222 0 8985.51268775 0 -316.93754731 0 -697.49113686 0 6549
0.07950000 0.07947320 26536.93016960 0 976.80492443 0 8223.27170259 0 -653.22176777 0 -1209.79542666 0 6828
0.08050000 0.08048110 24708.55717230 0 826.06961605 0 8417.80137732 0 0.73273103 0 1346.09574518 0 7147
0.08150000 0.08149960 24691.83796182 0 577.25897612 0 8624.28916287 0 359.58371358 0 285.52646903 0 7386
0.08250000 0.08250610 23511.08524316 0 565.34958354 0 8858.81207485 0 1553.07071301 0 106.52440117 0 7227
0.08350000 0.08350160 23195.52398583 0 599.92070332 0 8224.27928414 0 1717.81583399 0 289.56233142 0 7798
0.08450000 0.08449610 22527.41990627 0 488.25187860 0 6984.32284468 0 1067.77182344 0 142.10664565 0 7371
0.08550000 0.08548940 22431.42285010 0 534.74457051 0 6496.33227295 0 1236.04790880 0 851.28683582 0 8256
0.08650000 0.08650700 21850.90085985 0 200.09130350 0 5635.52545225 0 504.41858007 0 585.89206778 0 8037
0.08750000 0.08749060 21287.54097308 0 148.95155686 0 5487.04557643 0 381.71175473 0 1136.13124964 0 8155
0.08850000 0.08849210 21495.58995642 0 727.24468811 0 5253.27558253 0 482.20196032 0 32.13886219 0 8718
0.08950000 0.08949900 20424.12108372 0 794.15474699 0 5656.44107383 0 521.61832944 0 573.45673977 0 8571
0.09050000 0.09049190 19785.35866494 0 630.73166160 0 5244.37343338 0 -65.74358946 0 939.19666595 0 8932
0.09150000 0.09150830 19298.61926591 0 572.35172176 0 5343.78076560 0 211.27767326 0 917.92008658 0 9285
0.09250000 0.09250820 18776.33770421 0 365.65134758 0 5587.41620091 0 515.39900459 0 1167.07839751 0 9204
0.09350000 0.09350330 18935.88990485 0 -416.19761761 0 5448.41423514 0 -46.96968767 0 1027.72433181 0 9349
0.09450000 0.09448040 19022.36476168 0 -89.34402836 0 5544.73238873 0 576.70757434 0 627.08333057 0 9564
0.09550000 0.09549270 19068.42563293 0 330.67276624 0 5094.64238485 0 -195.03125105 0 671.67490431 0 10155
0.09650000 0.09649430 19082.37676220 0 517.36766394 0 5641.03947001 0 -419.88470177 0 868.29835567 0 9913
0.09750000 0.09749140 18581.79695715 0 147.35271315 0 5514.49386965 0 -568.53066246 0 1672.80683360 0 10476
0.09850000 0.09850240 18630.40446310 0 62.31371540 0 6180.31705030 0 9.42104258 0 1561.30852268 0 10575
0.09950000 0.09950330 18812.32275987 0 -70.98877117 0 6450.07209985 0 -144.96662715 0 795.32841342 0 10882
0.10050000 0.10051200 18497.86873502 0 686.64247300 0 7155.50098638 0 -7.74237849 0 711.07798664 0 10875
0.10150000 0.10150300 17981.67695198 0 771.97245145 0 7592.22669420 0 -403.11234414 0 1071.46222931 0 11118
0.10250000 0.10250800 17484.97246061 0 574.01699941 0 7094.20459618 0 309.50248119 0 1386.76439424 0 11575
0.10350000 0.10349800 16563.31214271 0 389.22875605 0 6472.46034064 0 948.15085503 0 1632.57000521 0 11364
0.10450000 0.10450100 16571.94855607 0 -80.62722993 0 6311.30265290 0 1377.29755652 0 -24.15948058 0 12093
0.10550000 0.10551000 16672.59598867 0 -69.41317935 0 5710.11970455 0 660.63468923 0 23.30048963 0 12067
0.10650000 0.10649700 16431.99437036 0 107.95472409 0 4982.63474699 0 13.99807593 0 -997.98628181 0 12054
0.10750000 0.10749900 16459.67518241 0 225.06825382 0 5197.60393334 0 -597.32977932 0 -426.07745304 0 12807
0.10850000 0.10850100 16380.39733671 0 78.31455344 0 5051.99178965 0 -142.31591259 0 -532.76926776 0 12736
0.10950000 0.10950300 16458.12505693 0 84.23913301 0 5372.86776290 0 30.33351963 0 -263.33199393 0 12933
0.11050000 0.11050200 16049.33482463 0 371.63593914 0 5179.19065717 0 521.08132169 0 324.75017970 0 13428
0.11150000 0.11150900 15997.51634448 0 535.19078520 0 5243.00046510 0 991.34288692 0 702.48918428 0 13453
0.11250000 0.11250000 15461.94799300 0 144.26464176 0 4896.54742152 0 1155.60746900 0 1363.35749957 0 13668
0.11350000 0.11349100 15199.20172505 0 267.08551204 0 4342.31113040 0 1225.89458695 0 1337.26002997 0 13791
0.11450000 0.11448600 15104.75479435 0 94.38016458 0 4351.25756886 0 330.66058669 0 1458.34697419 0 14205
0.11550000 0.11549300 14753.98354409 0 486.64196257 0 3999.46766472 0 73.13425555 0 1370.80917417 0 14776
0.11650000 0.11649800 14513.60337228 0 322.65418861 0 3967.29148879 0 -476.33141370 0 1830.64282389 0 14553
0.11750000 0.11747300 14068.27446808 0 543.28686911 0 3700.28237579 0 144.56359453 0 2091.49572429 0 14568
0.11850000 0.11849100 14009.36970004 0 -82.37754303 0 3918.60647657 0 294.57366564 0 1548.92966353 0 16015
0.11950000 0.11950300 14013.79862997 0 17.70010773 0 3609.42287833 0 704.31943957 0 1374.92807901 0 15270
0.12050000 0.12050700 13866.75815638 0 187.57404029 0 3367.26006222 0 412.06210429 0 1268.22408473 0 15999
0.12150000 0.12150000 13686.16853858 0 259.37031611 0 3505.64197781 0 -20.16071048 0 1559.10513004 0 15670
0.12250000 0.12250700 13657.15904756 0 157.39531176 0 3302.01085207 0 -351.87516104 0 1127.25124514 0 16887
0.12350000 0.12352200 13517.20486185 0 16.27521025 0 4132.36877952 0 -396.37815618 0 1181.05167143 0 16407
0.12450000 0.12449800 13410.68909710 0 280.13535407 0 4105.34123463 0 -387.90339877 0 943.05204945 0 16306
0.12550000 0.12549900 13174.73785521 0 444.40436508 0 4198.17160591 0 -523.98227079 0 329.85784314 0 17523
0.12650000 0.12650100 12977.20758045 0 -9.27205338 0 4084.62491490 0 -279.19309923 0 -249.42847565 0 17154
0.12750000 0.12750600 13006.54924122 0 93.48219904 0 4406.97350734 0 -185.52123127 0 -344.55524710 0 18007
0.12850000 0.12850300 13092.91337480 0 78.46845876 0 4154.39163358 0 -30.86809147 0 -938.18022653 0 17496
0.12950000 0.12949900 12715.12565199 0 134.53538994 0 4120.53246428 0 264.63963549 0 -662.71075014 0 18405
0.13050000 0.13049000 12738.04536436 0 145.38737550 0 3950.49477204 0 183.14621759 0 -442.56635916 0 18100
0.13150000 0.13148800 12577.05376150 0 139.75931279 0 4066.07877083 0 345.83077892 0 -733.39979348 0 19059
0.13250000 0.13249300 12485.37491200 0 228.87713356 0 4133.01097436 0 517.28129981 0 -621.36779650 0 18957
0.13350000 0.13349100 12140.80416365 0 357.20094928 0 3924.58553197 0 258.52439049 0 175.09110129 0 19468
0.13450000 0.13450700 11898.98458961 0 352.73215898 0 3491.08187067 0 576.01666127 0 555.81741911 0 19953
0.13550000 0.13551000 11666.46576841 0 115.27286645 0 3854.68594539 0 298.49216139 0 439.36424283 0 19956
0.13650000 0.13649900 11599.81037301 0 182.85058652 0 3685.10221847 0 309.55119942 0 377.84529890 0 19723
0.13750000 0.13749600 11490.41580380 0 297.82228574 0 3528.35131601 0 -52.20213621 0 595.47516491 0 20946
0.13850000 0.13851100 11282.80971345 0 29.81134879 0 3409.24631793 0 -39.83744963 0 608.33124126 0 20955
0.13950000 0.13949800 11143.63059048 0 -17.25533244 0 3462.96923796 0 -112.02535359 0 439.17269161 0 20506
0.14050000 0.14048300 11264.20820775 0 85.71119859 0 3371.30146078 0 251.74923494 0 -174.91283686 0 21447
0.14150000 0.14148400 10994.08777148 0 26.84263706 0 3020.84023562 0 132.30210203 0 -147.71145648 0 21771
0.14250000 0.14249400 11140.19816978 0 140.59859501 0 3124.01215828 0 75.75441050 0 -742.21114957 0 22470
0.14350000 0.14350900 11014.33905357 0 64.51378634 0 2859.98150066 0 -54.97608574 0 -387.06743824 0 22519
0.14450000 0.14449900 10895.46657432 0 186.29407954 0 3230.79365883 0 -42.09000340 0 -363.25972542 0 22218
0.14550000 0.14550500 10785.49624422 0 238.70160737 0 2850.23785482 0 -132.88561354 0 -346.66120328 0 23559
0.14650000 0.14650700 10683.91873633 0 123.83620247 0 3366.15282974 0 368.31534893 0 -350.20545446 0 23044
0.14750000 0.14750500 10388.80806294 0 365.59487872 0 3107.07150131 0 -266.98475389 0 -471.38540620 0 23649
0.14850000 0.14849900 10178.37852976 0 298.66046073 0 3302.35409414 0 222.81835742 0 -241.04008237 0 23640
0.14950000 0.14949500 9909.71964036 0 192.02400763 0 3014.16362376 0 223.42069189 0 436.91947351 0 24457
0.15050000 0.15050000 9942.85910855 0 12.00317517 0 2885.49213704 0 366.15070943 0 220.91834648 0 24591
0.15150000 0.15149900 9862.37437944 0 -19.50843982 0 2562.58992835 0 511.16051865 0 176.34005953 0 25020
0.15250000 0.15250500 9879.00501132 0 0.54606934 0 2629.69928908 0 111.75297439 0 393.40855867 0 25297
0.15350000 0.15350100 9795.15429547 0 72.02447644 0 2394.02485531 0 262.48053215 0 148.72346696 0 25452
0.15450000 0.15450400 9848.78863689 0 74.78879305 0 2647.81361248 0 84.94676529 0 159.85890403 0 26061
0.15550000 0.15549900 9674.52131657 0 119.71508317 0 2669.58180307 0 -79.94639267 0 387.59558814 0 26128
0.15650000 0.15649500 9741.79676216 0 106.13399100 0 2474.00025748 0 264.56323645 0 421.11040813 0 26331
0.15750000 0.15749700 9578.09243972 0 15.72214763 0 2494.41762444 0 -6.08902573 0 441.08709657 0 27345
0.15850000 0.15849900 9523.66089091 0 276.99967169 0 2526.41664317 0 68.23298025 0 389.28854660 0 26980
0.15950000 0.15949700 9283.22535747 0 389.21546926 0 2494.65014327 0 -90.52998508 0 399.28021252 0 27777
0.16050000 0.16050000 8937.48094269 0 227.95702337 0 2462.19715922 0 78.74980653 0 404.62260924 0 28224
0.16150000 0.16150500 8889.78136737 0 3.89868736 0 2528.89684393 0 37.18363482 0 558.07506614 0 28075
0.16250000 0.16249700 8896.85658293 0 65.76274458 0 2883.10051488 0 41.05230511 0 419.02770383 0 28590
0.16350000 0.16349900 8885.47423301 0 71.47584274 0 2819.02497115 0 -45.22258553 0 401.96746575 0 29163
0.16450000 0.16449100 8768.81621873 0 120.96293418 0 2988.44261320 0 -117.48290249 0 634.05225181 0 28996
0.16550000 0.16550500 8800.18411494 0 163.91358938 0 2955.59102547 0 -83.02759922 0 630.58218521 0 30777
0.16650000 0.16650700 8620.70172963 0 88.83447998 0 2961.82474434 0 6.79755487 0 712.49302976 0 29211
0.16750000 0.16749900 8563.70140146 0 141.16881974 0 3047.54668308 0 169.98343785 0 667.74976516 0 30922
0.16850000 0.16850800 8484.86644875 0 111.70868510 0 2680.02300538 0 192.01957870 0 374.53688825 0 30867
0.16950000 0.16949900 8353.49331478 0 14.20689997 0 2501.35997211 0 252.23088107 0 34.53967438 0 30852
0.17050000 0.17049200 8325.01529534 0 122.58724423 0 2360.14354137 0 109.06184585 0 38.85190200 0 31257
0.17150000 0.17149500 8274.71372369 0 62.28293434 0 2248.26877140 0 141.78444100 0 -34.89432094 0 32608
0.17250000 0.17250900 8203.58510906 0 -78.77150829 0 2103.12166535 0 47.66226158 0 -355.56999583 0 32361
0.17350000 0.17350400 8332.52233157 0 8.88644860 0 2177.70484533 0 -90.22261734 0 -415.18560712 0 32508
0.17450000 0.17449800 8218.53274756 0 157.96332203 0 2154.36438461 0 -381.81251288 0 -753.57024760 0 32791
0.17550000 0.17549800 8095.74066532 0 295.08963597 0 2497.08605473 0 -123.74873110 0 -387.53026142 0 33633
0.17650000 0.17650100 7961.97590919 0 196.02111689 0 2483.55567380 0 -43.53095575 0 -166.97287273 0 33984
0.17750000 0.17750300 7914.77458849 0 -43.10732860 0 2301.48236448 0 457.45420711 0 192.54440690 0 34069
0.17850000 0.17849800 7953.89311207 0 -193.30507561 0 2268.63077674 0 736.20552059 0 15.41477989 0 34536
