### header ###
fiducial parameters:
Omega_m = 0.31
Omega_nu = 0
Omega_de = 0.69
Omega_k = 0
H_0 = 100
w_de = -1
zeff = 0
beta = 0
fgrowth = 0
b_1 = 2
gamma = 0.55
Lx = 3500 Ly = 3500 Lz = 3500
nx = 700 ny = 700 nz = 700
xoffset = -685.467585 yoffset = -31.7331281 zoffset = 572.489161
bins = 400 dk = 0.001
kx_ny = 0.628318531 ky_ny = 0.628318531 kz_ny = 0.628318531
############################
A(data) = 7.98975252 (not used)
A(ran) = 7.98086355 (used)
Ngal = 474679
weighted Ngal = 0
Nran = 23820508
weighted Nran = 0
SN(data) = 3501.34541
SN(ran) = 69.5162159
SN(data+ran) = 3570.86162
############################
13 columns: k_central k_mean P_0(k) sigma^{lin}_{P_0(k)} P^img_1(k) sigma^{lin}_{P_1(k)} P_2(k) sigma^{lin}_{P_2(k)} P^img_3(k) sigma^{lin}_{P_3(k)} P_4(k) sigma^{lin}_{P_4(k)} N_modes
### header ###
0.00050000 0 0 0 0 0 0 0 0 0 0 0 0
0.00150000 0.00179520 43470.27940775 0 -55438.68747397 0 1534.38062872 0 76376.78587577 0 -51180.38207197 0 3
0.00250000 0.00253879 62615.32552842 0 -40067.86471423 0 32791.79718290 0 -38883.67957487 0 34846.37777625 0 6
0.00350000 0.00331552 79227.02373059 0 -6770.66019265 0 11378.80676963 0 850.50402246 0 -8368.06449424 0 7
0.00450000 0.00420575 71012.46594764 0 27021.56582691 0 32354.21890607 0 -19720.25339500 0 17065.77424298 0 24
0.00550000 0.00557378 49560.50095100 0 29984.40922514 0 23980.77326197 0 1650.30786957 0 2195.78595176 0 45
0.00650000 0.00659388 37736.14383067 0 -735.75709143 0 54719.87214674 0 16446.38839262 0 27108.48357674 0 40
0.00750000 0.00754703 47940.39838353 0 -5933.72530426 0 28125.69805783 0 30419.33014401 0 -3883.48506224 0 57
0.00850000 0.00846663 56778.43877703 0 -13002.67392753 0 49070.66130102 0 32008.09803224 0 -881.05810279 0 75
0.00950000 0.00948925 64714.63831404 0 -3785.21817948 0 28432.06928556 0 32339.82488381 0 -19556.38298769 0 112
0.01050000 0.01054430 67778.46131461 0 6974.76742836 0 28302.30163869 0 -11821.58903912 0 15484.31408913 0 105
0.01150000 0.01145670 63365.36481164 0 6782.28613371 0 38516.74273038 0 2644.72443386 0 -25263.05919922 0 144
0.01250000 0.01249090 55609.20127618 0 694.89024776 0 19270.16339112 0 6911.41158575 0 17912.58564511 0 169
0.01350000 0.01339930 64288.68597827 0 -13906.72924897 0 2665.14180082 0 13129.00915371 0 -16425.24025222 0 180
0.01450000 0.01448870 76313.12000807 0 -20660.40449535 0 3464.18719369 0 19603.66181466 0 -4757.46794948 0 267
0.01550000 0.01550050 98413.48034608 0 -11001.34014423 0 1633.36721260 0 4273.26411283 0 -14203.91044710 0 238
0.01650000 0.01653350 91747.49791227 0 2299.53363531 0 -4647.11008801 0 -864.59244856 0 1608.64271128 0 315
0.01750000 0.01747870 93997.94793166 0 16780.77260215 0 7564.68982237 0 -5357.54366535 0 10480.98516706 0 297
0.01850000 0.01844180 76536.55952291 0 17609.86828457 0 11171.42212577 0 714.89240254 0 27070.50550261 0 388
0.01950000 0.01947590 74540.21935811 0 697.31176520 0 24215.39582488 0 1208.95392997 0 27441.42838404 0 399
0.02050000 0.02045430 67098.17767775 0 -1364.87440807 0 30160.23774326 0 19542.76402816 0 18177.32493152 0 462
0.02150000 0.02154770 74679.17703458 0 2381.42454967 0 35406.96958182 0 4696.49265670 0 17024.91736440 0 571
0.02250000 0.02255340 67534.64872210 0 2363.76419158 0 37748.21266472 0 2234.27335283 0 13433.05519323 0 510
0.02350000 0.02348930 70197.76428748 0 5533.69328089 0 25345.54801912 0 -920.19102040 0 21442.66424379 0 555
0.02450000 0.02439640 67819.42891644 0 -4069.48904687 0 21417.53006645 0 624.74928450 0 12405.65417331 0 592
0.02550000 0.02547300 69120.20563613 0 -1163.92278494 0 15990.87294959 0 3499.75150100 0 -3383.12670369 0 837
0.02650000 0.02652900 70851.03145178 0 935.53283367 0 18183.96832641 0 -356.05164196 0 -4720.18743181 0 723
0.02750000 0.02749970 70118.04354879 0 -827.56327267 0 17005.87296571 0 3309.59539457 0 1141.98850947 0 826
0.02850000 0.02848090 66253.13784759 0 4285.32187456 0 20905.76721333 0 7736.86447330 0 4733.88389761 0 831
0.02950000 0.02946900 67390.26560646 0 932.94744582 0 15443.56793380 0 3609.55574623 0 7260.47769798 0 996
0.03050000 0.03053250 63342.00220627 0 3120.23649552 0 26092.92994437 0 8451.51660640 0 5697.53047123 0 1041
0.03150000 0.03150510 62828.02488819 0 10315.57570659 0 29041.15787383 0 -798.57592629 0 20285.27413050 0 1036
0.03250000 0.03246190 52913.42235258 0 8669.33138023 0 25939.46752239 0 2576.71821482 0 24996.21617109 0 1059
0.03350000 0.03345080 49002.34505689 0 4179.51473859 0 31944.76433428 0 5933.57029171 0 32987.99877869 0 1302
0.03450000 0.03451200 48775.91601435 0 -771.68235654 0 23147.13792637 0 13179.38823163 0 23487.50119130 0 1339
0.03550000 0.03553350 49615.41968210 0 -2073.25960532 0 28971.29150423 0 4481.77813382 0 24205.65217904 0 1365
0.03650000 0.03647120 48713.57882562 0 -330.75137975 0 16512.93306478 0 3775.52989526 0 17242.04565409 0 1308
0.03750000 0.03744890 50108.47030627 0 -596.78612817 0 23475.98597349 0 1423.64630821 0 20746.65790569 0 1579
0.03850000 0.03847530 50409.41609484 0 -58.05618506 0 17660.02591600 0 -1066.86500004 0 14148.54882301 0 1662
0.03950000 0.03950240 48599.09098700 0 1519.97553413 0 18755.07884056 0 1773.95252082 0 13171.08398802 0 1683
0.04050000 0.04050350 48200.48729352 0 1633.42257422 0 17061.01314331 0 -373.68764093 0 9472.80570302 0 1822
0.04150000 0.04152450 48086.88524088 0 2328.85315143 0 19209.92994411 0 501.46559104 0 8934.41390871 0 1887
0.04250000 0.04250150 44493.91583723 0 1959.25894898 0 21021.14083794 0 -295.14278313 0 4287.96816019 0 1920
0.04350000 0.04349210 44091.99044632 0 2550.95291497 0 19027.90092409 0 -2239.25589900 0 4280.62720884 0 2005
0.04450000 0.04448520 41163.69270153 0 1989.07671972 0 23730.20655132 0 -505.30768775 0 3801.30626744 0 2151
0.04550000 0.04548030 41286.48478377 0 1781.47062937 0 23462.69918370 0 744.35032272 0 6490.44179614 0 2274
0.04650000 0.04648670 40651.92984841 0 -961.84953530 0 23580.17655003 0 2631.57051197 0 6366.43175817 0 2311
0.04750000 0.04749250 42699.86704687 0 -1680.86748607 0 23875.80762269 0 780.51253558 0 2882.76834513 0 2568
0.04850000 0.04851840 41770.45610159 0 376.52326332 0 23823.98914254 0 1504.54071333 0 33.07657738 0 2493
0.04950000 0.04949480 42350.86736858 0 2917.70152994 0 22904.21111985 0 354.36200519 0 2338.92896702 0 2644
0.05050000 0.05050630 38918.00378181 0 1838.72562101 0 20847.08389180 0 1074.29120830 0 1477.59067472 0 2829
0.05150000 0.05149060 37882.51996477 0 258.82334326 0 18604.49522303 0 4298.99619571 0 1130.44007468 0 2784
0.05250000 0.05249300 39529.30683505 0 -1239.00421953 0 17969.38667143 0 5988.25650399 0 -3929.80059696 0 3055
0.05350000 0.05348950 38415.32023505 0 -219.62177724 0 15983.45449196 0 2484.56325536 0 -771.01137365 0 3009
0.05450000 0.05448610 38740.51441497 0 686.04899639 0 13857.34668028 0 3098.28007540 0 -2980.01657402 0 3336
0.05550000 0.05550870 37807.11743276 0 469.78877696 0 12392.14593703 0 807.36181603 0 1315.55827333 0 3349
0.05650000 0.05647670 36549.30133336 0 1872.90588772 0 12847.55065682 0 1076.33183776 0 737.58845396 0 3324
0.05750000 0.05747970 35324.48076192 0 1462.35515577 0 10314.41311249 0 3222.69978939 0 2304.18401173 0 3639
0.05850000 0.05849280 33258.60639726 0 571.07065378 0 9844.13826046 0 1168.41814881 0 1671.04633395 0 3846
0.05950000 0.05951020 32614.75070905 0 1249.57828973 0 9010.20397210 0 -200.04701420 0 -893.09814880 0 3787
0.06050000 0.06049470 32750.94030432 0 826.89782594 0 10366.75199190 0 -210.01653546 0 -96.80633240 0 3930
0.06150000 0.06148310 30777.29840540 0 960.01817277 0 10511.33440938 0 -1259.22228465 0 57.48762118 0 4083
0.06250000 0.06249100 31052.00278415 0 1055.19476968 0 11114.95326920 0 -596.19154432 0 2001.63273607 0 4303
0.06350000 0.06350600 30628.15419009 0 -339.96798293 0 12127.18520412 0 -43.62706353 0 1877.84414459 0 4470
0.06450000 0.06451750 31114.00780313 0 -186.45352102 0 13372.71102297 0 856.79310295 0 2694.09593022 0 4479
0.06550000 0.06550280 31149.77141230 0 -406.21702402 0 12328.36934607 0 1995.24400464 0 3446.96972859 0 4636
0.06650000 0.06648880 31247.65076369 0 167.92619990 0 12043.92132148 0 2406.60301631 0 3658.91617027 0 4653
0.06750000 0.06749660 31292.27223271 0 637.06281693 0 10919.08384316 0 2601.49807777 0 3400.60990458 0 5220
0.06850000 0.06852730 30994.09452535 0 267.05008060 0 8752.41810567 0 1403.29537519 0 403.60506259 0 5029
0.06950000 0.06949320 29999.24614039 0 1052.25396021 0 7911.76291614 0 231.88548421 0 1744.77694492 0 5040
0.07050000 0.07048030 29068.17434639 0 1290.57910854 0 7718.01937646 0 -1849.28861889 0 -577.09732018 0 5475
0.07150000 0.07148790 28033.46559209 0 436.43118398 0 9101.59494115 0 -456.05466526 0 274.08765026 0 5509
0.07250000 0.07249820 27582.48980223 0 910.15949411 0 10039.32120237 0 -57.23461856 0 629.04645376 0 5916
0.07350000 0.07351270 27468.55557984 0 688.45501257 0 10112.02208713 0 88.82750441 0 774.46483177 0 5721
0.07450000 0.07449140 26759.81606820 0 768.94195615 0 11617.08319972 0 1078.41122036 0 3263.83347609 0 6028
0.07550000 0.07549160 27538.64339594 0 -104.93209014 0 11404.27311671 0 1336.55140118 0 5634.78360648 0 6183
0.07650000 0.07648840 26897.66651219 0 -12.11478420 0 12466.66268306 0 1676.99217238 0 6120.79223207 0 6330
0.07750000 0.07749960 26904.08846059 0 908.71234126 0 11869.42148234 0 1320.29722835 0 6690.06474030 0 6583
0.07850000 0.07848650 26219.37589380 0 774.49472704 0 12119.21313025 0 808.38046992 0 8058.10583327 0 6549
0.07950000 0.07947320 25209.24770060 0 581.62479379 0 11020.81636359 0 375.35624028 0 6229.57782342 0 6828
0.08050000 0.08048110 24731.91977767 0 -207.67363153 0 10591.30981155 0 1037.85993795 0 4975.41559121 0 7147
0.08150000 0.08149960 25210.02276333 0 -133.69721495 0 10044.72449688 0 449.49652727 0 1364.42044275 0 7386
0.08250000 0.08250610 24848.95425100 0 619.36702740 0 9177.44036616 0 -641.13411076 0 1325.23548522 0 7227
0.08350000 0.08350160 23879.57221313 0 1501.88335538 0 8974.94968987 0 -501.48109229 0 350.61734494 0 7798
0.08450000 0.08449610 22792.15919269 0 837.91589637 0 7255.78303226 0 332.40004892 0 619.01492747 0 7371
0.08550000 0.08548940 22211.96937219 0 -1.01709490 0 7891.97667169 0 1553.12607464 0 -161.18093962 0 8256
0.08650000 0.08650700 22615.66633508 0 -474.60966719 0 7286.76339710 0 1715.35777788 0 -1176.75560940 0 8037
0.08750000 0.08749060 22666.59902924 0 -165.00421338 0 7035.55449161 0 917.87690451 0 -582.13301350 0 8155
0.08850000 0.08849210 22487.11664393 0 509.21843287 0 6565.73360491 0 -385.25268420 0 -647.07109133 0 8718
0.08950000 0.08949900 21898.84402632 0 577.80484173 0 6516.77178456 0 -817.68897339 0 698.01707229 0 8571
0.09050000 0.09049190 21618.16059217 0 1042.06631414 0 7775.93870759 0 511.27788529 0 1438.18427069 0 8932
0.09150000 0.09150830 20569.27926210 0 781.39057094 0 7157.60472809 0 638.20105192 0 1874.40065157 0 9285
0.09250000 0.09250820 20427.66422767 0 188.71559698 0 7393.69991020 0 1423.29199381 0 917.94444569 0 9204
0.09350000 0.09350330 19707.96311445 0 537.89132522 0 6739.48052596 0 1028.45953417 0 753.40416273 0 9349
0.09450000 0.09448040 19469.79740760 0 549.82729138 0 6766.24233505 0 -333.54714177 0 893.03614378 0 9564
0.09550000 0.09549270 18787.52075228 0 527.05262646 0 6664.38801904 0 -784.63919104 0 713.32013242 0 10155
0.09650000 0.09649430 18445.16446889 0 401.71723121 0 6796.83516852 0 -11.33794989 0 765.42870748 0 9913
0.09750000 0.09749140 18241.87658522 0 636.55238275 0 6784.04663336 0 -641.94239048 0 93.59989785 0 10476
0.09850000 0.09850240 17452.53054889 0 408.53446160 0 6610.20006138 0 271.38489577 0 9.63719651 0 10575
0.09950000 0.09950330 17404.14448944 0 415.23100365 0 7112.30784726 0 165.09722091 0 143.59919504 0 10882
0.10050000 0.10051200 16769.92172383 0 433.21799532 0 7068.81575537 0 377.61720901 0 19.42783330 0 10875
0.10150000 0.10150300 17013.95576283 0 -59.41918825 0 7329.58007717 0 647.39329598 0 291.66607314 0 11118
0.10250000 0.10250800 16762.17109645 0 88.77037122 0 6829.21064629 0 450.79309650 0 442.03378034 0 11575
0.10350000 0.10349800 17179.37629562 0 -40.81912195 0 7054.80926447 0 879.51019178 0 1469.85111968 0 11364
0.10450000 0.10450100 16502.30363296 0 134.27740477 0 6453.02841058 0 781.34738887 0 1289.51616535 0 12093
0.10550000 0.10551000 16617.56653432 0 318.72462053 0 5758.77149980 0 1001.29137077 0 1130.68366583 0 12067
0.10650000 0.10649700 16257.49453122 0 -76.17205859 0 5121.23810907 0 951.42937041 0 868.25849530 0 12054
0.10750000 0.10749900 15972.49289039 0 251.44806770 0 4371.01059633 0 457.49074579 0 622.33662492 0 12807
0.10850000 0.10850100 15972.82506013 0 54.13215315 0 4081.92326764 0 -106.63899973 0 420.17479668 0 12736
0.10950000 0.10950300 15917.13126629 0 2.09023348 0 3801.06267629 0 187.41349158 0 402.40814428 0 12933
0.11050000 0.11050200 15920.89585673 0 120.25541262 0 4328.27142253 0 -180.69480488 0 -11.53304425 0 13428
0.11150000 0.11150900 15741.63491792 0 373.37207967 0 4456.66610113 0 -854.59192478 0 -829.81759800 0 13453
0.11250000 0.11250000 15554.51262848 0 344.56964112 0 4623.10528780 0 -743.13458146 0 -157.64665354 0 13668
0.11350000 0.11349100 15283.01922393 0 529.89157054 0 5563.51105163 0 -166.24209929 0 56.74522180 0 13791
0.11450000 0.11448600 14996.35673437 0 329.69950889 0 5617.22289932 0 3.58076770 0 -152.51241652 0 14205
0.11550000 0.11549300 14686.77453245 0 284.07378001 0 5801.92034962 0 356.73480440 0 347.65771252 0 14776
0.11650000 0.11649800 14508.84227261 0 254.76865791 0 5636.62161240 0 587.97698654 0 461.43692235 0 14553
0.11750000 0.11747300 14298.02520806 0 19.00309892 0 5362.37119897 0 694.77620281 0 424.43099834 0 14568
0.11850000 0.11849100 14301.12545901 0 132.49143878 0 5216.43795786 0 242.72418298 0 399.13184337 0 16015
0.11950000 0.11950300 14332.34941500 0 27.86538770 0 5318.23691224 0 285.33270334 0 789.46008127 0 15270
0.12050000 0.12050700 13970.72728642 0 226.48108247 0 4780.36551720 0 612.80446048 0 995.17944747 0 15999
0.12150000 0.12150000 14192.94884553 0 186.43359083 0 4627.85531515 0 363.32948106 0 555.90378324 0 15670
0.12250000 0.12250700 13749.05934355 0 183.88252719 0 4914.46244308 0 -201.21625170 0 580.53970596 0 16887
0.12350000 0.12352200 13646.41889249 0 401.66962021 0 4779.65688841 0 -101.45925546 0 658.32278781 0 16407
0.12450000 0.12449800 13313.36336194 0 358.92933918 0 4666.33164390 0 -111.22703897 0 1125.71219199 0 16306
0.12550000 0.12549900 13184.37077780 0 -15.46194799 0 4580.64292212 0 421.76810422 0 1014.01679368 0 17523
0.12650000 0.12650100 13370.82872775 0 -139.85342755 0 4482.03279729 0 696.77143575 0 985.57309845 0 17154
0.12750000 0.12750600 13392.97337739 0 -78.23892946 0 4334.27262258 0 542.21285360 0 658.74132169 0 18007
0.12850000 0.12850300 13100.33183243 0 423.18204010 0 4273.31947446 0 75.52266674 0 628.89476291 0 17496
0.12950000 0.12949900 12813.33717313 0 442.83652389 0 3995.12731339 0 138.05860370 0 1530.30601319 0 18405
0.13050000 0.13049000 12415.61926564 0 352.51624865 0 4088.01304629 0 -155.51855271 0 1446.70996080 0 18100
0.13150000 0.13148800 12220.08200935 0 39.23854759 0 4113.16936828 0 494.38483931 0 1632.24890779 0 19059
0.13250000 0.13249300 12305.33891045 0 -100.56007196 0 4297.78931231 0 341.05085630 0 665.05586853 0 18957
0.13350000 0.13349100 12116.00215605 0 266.82863411 0 4164.22385802 0 122.56288512 0 771.73550370 0 19468
0.13450000 0.13450700 12082.34228860 0 306.09884854 0 4068.90221366 0 -365.36789606 0 1027.43202243 0 19953
0.13550000 0.13551000 11935.63398476 0 318.57625138 0 4065.89054130 0 -162.51404753 0 1062.29655882 0 19956
0.13650000 0.13649900 11815.16709073 0 -3.88071698 0 4559.94874704 0 -245.05712182 0 1200.06285314 0 19723
0.13750000 0.13749600 11748.29024882 0 -0.23024346 0 4228.74229474 0 297.81896404 0 1060.28139570 0 20946
0.13850000 0.13851100 11773.86731916 0 20.21485414 0 3887.41573755 0 390.03703576 0 124.49057687 0 20955
0.13950000 0.13949800 11782.94662551 0 -79.15261771 0 3950.60549529 0 361.52469212 0 363.41030904 0 20506
0.14050000 0.14048300 11613.31860929 0 103.18554162 0 3453.67955743 0 38.00187963 0 -423.62825479 0 21447
0.14150000 0.14148400 11607.22883064 0 223.06527026 0 3649.98080414 0 54.73913799 0 162.04347372 0 21771
0.14250000 0.14249400 11308.82967677 0 223.08409321 0 3367.32649617 0 -123.84063140 0 -77.75750478 0 22470
0.14350000 0.14350900 11204.30693048 0 224.26883197 0 3480.85104254 0 359.04670582 0 -71.60096001 0 22519
0.14450000 0.14449900 11139.86600004 0 20.68432072 0 3676.84226415 0 109.92825526 0 -336.55992135 0 22218
0.14550000 0.14550500 11040.35901689 0 296.99739754 0 3501.02481836 0 -112.29330385 0 -670.67175168 0 23559
0.14650000 0.14650700 10678.28292300 0 443.52522249 0 3797.77419582 0 -111.88252059 0 73.82505790 0 23044
0.14750000 0.14750500 10334.48723738 0 206.67712230 0 3475.34809710 0 78.35020633 0 192.88764897 0 23649
0.14850000 0.14849900 10460.63423404 0 -83.29654599 0 3395.52770748 0 670.51452467 0 827.39718779 0 23640
0.14950000 0.14949500 10292.93280234 0 -17.70542245 0 3148.20518801 0 895.96477370 0 504.37650523 0 24457
0.15050000 0.15050000 10331.55307130 0 159.36729281 0 2903.55109882 0 424.84621052 0 459.91004876 0 24591
0.15150000 0.15149900 10170.52825147 0 290.60866612 0 2853.51526296 0 177.88243437 0 639.07133665 0 25020
0.15250000 0.15250500 9822.15969570 0 322.65861754 0 2687.09822094 0 -137.69543144 0 1077.49775356 0 25297
0.15350000 0.15350100 9671.96360953 0 102.93696793 0 2818.96960953 0 13.17606653 0 1083.61964196 0 25452
0.15450000 0.15450400 9606.31579568 0 129.26164163 0 3003.27952846 0 95.85034787 0 920.89743472 0 26061
0.15550000 0.15549900 9547.76534204 0 106.52982661 0 2700.45144467 0 117.33121164 0 1080.85266798 0 26128
0.15650000 0.15649500 9424.98433213 0 146.76698717 0 2781.41228374 0 193.69814314 0 868.16105885 0 26331
0.15750000 0.15749700 9254.48160225 0 120.66730311 0 2434.72672135 0 207.44332717 0 764.66582430 0 27345
0.15850000 0.15849900 9138.18897468 0 120.93525337 0 2578.43442517 0 -13.14594981 0 462.53972590 0 26980
0.15950000 0.15949700 8991.95678080 0 155.98691205 0 2586.17398022 0 -362.60424379 0 376.77903402 0 27777
0.16050000 0.16050000 8833.76647611 0 271.99276640 0 2723.12756590 0 -41.76060173 0 531.40958628 0 28224
0.16150000 0.16150500 8673.66065923 0 138.91449441 0 2521.41195235 0 -59.73629963 0 313.70775016 0 28075
0.16250000 0.16249700 8647.05386269 0 -86.19516991 0 2698.86810222 0 543.28576188 0 536.66229717 0 28590
0.16350000 0.16349900 8719.87654303 0 78.47942036 0 2380.61626996 0 243.52914099 0 -25.38607273 0 29163
0.16450000 0.16449100 8712.95634002 0 33.67005399 0 2353.86553320 0 123.28037176 0 583.36314879 0 28996
0.16550000 0.16550500 8607.18242102 0 84.52546333 0 2198.68690086 0 186.64064331 0 552.94525805 0 30777
0.16650000 0.16650700 8680.96839361 0 83.49164036 0 2402.80520889 0 55.20993324 0 767.92330226 0 29211
0.16750000 0.16749900 8488.25458015 0 21.72766588 0 1861.46817619 0 183.91020801 0 438.52053167 0 30922
0.16850000 0.16850800 8564.08893283 0 136.25160029 0 2059.02059560 0 166.23545590 0 606.90734028 0 30867
0.16950000 0.16949900 8413.23957950 0 28.22368813 0 1842.22447565 0 -27.76197219 0 655.01216269 0 30852
0.17050000 0.17049200 8320.59743774 0 118.25021460 0 2029.85609203 0 17.27371250 0 477.14301511 0 31257
0.17150000 0.17149500 8282.25397689 0 189.43197639 0 2114.93583593 0 45.92025272 0 540.00171034 0 32608
0.17250000 0.17250900 8083.68290360 0 239.57189210 0 1958.92677924 0 70.86232522 0 610.10059876 0 32361
0.17350000 0.17350400 7932.81140562 0 103.71302717 0 2003.09428294 0 129.59934754 0 729.53776658 0 32508
0.17450000 0.17449800 7922.09339519 0 31.01336037 0 1923.43997820 0 175.24722107 0 546.18006758 0 32791
0.17550000 0.17549800 7906.83573159 0 81.82680560 0 1866.49501165 0 6.86039031 0 597.98415371 0 33633
0.17650000 0.17650100 7840.32427641 0 21.90770189 0 1704.65083978 0 133.08491539 0 506.59982805 0 33984
0.17750000 0.17750300 7828.82013092 0 21.64229826 0 1733.89284963 0 -60.36088947 0 506.84120474 0 34069
0.17850000 0.17849800 7792.38110994 0 -1.84478218 0 1806.31692626 0 33.79018871 0 130.96456519 0 34536
