### header ###
fiducial parameters:
Omega_m = 0.31
Omega_nu = 0
Omega_de = 0.69
Omega_k = 0
H_0 = 100
w_de = -1
zeff = 0
beta = 0
fgrowth = 0
b_1 = 2
gamma = 0.55
Lx = 3500 Ly = 3500 Lz = 3500
nx = 700 ny = 700 nz = 700
xoffset = -685.467585 yoffset = -31.7331281 zoffset = 572.489161
bins = 400 dk = 0.001
kx_ny = 0.628318531 ky_ny = 0.628318531 kz_ny = 0.628318531
############################
A(data) = 8.01972204 (not used)
A(ran) = 8.01978142 (used)
Ngal = 476405
weighted Ngal = 0
Nran = 23820508
weighted Nran = 0
SN(data) = 3486.40884
SN(ran) = 69.8552047
SN(data+ran) = 3556.26404
############################
13 columns: k_central k_mean P_0(k) sigma^{lin}_{P_0(k)} P^img_1(k) sigma^{lin}_{P_1(k)} P_2(k) sigma^{lin}_{P_2(k)} P^img_3(k) sigma^{lin}_{P_3(k)} P_4(k) sigma^{lin}_{P_4(k)} N_modes
### header ###
0.00050000 0 0 0 0 0 0 0 0 0 0 0 0
0.00150000 0.00179520 15433.82428796 0 -22760.93523670 0 -10243.86025874 0 -2470.75606631 0 -19372.58239570 0 3
0.00250000 0.00253879 32308.82237431 0 -32226.22283117 0 -10077.37678277 0 -23178.02971262 0 22794.37365765 0 6
0.00350000 0.00331552 41762.81619747 0 -21436.46374189 0 -32139.85869758 0 18614.12814562 0 27894.95080861 0 7
0.00450000 0.00420575 57340.58070807 0 -15985.55823367 0 -28378.58995669 0 -22564.84436416 0 5270.22731183 0 24
0.00550000 0.00557378 66027.81603753 0 -21950.10889023 0 -34293.53659806 0 -17538.45178949 0 -5459.42012601 0 45
0.00650000 0.00659388 86394.02886245 0 -9223.78911785 0 -39098.37195311 0 -40942.13548191 0 -9402.04247510 0 40
0.00750000 0.00754703 76158.55035360 0 11189.47001523 0 -15948.02305254 0 -43590.08196229 0 -10609.00338661 0 57
0.00850000 0.00846663 73683.77503338 0 12978.31481293 0 -23388.18243767 0 -30252.35948575 0 6313.08529720 0 75
0.00950000 0.00948925 59841.81888460 0 3740.06523887 0 -15206.84162918 0 -4656.32226226 0 12234.69747811 0 112
0.01050000 0.01054430 65671.28717837 0 -7896.20629977 0 -13330.96835840 0 12306.44614293 0 -3472.15926755 0 105
0.01150000 0.01145670 72033.22357267 0 -12604.51312705 0 -15820.02697763 0 -3118.01095823 0 -21373.57293692 0 144
0.01250000 0.01249090 82811.46744413 0 -15269.84315740 0 -29426.25333103 0 -1580.88439296 0 -26300.97892772 0 169
0.01350000 0.01339930 99191.75405759 0 -11296.53939622 0 -28388.11215603 0 -25961.83361852 0 -39514.35919654 0 180
0.01450000 0.01448870 101155.09869443 0 1271.44613125 0 -13195.22165613 0 -41624.74430698 0 -42957.63076865 0 267
0.01550000 0.01550050 91577.86989605 0 19957.75476236 0 1485.44095302 0 -38970.04370846 0 -22674.34965662 0 238
0.01650000 0.01653350 80210.68906748 0 8005.40156713 0 7382.07396914 0 -26367.19143013 0 -39711.77874806 0 315
0.01750000 0.01747870 76471.12208323 0 5317.27361998 0 12144.90092383 0 7526.44601245 0 -40935.93498001 0 297
0.01850000 0.01844180 74933.28688917 0 -62.81850269 0 19289.65068280 0 -865.51588045 0 -56957.14609960 0 388
0.01950000 0.01947590 70813.49627065 0 -1882.66060589 0 10298.11465035 0 166.17455811 0 -36955.32348446 0 399
0.02050000 0.02045430 73148.64957490 0 2775.12320325 0 10903.49400981 0 -4500.19140999 0 -19885.12031155 0 462
0.02150000 0.02154770 71320.05513110 0 4371.07703028 0 10302.66537585 0 4283.71638746 0 -2227.74068119 0 571
0.02250000 0.02255340 68295.09599064 0 -396.11242039 0 8553.24912683 0 7254.02253261 0 -4324.19680700 0 510
0.02350000 0.02348930 67920.40851878 0 1283.04992766 0 17392.29710188 0 5130.46135564 0 6722.40700109 0 555
0.02450000 0.02439640 69223.51042669 0 719.63800096 0 20412.93803566 0 5256.89623275 0 20848.52329402 0 592
0.02550000 0.02547300 67763.29222960 0 1590.99342552 0 18615.89971759 0 3123.72427784 0 17407.90907988 0 837
0.02650000 0.02652900 65247.88147730 0 2162.49147103 0 23350.97942628 0 2897.54989877 0 26560.95711446 0 723
0.02750000 0.02749970 66372.60823238 0 -2676.02589612 0 24104.22968370 0 9597.01504284 0 14392.13996902 0 826
0.02850000 0.02848090 62817.50617961 0 -687.93682777 0 18057.96526998 0 8351.92104465 0 11196.33485662 0 831
0.02950000 0.02946900 65329.81668096 0 4880.95758818 0 4089.33065295 0 5673.72497287 0 2461.57710903 0 996
0.03050000 0.03053250 61796.85927783 0 -1106.17728931 0 8537.11674957 0 -2913.31688931 0 1854.11615251 0 1041
0.03150000 0.03150510 58606.25815809 0 3863.53273292 0 1912.42301500 0 -5356.21498637 0 2742.26054318 0 1036
0.03250000 0.03246190 59807.49467766 0 2386.32958956 0 9697.15314850 0 -8813.62591727 0 -8744.37959785 0 1059
0.03350000 0.03345080 54020.21194145 0 5659.45274618 0 9176.21133810 0 -7692.11013639 0 -2658.31017641 0 1302
0.03450000 0.03451200 52462.77873246 0 2943.30074492 0 13029.80112333 0 -2360.56428971 0 -10569.75199513 0 1339
0.03550000 0.03553350 48818.98735789 0 1522.31179467 0 16585.23534585 0 -523.54048503 0 -8240.28986583 0 1365
0.03650000 0.03647120 49807.85668745 0 2604.35473757 0 18873.88488586 0 3428.58966939 0 -8997.73653435 0 1308
0.03750000 0.03744890 47620.40819628 0 1537.54731362 0 16054.64954054 0 -5.14496610 0 -6258.81983326 0 1579
0.03850000 0.03847530 46866.60432262 0 102.48455274 0 16364.56391221 0 -103.98297045 0 -2626.52153186 0 1662
0.03950000 0.03950240 45931.21432194 0 -433.17481325 0 15025.36622540 0 3356.74135364 0 31.60406890 0 1683
0.04050000 0.04050350 48357.93575245 0 96.94318633 0 16619.00593655 0 4029.34079708 0 -1805.18754913 0 1822
0.04150000 0.04152450 46556.57922770 0 160.22650522 0 14716.55908621 0 -1.69171836 0 -2814.16422056 0 1887
0.04250000 0.04250150 45902.42627741 0 2356.95471182 0 14954.50334656 0 1412.97258708 0 -1281.92055053 0 1920
0.04350000 0.04349210 43547.12134199 0 919.53553877 0 12898.92624398 0 2254.12603123 0 2735.10782135 0 2005
0.04450000 0.04448520 43754.50598584 0 96.68708346 0 13852.80702710 0 2349.49196489 0 -784.82742056 0 2151
0.04550000 0.04548030 42898.06166112 0 1118.45981923 0 11226.34085687 0 -1152.44078410 0 -1758.37375980 0 2274
0.04650000 0.04648670 42915.99882733 0 612.10468955 0 11300.52543316 0 -296.74273407 0 -3979.26067192 0 2311
0.04750000 0.04749250 40999.71157097 0 1327.90391550 0 10234.22733615 0 -904.05089251 0 1311.22899432 0 2568
0.04850000 0.04851840 40291.74712206 0 1890.43337791 0 11827.56809453 0 -976.65876974 0 -2912.44217565 0 2493
0.04950000 0.04949480 38566.90036181 0 1394.18285186 0 13296.31198172 0 1092.49521753 0 2179.75322542 0 2644
0.05050000 0.05050630 37649.44752734 0 711.42012148 0 13050.39564750 0 1200.95971145 0 1774.04109942 0 2829
0.05150000 0.05149060 38716.37674686 0 231.93530967 0 14118.32137626 0 400.80930058 0 375.11154190 0 2784
0.05250000 0.05249300 37919.72297616 0 1128.53563482 0 15038.32084544 0 -351.13663697 0 2574.29337569 0 3055
0.05350000 0.05348950 36726.90142345 0 1091.66036424 0 15953.66993819 0 -1235.31713537 0 791.10764320 0 3009
0.05450000 0.05448610 36355.53564903 0 989.27789834 0 14795.72620866 0 1032.10122181 0 -1208.64390488 0 3336
0.05550000 0.05550870 34954.44366648 0 370.95056224 0 15271.39328287 0 -341.29334021 0 -806.22358104 0 3349
0.05650000 0.05647670 34512.87935271 0 585.84556401 0 13894.54969167 0 651.33282915 0 -3744.75990459 0 3324
0.05750000 0.05747970 35094.17640569 0 258.59193167 0 14006.60161884 0 1234.09917964 0 -3876.11089391 0 3639
0.05850000 0.05849280 34456.07832639 0 143.88818272 0 12674.49021990 0 802.44791828 0 -5752.55992558 0 3846
0.05950000 0.05951020 33338.65930570 0 928.96140889 0 13250.80472671 0 1037.09926923 0 -3794.00960538 0 3787
0.06050000 0.06049470 33420.15161636 0 910.20821234 0 12446.73249838 0 -710.06376169 0 -2897.98171943 0 3930
0.06150000 0.06148310 32935.07306606 0 -503.34567179 0 11885.91924632 0 2632.84382933 0 -73.07003607 0 4083
0.06250000 0.06249100 33830.60269739 0 -314.14289252 0 12444.18586368 0 2068.77531377 0 -1285.55227307 0 4303
0.06350000 0.06350600 33250.41287689 0 662.64653065 0 11869.08931260 0 1755.52817232 0 -761.83130915 0 4470
0.06450000 0.06451750 32799.99070327 0 1054.35216576 0 12024.10186006 0 201.55949377 0 902.92594431 0 4479
0.06550000 0.06550280 31459.90723047 0 763.27514030 0 12503.53352470 0 485.68974263 0 2893.22061976 0 4636
0.06650000 0.06648880 31280.09267541 0 1176.50094593 0 12791.19252349 0 1410.58096492 0 2935.16258617 0 4653
0.06750000 0.06749660 29614.48285294 0 1375.20488713 0 12191.51541132 0 531.45941174 0 2783.78176125 0 5220
0.06850000 0.06852730 29559.45339860 0 1214.68939423 0 13770.53965370 0 -811.39324950 0 2016.64680852 0 5029
0.06950000 0.06949320 27997.92342942 0 871.97990368 0 13013.19263611 0 679.20740689 0 3060.46808615 0 5040
0.07050000 0.07048030 27704.83899147 0 826.36192542 0 13017.73228928 0 -172.78584326 0 3497.55918069 0 5475
0.07150000 0.07148790 27179.23573233 0 135.12111592 0 12728.52316502 0 1039.58832785 0 3869.79966877 0 5509
0.07250000 0.07249820 27146.57237412 0 105.63640072 0 12124.19567642 0 1538.35559333 0 1977.22933216 0 5916
0.07350000 0.07351270 26323.45574710 0 296.64640484 0 10849.16211193 0 1776.16698578 0 1903.64266142 0 5721
0.07450000 0.07449140 26183.61228464 0 40.92331253 0 10805.42642889 0 1220.19233966 0 1166.27011780 0 6028
0.07550000 0.07549160 26558.74264949 0 -451.85271799 0 9451.30324822 0 950.13169394 0 -87.87473086 0 6183
0.07650000 0.07648840 27103.39030732 0 -669.32978591 0 9157.52125381 0 608.91807447 0 -901.11119027 0 6330
0.07750000 0.07749960 27402.67524717 0 -138.56239448 0 8340.31724824 0 -1923.38461657 0 -1020.37230813 0 6583
0.07850000 0.07848650 27762.08291078 0 573.58407151 0 9246.45416675 0 -1102.36287341 0 -1784.34943382 0 6549
0.07950000 0.07947320 26996.32092633 0 620.70234978 0 9082.69448268 0 111.30897417 0 -2065.48683329 0 6828
0.08050000 0.08048110 26377.59941546 0 1090.22981987 0 9159.71357412 0 486.91434176 0 -1945.79500200 0 7147
0.08150000 0.08149960 25692.88684868 0 1099.54496674 0 9123.13061292 0 701.51924863 0 -1893.07966354 0 7386
0.08250000 0.08250610 24462.86228457 0 663.50242136 0 8325.11494627 0 1420.66785283 0 -985.04162686 0 7227
0.08350000 0.08350160 23817.01357790 0 315.97536228 0 8836.98852263 0 1188.70264788 0 -974.80304810 0 7798
0.08450000 0.08449610 24046.87504114 0 950.74177904 0 8463.49686185 0 252.43350461 0 -1338.30082850 0 7371
0.08550000 0.08548940 22637.47881497 0 851.45402793 0 8254.41815230 0 -94.54602801 0 69.43676340 0 8256
0.08650000 0.08650700 22026.28648498 0 1013.10000519 0 8571.73990928 0 -633.36908937 0 -682.90445614 0 8037
0.08750000 0.08749060 20935.21959735 0 857.35225536 0 7997.65093976 0 127.55096745 0 -785.34671260 0 8155
0.08850000 0.08849210 21034.20618123 0 -139.83349737 0 8458.76897915 0 1074.78614122 0 -1530.22850691 0 8718
0.08950000 0.08949900 20700.15414145 0 -99.67140717 0 7221.93493529 0 1416.82575612 0 -1314.53961944 0 8571
0.09050000 0.09049190 20656.86135141 0 90.37851567 0 6657.68926253 0 1109.96734609 0 -1360.05794677 0 8932
0.09150000 0.09150830 20365.43776218 0 403.52423462 0 5962.62407204 0 1244.92791331 0 -1088.36524037 0 9285
0.09250000 0.09250820 20255.37885349 0 445.15285424 0 6048.55638496 0 -307.27472944 0 -1418.94057016 0 9204
0.09350000 0.09350330 19614.95558598 0 642.42846554 0 6015.72694187 0 -742.31855112 0 -1609.77208841 0 9349
0.09450000 0.09448040 18929.13578671 0 737.33711218 0 6822.03577981 0 -1055.15933824 0 -83.43373210 0 9564
0.09550000 0.09549270 18768.25490709 0 465.10296910 0 7886.11941186 0 -701.35316376 0 -374.86020013 0 10155
0.09650000 0.09649430 18482.58892677 0 197.02759122 0 8504.12122161 0 -314.09417429 0 426.77279504 0 9913
0.09750000 0.09749140 18633.72616055 0 242.08420260 0 8845.79102086 0 68.01518762 0 769.49778685 0 10476
0.09850000 0.09850240 18482.36748028 0 87.06146860 0 8608.33394280 0 725.44986426 0 1031.24200940 0 10575
0.09950000 0.09950330 18417.70510334 0 -32.98224117 0 8944.91047264 0 635.05429721 0 995.56033544 0 10882
0.10050000 0.10051200 18609.47776920 0 -162.44761358 0 8811.57753718 0 1538.30023170 0 1503.04594948 0 10875
0.10150000 0.10150300 18147.54037776 0 88.13991304 0 7508.35383370 0 1328.15857897 0 1869.27416518 0 11118
0.10250000 0.10250800 18275.42572942 0 685.78990399 0 6927.13428699 0 1712.85543247 0 1348.12198062 0 11575
0.10350000 0.10349800 17267.40127793 0 442.65493776 0 5517.53875898 0 1377.07611002 0 2106.67588162 0 11364
0.10450000 0.10450100 16953.83303906 0 348.08953318 0 5139.58495129 0 1437.73030538 0 2124.31409506 0 12093
0.10550000 0.10551000 16509.72209059 0 220.91834648 0 4561.33278764 0 488.73795366 0 1910.82860023 0 12067
0.10650000 0.10649700 16006.81709732 0 384.13105770 0 4253.26749421 0 270.59101008 0 1226.60321573 0 12054
0.10750000 0.10749900 15920.78513348 0 276.22239448 0 4492.49614424 0 -676.00529055 0 1262.71006697 0 12807
0.10850000 0.10850100 15599.46626725 0 7.45302543 0 3915.10762192 0 -471.32340118 0 1087.93231247 0 12736
0.10950000 0.10950300 15880.48187114 0 117.16844846 0 4749.83911768 0 -465.52261021 0 739.65454977 0 12933
0.11050000 0.11050200 15849.03646866 0 185.79914662 0 4341.61357394 0 -146.01849801 0 282.70524066 0 13428
0.11150000 0.11150900 15654.71716809 0 529.41103165 0 4767.53269274 0 -402.94847373 0 64.52762675 0 13453
0.11250000 0.11250000 15155.24459552 0 582.03446981 0 4828.29761134 0 -496.44982789 0 264.02179977 0 13668
0.11350000 0.11349100 14760.84838548 0 490.17846312 0 5860.60367116 0 109.84488066 0 284.06824385 0 13791
0.11450000 0.11448600 14425.13549698 0 371.48314106 0 5462.13284559 0 131.51596696 0 319.65248135 0 14205
0.11550000 0.11549300 14309.20825613 0 73.28760725 0 5706.04508902 0 372.65459303 0 688.31217958 0 14776
0.11650000 0.11649800 14325.92746661 0 23.19153795 0 5750.02436320 0 -17.85323798 0 764.26389891 0 14553
0.11750000 0.11747300 14323.71300164 0 -91.38233264 0 5826.87736976 0 268.90580224 0 644.61082076 0 14568
0.11850000 0.11849100 14360.25167354 0 98.29334562 0 5514.26135083 0 310.74479604 0 1037.16348871 0 16015
0.11950000 0.11950300 13874.17661400 0 207.70463404 0 5642.36814898 0 646.31263708 0 790.69575272 0 15270
0.12050000 0.12050700 13917.91229704 0 195.06668249 0 4779.53509284 0 798.90588157 0 671.96057029 0 15999
0.12150000 0.12150000 13798.55263549 0 177.70527718 0 4711.36278893 0 799.95443073 0 983.24680301 0 15670
0.12250000 0.12250700 13623.83134986 0 159.72714337 0 4344.32629352 0 242.43519530 0 1122.01403550 0 16887
0.12350000 0.12352200 13586.18544547 0 150.54154270 0 4709.29226419 0 63.96559554 0 1989.82963781 0 16407
0.12450000 0.12449800 13648.85480395 0 -6.90905318 0 4301.23280533 0 -156.17957050 0 1719.60955061 0 16306
0.12550000 0.12549900 13482.88065491 0 89.27836948 0 4695.72866629 0 88.74014377 0 2258.69890138 0 17523
0.12650000 0.12650100 13461.84323776 0 197.98866901 0 4764.21099529 0 483.81076911 0 2240.32991451 0 17154
0.12750000 0.12750600 13501.14999086 0 -134.56860692 0 4240.06928303 0 400.88791408 0 2188.00210741 0 18007
0.12850000 0.12850300 13473.24773232 0 -159.61199119 0 4492.31898705 0 524.27679463 0 1922.39917966 0 17496
0.12950000 0.12949900 13585.29965949 0 193.67489126 0 4154.55771845 0 4.02244274 0 1347.88946180 0 18405
0.13050000 0.13049000 13161.34034218 0 498.31219293 0 4401.12731984 0 -66.28679772 0 1551.03340525 0 18100
0.13150000 0.13148800 12710.36455232 0 515.26060053 0 3926.96608181 0 -431.75644844 0 1100.97218941 0 19059
0.13250000 0.13249300 12542.72955456 0 382.51449828 0 3714.53245783 0 44.75256534 0 485.39854049 0 18957
0.13350000 0.13349100 12162.61664354 0 306.38119282 0 3556.14285130 0 -105.55867300 0 190.40966267 0 19468
0.13450000 0.13450700 11832.66136394 0 312.79206889 0 3535.03900020 0 -28.84451339 0 -336.18124784 0 19953
0.13550000 0.13551000 11718.83786481 0 16.22261671 0 3395.15124844 0 377.85858569 0 -282.39410834 0 19956
0.13650000 0.13649900 11752.71917875 0 -187.49099785 0 3296.38611106 0 670.90316327 0 -562.88709850 0 19723
0.13750000 0.13749600 11815.72070697 0 -73.27941373 0 3037.14977008 0 445.43630576 0 -640.81079888 0 20946
0.13850000 0.13851100 11899.64892910 0 105.15696905 0 3073.31198294 0 212.48344943 0 -195.17408404 0 20955
0.13950000 0.13949800 11794.01895033 0 60.01188979 0 3096.30920159 0 75.16381269 0 294.11637862 0 20506
0.14050000 0.14048300 11756.15159945 0 252.50326026 0 3304.50212515 0 10.46383414 0 500.92747605 0 21447
0.14150000 0.14148400 11472.03574460 0 369.25760377 0 3387.95423731 0 73.39766616 0 679.40560150 0 21771
0.14250000 0.14249400 11210.72887888 0 336.96738290 0 3411.09539618 0 -225.48900216 0 717.41357090 0 22470
0.14350000 0.14350900 10807.20907319 0 384.69353180 0 3635.28782911 0 67.00240207 0 1121.58221483 0 22519
0.14450000 0.14449900 10606.00278658 0 169.67562722 0 3321.69744559 0 448.79564911 0 901.97815331 0 22218
0.14550000 0.14550500 10453.20470409 0 88.16604373 0 3558.39053324 0 450.41995916 0 1081.55243891 0 23559
0.14650000 0.14650700 10468.09698097 0 -29.53487284 0 2862.88244976 0 442.83984559 0 835.26961074 0 23044
0.14750000 0.14750500 10361.68086714 0 77.03924307 0 2893.36455998 0 -30.89566156 0 453.14928723 0 23649
0.14850000 0.14849900 10372.68675801 0 222.75524517 0 2873.02469929 0 -449.08795848 0 758.34795576 0 23640
0.14950000 0.14949500 10239.50883509 0 25.30159089 0 3005.52721040 0 -236.39413488 0 381.77375975 0 24457
0.15050000 0.15050000 10152.76824246 0 62.40273689 0 2845.55426142 0 87.75038865 0 366.87483947 0 24591
0.15150000 0.15149900 10325.57401590 0 -89.52173918 0 2823.89679407 0 344.38141160 0 76.44521284 0 25020
0.15250000 0.15250500 10260.77877106 0 56.64634594 0 2564.42793427 0 288.49717378 0 -36.03443823 0 25297
0.15350000 0.15350100 10180.59299473 0 337.00724327 0 2550.48787733 0 -55.67419582 0 -134.55310566 0 25452
0.15450000 0.15450400 9845.13476970 0 259.84974777 0 2582.87442742 0 -57.64805917 0 180.24305403 0 26061
0.15550000 0.15549900 9598.47658971 0 253.51969968 0 2490.14370706 0 54.21929234 0 302.42505117 0 26128
0.15650000 0.15649500 9473.80221225 0 233.34481662 0 2569.86444576 0 14.34286812 0 148.62824497 0 26331
0.15750000 0.15749700 9334.83346345 0 14.02509240 0 2734.73136231 0 -0.08022519 0 316.21341726 0 27345
0.15850000 0.15849900 9332.24253945 0 112.88345876 0 2887.04226251 0 196.45847372 0 174.46994386 0 26980
0.15950000 0.15949700 9255.28988196 0 206.25526672 0 3046.92663289 0 -167.60510248 0 643.03744340 0 27777
0.16050000 0.16050000 9102.70217363 0 150.22044528 0 2912.90721329 0 272.12341984 0 330.72812787 0 28224
0.16150000 0.16150500 9075.43103760 0 17.63644186 0 2814.04242498 0 66.08184898 0 467.26539414 0 28075
0.16250000 0.16249700 8986.74171581 0 -22.51357950 0 2850.65860316 0 238.26203608 0 270.98518484 0 28590
0.16350000 0.16349900 9073.33836821 0 58.29556872 0 2723.59260354 0 52.69607262 0 76.19841072 0 29163
0.16450000 0.16449100 8876.28420342 0 335.73392592 0 2511.91189766 0 40.79531645 0 172.63525964 0 28996
0.16550000 0.16550500 8693.43583136 0 225.17565537 0 2447.17201444 0 174.75893154 0 362.77586482 0 30777
0.16650000 0.16650700 8534.09400490 0 139.09829500 0 2332.38522305 0 75.67535410 0 293.36456777 0 29211
0.16750000 0.16749900 8412.16556399 0 37.36666035 0 2258.74319068 0 193.71364440 0 76.81613572 0 30922
0.16850000 0.16850800 8413.93713596 0 138.25790555 0 2385.39951428 0 -31.82396527 0 -173.37821264 0 30867
0.16950000 0.16949900 8281.06923814 0 196.97222959 0 2596.73697809 0 -311.36152453 0 -97.20050716 0 30852
0.17050000 0.17049200 8029.57245221 0 257.70946739 0 2489.36864433 0 -218.60201613 0 122.75665080 0 31257
0.17150000 0.17149500 8140.56143619 0 -30.21482430 0 2603.79004900 0 102.90076143 0 215.38661300 0 32608
0.17250000 0.17250900 8132.19075863 0 -176.63015444 0 2449.90687867 0 516.48077072 0 96.45522898 0 32361
0.17350000 0.17350400 8308.75005019 0 -62.48732945 0 2399.57209005 0 349.79134951 0 45.84008909 0 32508
0.17450000 0.17449800 8301.94057042 0 94.48258359 0 2020.27853106 0 345.16865390 0 -97.21445829 0 32791
0.17550000 0.17549800 8081.22484749 0 211.16805724 0 2000.58086521 0 -28.81627896 0 228.76308861 0 33633
0.17650000 0.17650100 7975.92703846 0 180.04264495 0 1844.69360409 0 -97.53732728 0 106.10132764 0 33984
0.17750000 0.17750300 7732.49090500 0 173.41585854 0 1899.49053961 0 -13.33517584 0 250.31647611 0 34069
0.17850000 0.17849800 7631.43379638 0 120.64405122 0 1879.50499332 0 42.71248950 0 24.79691432 0 34536
