### header ###
fiducial parameters:
Omega_m = 0.31
Omega_nu = 0
Omega_de = 0.69
Omega_k = 0
H_0 = 100
w_de = -1
zeff = 0
beta = 0
fgrowth = 0
b_1 = 2
gamma = 0.55
Lx = 3500 Ly = 3500 Lz = 3500
nx = 700 ny = 700 nz = 700
xoffset = -685.467585 yoffset = -31.7331281 zoffset = 572.489161
bins = 400 dk = 0.001
kx_ny = 0.628318531 ky_ny = 0.628318531 kz_ny = 0.628318531
############################
A(data) = 8.01741964 (not used)
A(ran) = 8.01772932 (used)
Ngal = 476465
weighted Ngal = 0
Nran = 23820508
weighted Nran = 0
SN(data) = 3483.18679
SN(ran) = 69.8373302
SN(data+ran) = 3553.02412
############################
13 columns: k_central k_mean P_0(k) sigma^{lin}_{P_0(k)} P^img_1(k) sigma^{lin}_{P_1(k)} P_2(k) sigma^{lin}_{P_2(k)} P^img_3(k) sigma^{lin}_{P_3(k)} P_4(k) sigma^{lin}_{P_4(k)} N_modes
### header ###
0.00050000 0 0 0 0 0 0 0 0 0 0 0 0
0.00150000 0.00179520 33187.18990218 0 -31267.35950187 0 39072.68415953 0 -27815.45151641 0 -52636.50350887 0 3
0.00250000 0.00253879 53530.15084498 0 -13455.08911962 0 22277.84970486 0 9751.96115635 0 26315.81584297 0 6
0.00350000 0.00331552 55114.26835678 0 2618.98127865 0 16997.34727560 0 -28042.21272870 0 25769.17516668 0 7
0.00450000 0.00420575 42940.69011167 0 16796.93819638 0 -4456.92076460 0 -4208.90068866 0 37205.44730211 0 24
0.00550000 0.00557378 34746.61612963 0 619.95939678 0 11203.75331424 0 -690.95514352 0 -7396.96624602 0 45
0.00650000 0.00659388 36010.74345418 0 -14570.18295210 0 2566.33237414 0 24155.60527086 0 16385.04771313 0 40
0.00750000 0.00754703 48146.34362516 0 -22584.44237909 0 -5834.84944363 0 17273.71250307 0 -23470.89270407 0 57
0.00850000 0.00846663 65355.06158155 0 -26813.40612032 0 -19624.58850857 0 7103.93716969 0 1356.42622423 0 75
0.00950000 0.00948925 84875.79168332 0 -15733.88429054 0 -29728.30635208 0 -1966.36738152 0 -20165.47157596 0 112
0.01050000 0.01054430 90908.32641426 0 -717.33385017 0 -25203.04719870 0 -25352.30213725 0 -2679.91228213 0 105
0.01150000 0.01145670 81983.36827094 0 17840.83698028 0 -28763.57469063 0 -29915.76081126 0 9608.74063482 0 144
0.01250000 0.01249090 71967.56468649 0 17269.61574289 0 -18072.80218524 0 -22055.84959225 0 12951.18761712 0 169
0.01350000 0.01339930 56541.49102591 0 10768.07947728 0 3649.47147720 0 -17791.89730459 0 15375.25168967 0 180
0.01450000 0.01448870 54229.14671078 0 3535.49296552 0 4414.62448379 0 -750.02710366 0 18960.47046595 0 267
0.01550000 0.01550050 59433.91443828 0 -6750.01030687 0 26240.08114121 0 14946.86344244 0 32628.92328482 0 238
0.01650000 0.01653350 63071.94820394 0 -1310.75288436 0 14290.16385744 0 12981.08289413 0 26014.09499166 0 315
0.01750000 0.01747870 66511.67663210 0 571.75381622 0 23928.62261207 0 12802.15412506 0 49895.10660702 0 297
0.01850000 0.01844180 69061.96520758 0 -5932.50734853 0 22721.40703710 0 26299.98241848 0 49745.51949872 0 388
0.01950000 0.01947590 75889.93575350 0 -8495.80590567 0 12026.75921801 0 10936.33452522 0 43270.20249828 0 399
0.02050000 0.02045430 79907.52881394 0 -5703.67561150 0 8243.92158837 0 5556.52441466 0 11523.74350150 0 462
0.02150000 0.02154770 86992.70946540 0 862.49092131 0 8723.72971206 0 -15560.93457688 0 13942.27141164 0 571
0.02250000 0.02255340 84246.44074063 0 3981.18725644 0 10032.68887980 0 -8241.75141271 0 -1009.00545947 0 510
0.02350000 0.02348930 79218.49804048 0 2547.54263892 0 11494.06967099 0 -10127.62299279 0 -10277.58656014 0 555
0.02450000 0.02439640 80882.44701423 0 2357.80728083 0 8747.14767906 0 -3123.99001363 0 -11627.15901531 0 592
0.02550000 0.02547300 73446.27366602 0 4723.52020158 0 13027.14376538 0 -1255.33589864 0 -26941.62364172 0 837
0.02650000 0.02652900 70289.44313698 0 2903.49573719 0 10189.35120366 0 1665.98628151 0 -14684.89223723 0 723
0.02750000 0.02749970 65300.69646669 0 5658.35658602 0 14192.28450604 0 3031.83505417 0 -22523.10169959 0 826
0.02850000 0.02848090 62342.61416814 0 3344.55072402 0 14580.70166068 0 -2925.21963849 0 -14962.36469718 0 831
0.02950000 0.02946900 58919.49422721 0 3967.19183787 0 17768.42397597 0 -186.71925681 0 -14199.92441017 0 996
0.03050000 0.03053250 57939.92565050 0 4926.68628968 0 23441.55104330 0 -4031.74349156 0 -4881.61085534 0 1041
0.03150000 0.03150510 55028.90073243 0 -499.04960976 0 24600.04838908 0 -3552.30075459 0 -2950.91850439 0 1036
0.03250000 0.03246190 56357.69043392 0 -1651.28223415 0 27776.03404006 0 -196.63452369 0 -11760.35908288 0 1059
0.03350000 0.03345080 60125.60256970 0 -2879.49093699 0 26976.61218815 0 161.28612670 0 -5838.60296174 0 1302
0.03450000 0.03451200 63357.28201452 0 -37.72053185 0 31934.13490245 0 2715.67589129 0 -1504.29712219 0 1339
0.03550000 0.03553350 60051.86088641 0 3106.38501717 0 25821.32581657 0 -1117.52974395 0 872.98416354 0 1365
0.03650000 0.03647120 60687.96594724 0 2601.88560913 0 31312.75603363 0 483.13757176 0 -6568.63455401 0 1308
0.03750000 0.03744890 53230.97662838 0 6244.24865380 0 27363.03632432 0 236.93224986 0 -2432.15794199 0 1579
0.03850000 0.03847530 51970.28172453 0 5966.24472225 0 33620.78214207 0 5151.74236394 0 2310.09663319 0 1662
0.03950000 0.03950240 46696.42269016 0 -64.85237803 0 27577.61797931 0 6718.99672505 0 4958.44171726 0 1683
0.04050000 0.04050350 47400.51182538 0 -340.63564412 0 25075.27257029 0 9008.14451968 0 -623.51582751 0 1822
0.04150000 0.04152450 48064.51914475 0 327.61459013 0 21061.88699328 0 4650.71966590 0 -5794.70119384 0 1887
0.04250000 0.04250150 45738.44514685 0 964.63533222 0 19551.28971827 0 -1259.60981602 0 -3817.11754728 0 1920
0.04350000 0.04349210 44584.04456126 0 2282.47118277 0 15066.88744347 0 -1631.80601480 0 -8466.60818513 0 2005
0.04450000 0.04448520 42927.51404514 0 1138.56716110 0 17011.29840487 0 -1971.40528931 0 -8356.23925133 0 2151
0.04550000 0.04548030 39884.06412224 0 2468.09870835 0 14745.01496099 0 1377.17576094 0 -10218.06174191 0 2274
0.04650000 0.04648670 40102.18892117 0 1326.57523652 0 16411.73201594 0 496.30145874 0 -9086.35942220 0 2311
0.04750000 0.04749250 38147.81286743 0 -701.80048568 0 14788.86136727 0 2567.47282360 0 -8385.40375491 0 2568
0.04850000 0.04851840 38553.83501853 0 1286.98060297 0 16901.68238917 0 2858.58638773 0 -7605.63527955 0 2493
0.04950000 0.04949480 37528.42701707 0 1414.21268746 0 15989.32282411 0 -372.20173494 0 -6162.88921103 0 2644
0.05050000 0.05050630 37130.70910959 0 798.00680879 0 16829.04793836 0 523.53384163 0 -4263.07757400 0 2829
0.05150000 0.05149060 37140.78492517 0 -368.41721432 0 16779.66536967 0 16.91563352 0 -1521.04954964 0 2784
0.05250000 0.05249300 37344.51570183 0 324.05151600 0 17236.62021493 0 -138.84030983 0 -1392.68808801 0 3055
0.05350000 0.05348950 38045.83675585 0 757.38355627 0 18233.01872536 0 -320.19502527 0 -3153.55312090 0 3009
0.05450000 0.05448610 37815.08950663 0 -26.14618783 0 18008.13980829 0 -1627.56531439 0 -2207.01328913 0 3336
0.05550000 0.05550870 36772.51940170 0 523.40208097 0 18189.39376558 0 2521.84377302 0 -2864.29970734 0 3349
0.05650000 0.05647670 37443.61300896 0 300.59368864 0 17327.30255520 0 2214.91892905 0 -2886.15647653 0 3324
0.05750000 0.05747970 36212.59193562 0 379.52164888 0 17510.21736120 0 4506.49156281 0 -355.87337753 0 3639
0.05850000 0.05849280 36086.03526295 0 910.70093080 0 14597.42087116 0 4609.53061758 0 -81.45754357 0 3846
0.05950000 0.05951020 34655.15872663 0 437.43544384 0 13706.87378600 0 3973.96810066 0 2717.56925884 0 3787
0.06050000 0.06049470 33992.14791649 0 -102.31315315 0 11410.14144886 0 3028.54657370 0 4255.00584921 0 3930
0.06150000 0.06148310 33826.06304421 0 892.80805389 0 11082.28991098 0 1218.35433374 0 -554.20307415 0 4083
0.06250000 0.06249100 32301.73608643 0 1799.17527676 0 9694.14147614 0 -2229.11364946 0 -286.83743229 0 4303
0.06350000 0.06350600 31632.85694414 0 1129.45463778 0 9999.05115700 0 -2410.73299346 0 -17.73708930 0 4470
0.06450000 0.06451750 30323.66525758 0 -27.27567568 0 8760.84414486 0 910.56363397 0 -126.91873770 0 4479
0.06550000 0.06550280 31410.85683152 0 -690.28637510 0 9331.31246416 0 1235.41678629 0 -2855.54149840 0 4636
0.06650000 0.06648880 31392.47677232 0 760.05309378 0 9313.46387655 0 925.80136739 0 -4309.14951757 0 4653
0.06750000 0.06749660 30582.20404209 0 1872.48513938 0 9893.19973173 0 455.50879964 0 -3687.43847900 0 5220
0.06850000 0.06852730 28173.41977780 0 1548.74143401 0 9109.55594269 0 -793.42397355 0 -347.54477480 0 5029
0.06950000 0.06949320 28397.52363213 0 519.96301688 0 9772.56675284 0 203.28124028 0 -727.69201003 0 5040
0.07050000 0.07048030 27608.50976555 0 -197.54909772 0 9923.64862499 0 1054.46510348 0 -29.00650150 0 5475
0.07150000 0.07148790 28617.53072627 0 -176.93353614 0 10555.16974334 0 745.67125107 0 -795.51553571 0 5509
0.07250000 0.07249820 27577.50725606 0 237.16476869 0 10099.20033499 0 522.18191077 0 -615.35220242 0 5916
0.07350000 0.07351270 27984.85808614 0 817.89381140 0 10691.13789211 0 -750.10018100 0 -1043.27984094 0 5721
0.07450000 0.07449140 26527.85086325 0 564.98530406 0 9676.84650478 0 432.87364602 0 -272.31386382 0 6028
0.07550000 0.07549160 26949.92788534 0 208.53727287 0 10416.69924916 0 163.61242215 0 -1058.98039754 0 6183
0.07650000 0.07648840 26918.59320610 0 7.47564619 0 10808.94742819 0 1070.16566007 0 -1744.59978773 0 6330
0.07750000 0.07749960 26222.36542150 0 512.84904818 0 9404.95449653 0 456.15653065 0 -2859.02928072 0 6583
0.07850000 0.07848650 26114.18880803 0 215.46744097 0 8757.77711088 0 924.35532176 0 -919.53221707 0 6549
0.07950000 0.07947320 26086.61871923 0 -497.98998828 0 6416.73332983 0 1028.91903565 0 -2915.16596755 0 6828
0.08050000 0.08048110 26436.94707649 0 -369.37275595 0 6662.20677105 0 690.51335776 0 -3192.23982381 0 7147
0.08150000 0.08149960 26196.89907442 0 548.03025306 0 5966.14507133 0 -1041.90687267 0 -4129.17994997 0 7386
0.08250000 0.08250610 25845.79565442 0 1088.79816827 0 6622.77822238 0 -713.49839685 0 -3454.66499434 0 7227
0.08350000 0.08350160 24755.72527603 0 583.12398657 0 7241.88726461 0 -407.40397724 0 -2723.53724192 0 7798
0.08450000 0.08449610 24220.04620130 0 1301.40784221 0 7191.33102949 0 -379.78517021 0 -2656.37251957 0 7371
0.08550000 0.08548940 24051.74686406 0 751.04465031 0 8863.49566825 0 459.54687651 0 -748.67960173 0 8256
0.08650000 0.08650700 22904.87545934 0 812.25246191 0 8858.49097743 0 915.52514272 0 -296.10607539 0 8037
0.08750000 0.08749060 22786.29086053 0 516.55606253 0 8864.09357379 0 924.54465852 0 557.18928015 0 8155
0.08850000 0.08849210 21884.45000405 0 709.39942220 0 9821.83859828 0 156.57817419 0 -150.37324336 0 8718
0.08950000 0.08949900 21724.23346393 0 797.09555646 0 9581.83488551 0 562.97124817 0 143.80071135 0 8571
0.09050000 0.09049190 20571.93662005 0 510.21272764 0 8982.67817260 0 1027.11203224 0 1051.15226389 0 8932
0.09150000 0.09150830 20531.30118797 0 483.55278394 0 8305.71623319 0 930.94224780 0 874.66162075 0 9285
0.09250000 0.09250820 19927.85948535 0 195.04010891 0 7971.89671223 0 1357.71061391 0 391.92597437 0 9204
0.09350000 0.09350330 19034.43359573 0 531.19146148 0 6667.69864416 0 961.98572489 0 1112.64684870 0 9349
0.09450000 0.09448040 19267.83820291 0 499.24669714 0 6993.31357243 0 791.64686542 0 1377.69616021 0 9564
0.09550000 0.09549270 18316.17188475 0 378.52624688 0 6315.80908910 0 1204.28140890 0 2223.92072912 0 10155
0.09650000 0.09649430 17989.75974910 0 234.33136076 0 5866.51629261 0 478.92012324 0 2216.71264567 0 9913
0.09750000 0.09749140 17892.76618368 0 250.25668555 0 5874.69874065 0 542.95580660 0 1848.13709710 0 10476
0.09850000 0.09850240 17904.94574098 0 -3.14013346 0 5898.32708182 0 -57.77926622 0 1107.65323021 0 10575
0.09950000 0.09950330 17712.39801239 0 51.15613368 0 5769.48951023 0 -816.60942172 0 466.99855111 0 10882
0.10050000 0.10051200 17895.09137190 0 350.92183387 0 5605.48623501 0 -327.02332798 0 796.71688295 0 10875
0.10150000 0.10150300 17474.45375204 0 44.47620012 0 5951.11992655 0 -464.44527301 0 564.30989224 0 11118
0.10250000 0.10250800 17556.83184869 0 200.67260055 0 6223.60984034 0 342.91875749 0 -131.21037080 0 11575
0.10350000 0.10349800 17233.29851749 0 755.79799935 0 5753.87753223 0 514.31613122 0 -199.74695419 0 11364
0.10450000 0.10450100 16599.40792162 0 626.56182407 0 6382.50877381 0 547.07914036 0 70.22566655 0 12093
0.10550000 0.10551000 16017.00363616 0 424.44539237 0 5971.06118355 0 319.66687537 0 632.20649526 0 12067
0.10650000 0.10649700 15994.85898652 0 -136.02793933 0 6251.65603910 0 696.41379965 0 943.43072296 0 12054
0.10750000 0.10749900 16099.49245606 0 87.25390561 0 5992.57471067 0 -505.22243085 0 653.62812209 0 12807
0.10850000 0.10850100 15901.29784180 0 330.24426727 0 6162.49060734 0 253.92494676 0 1005.41691899 0 12736
0.10950000 0.10950300 16007.81360656 0 165.53236327 0 5966.61010897 0 -330.81449200 0 1056.76482534 0 12933
0.11050000 0.11050200 15766.10475577 0 -27.60164492 0 5323.93915952 0 319.65469582 0 783.75894122 0 13428
0.11150000 0.11150900 15880.70331764 0 141.47330867 0 5928.27772045 0 112.83474053 0 -366.12967201 0 13453
0.11250000 0.11250000 15714.83989186 0 212.82115534 0 5544.61059316 0 141.63385738 0 9.90325340 0 13668
0.11350000 0.11349100 15345.79930565 0 218.59758720 0 5314.14015206 0 490.59699699 0 -149.88384661 0 13791
0.11450000 0.11448600 15171.52091301 0 25.34322283 0 5088.85155897 0 272.14556449 0 11.47402876 0 14205
0.11550000 0.11549300 15130.55331118 0 152.33525932 0 4810.50438536 0 867.46682408 0 -114.31289589 0 14776
0.11650000 0.11649800 15197.65159958 0 48.31730032 0 4439.60364858 0 846.65749682 0 -346.65234542 0 14553
0.11750000 0.11747300 14667.06579427 0 174.20088637 0 3828.26737837 0 514.32166738 0 -119.09171128 0 14568
0.11850000 0.11849100 14763.50574344 0 302.97866741 0 3871.60445771 0 625.55867144 0 210.93664566 0 16015
0.11950000 0.11950300 14421.26018329 0 228.19507835 0 3973.25947187 0 -54.51492341 0 231.66735941 0 15270
0.12050000 0.12050700 14114.66750907 0 459.02647724 0 3926.57855044 0 -226.63720225 0 681.70753783 0 15999
0.12150000 0.12150000 13917.91229704 0 346.11423044 0 4340.11881009 0 81.69637361 0 930.79720034 0 15670
0.12250000 0.12250700 13599.36151201 0 266.09011004 0 4163.81418200 0 80.39969365 0 1218.28789980 0 16887
0.12350000 0.12352200 13213.93388507 0 468.55864168 0 4401.24911541 0 233.33042260 0 1653.95066443 0 16407
0.12450000 0.12449800 13131.00217218 0 69.78675959 0 4235.21960476 0 174.25514076 0 606.81543999 0 16306
0.12550000 0.12549900 12924.50331431 0 111.67436089 0 4336.01097758 0 411.93145086 0 1472.96244295 0 17523
0.12650000 0.12650100 12897.59756500 0 260.60598756 0 3840.91197331 0 22.18617086 0 554.05581223 0 17154
0.12750000 0.12750600 12797.28230214 0 -48.92262432 0 4004.15125812 0 -121.71253057 0 1098.47980910 0 18007
0.12850000 0.12850300 12821.30924700 0 -6.50872220 0 3904.62213032 0 1.50362171 0 924.99087321 0 17496
0.12950000 0.12949900 12948.75170566 0 -7.62014003 0 4165.00999308 0 -64.97439505 0 -68.16787498 0 18405
0.13050000 0.13049000 12772.48029455 0 298.43237084 0 4038.49760970 0 -483.11874881 0 175.52624365 0 18100
0.13150000 0.13148800 12630.53309037 0 447.06393751 0 4771.40800642 0 -204.67303151 0 497.63235218 0 19059
0.13250000 0.13249300 12537.41483865 0 40.38353669 0 4331.09486536 0 -100.84141973 0 612.10136786 0 18957
0.13350000 0.13349100 12473.19535470 0 -17.08304707 0 4442.17242794 0 733.40975857 0 495.96375283 0 19468
0.13450000 0.13450700 12466.10906682 0 55.26606993 0 4338.84549273 0 -62.35479373 0 39.08552806 0 19953
0.13550000 0.13551000 12225.83961825 0 354.00436910 0 4138.14853307 0 443.92493342 0 -419.21261166 0 19956
0.13650000 0.13649900 11922.56864147 0 263.11940529 0 4339.06693923 0 -212.08263127 0 -149.04013545 0 19723
0.13750000 0.13749600 11698.46478714 0 168.42334728 0 4147.16140547 0 84.74203800 0 98.68120916 0 20946
0.13850000 0.13851100 11581.98393005 0 181.29271042 0 4126.27900087 0 235.85823436 0 -86.12032099 0 20955
0.13950000 0.13949800 11595.60288958 0 87.15514047 0 3960.89168505 0 490.25264769 0 -115.42455730 0 20506
0.14050000 0.14048300 11354.55837827 0 153.47681601 0 3860.12245688 0 319.93593287 0 7.12375663 0 21447
0.14150000 0.14148400 11240.29198615 0 272.01712552 0 3853.04724132 0 31.47817657 0 65.76041939 0 21771
0.14250000 0.14249400 10997.17695010 0 253.92162507 0 3745.37995478 0 149.86170196 0 181.28163809 0 22470
0.14350000 0.14350900 11021.95681305 0 32.37381692 0 3736.02384031 0 72.70885683 0 71.12761813 0 22519
0.14450000 0.14449900 10847.25767206 0 105.95185125 0 3498.94322129 0 63.49181076 0 -41.73380671 0 22218
0.14550000 0.14550500 10837.90155759 0 221.74877084 0 3716.41475305 0 -119.44048952 0 266.70683853 0 23559
0.14650000 0.14650700 10600.02373118 0 63.41275436 0 3399.64661232 0 89.62991579 0 -70.71340245 0 23044
0.14750000 0.14750500 10688.34766626 0 -15.96418865 0 3288.28116929 0 583.73960783 0 165.25555515 0 23649
0.14850000 0.14849900 10649.28450430 0 -149.85505856 0 3058.08753631 0 763.53976887 0 179.17457468 0 23640
0.14950000 0.14949500 10715.78488716 0 -83.01143363 0 2722.86183010 0 832.53142481 0 165.93650313 0 24457
0.15050000 0.15050000 10780.90122942 0 121.04154768 0 2365.25895543 0 345.68794593 0 448.97944970 0 24591
0.15150000 0.15149900 10577.90122619 0 215.61470289 0 2430.05420027 0 57.14836515 0 64.76534956 0 25020
0.15250000 0.15250500 10307.93580247 0 453.70401070 0 2519.02033019 0 -534.05808637 0 611.26097840 0 25297
0.15350000 0.15350100 9960.82949173 0 455.21316857 0 2695.44675385 0 -333.55378516 0 765.69665774 0 25452
0.15450000 0.15450400 9747.18898435 0 378.25608215 0 2896.91877625 0 -61.22320213 0 1146.17384825 0 26061
0.15550000 0.15549900 9485.47244261 0 28.84063807 0 2856.11725929 0 428.57426229 0 988.44968844 0 26128
0.15650000 0.15649500 9503.74177856 0 -99.60530539 0 2919.30701703 0 588.99342596 0 1099.40545545 0 26331
0.15750000 0.15749700 9566.38899239 0 -27.24633402 0 2681.76136038 0 527.11573871 0 1023.13485317 0 27345
0.15850000 0.15849900 9421.79550258 0 134.55753459 0 2558.36030027 0 300.60254650 0 1037.74921470 0 26980
0.15950000 0.15949700 9330.64812467 0 154.71027299 0 2504.91418837 0 -60.13944298 0 1022.20034895 0 27777
0.16050000 0.16050000 9190.49463712 0 184.09179413 0 2440.39575165 0 -291.36490591 0 935.05008031 0 28224
0.16150000 0.16150500 9054.58184997 0 268.39979700 0 2731.37644789 0 -422.67271316 0 1211.96560232 0 28075
0.16250000 0.16249700 8945.77411398 0 134.14785857 0 2856.32763347 0 -182.98234719 0 892.92874223 0 28590
0.16350000 0.16349900 8992.84256678 0 -42.02954850 0 3058.77402045 0 -195.12868751 0 711.33929351 0 29163
0.16450000 0.16449100 8946.69311694 0 6.01665702 0 3001.37508859 0 -29.41817053 0 296.17804550 0 28996
0.16550000 0.16550500 8860.92688889 0 202.80845201 0 3090.16406131 0 -38.94812051 0 347.80829613 0 30777
0.16650000 0.16650700 8882.92759831 0 116.33248794 0 3131.65206241 0 75.04711039 0 515.36468038 0 29211
0.16750000 0.16749900 8795.01333925 0 -53.20263148 0 2813.58845967 0 189.03558716 0 256.36307269 0 30922
0.16850000 0.16850800 8742.74089378 0 83.94793086 0 2850.28214412 0 187.05253379 0 -137.11967055 0 30867
0.16950000 0.16949900 8577.61931376 0 212.58642205 0 2857.47915525 0 -139.54340246 0 -139.16583618 0 30852
0.17050000 0.17049200 8562.78239850 0 277.03510312 0 2772.39941134 0 145.39180443 0 -100.43163299 0 31257
0.17150000 0.17149500 8197.03029277 0 149.48967184 0 2645.44413497 0 -154.40799853 0 182.28589795 0 32608
0.17250000 0.17250900 8226.93664210 0 51.57189948 0 2709.06571338 0 -11.89931676 0 -233.59394393 0 32361
0.17350000 0.17350400 8124.86087960 0 131.31998681 0 2655.98498820 0 181.93933419 0 -1.29516305 0 32508
0.17450000 0.17449800 7989.72315519 0 153.69715527 0 2601.63094566 0 210.40517406 0 85.02061769 0 32791
0.17550000 0.17549800 7946.45250980 0 45.64211592 0 2314.10481477 0 404.64918282 0 79.92159067 0 33633
0.17650000 0.17650100 7849.06034069 0 8.38765144 0 2025.49359605 0 343.90862333 0 -119.32090841 0 33984
0.17750000 0.17750300 7851.50732448 0 68.09756572 0 1995.35472789 0 341.40295623 0 246.55963629 0 34069
0.17850000 0.17849800 7772.81631199 0 28.20076842 0 1891.50739342 0 190.05091935 0 199.51554260 0 34536
