### header ###
fiducial parameters:
Omega_m = 0.31
Omega_nu = 0
Omega_de = 0.69
Omega_k = 0
H_0 = 100
w_de = -1
zeff = 0
beta = 0
fgrowth = 0
b_1 = 2
gamma = 0.55
Lx = 3500 Ly = 3500 Lz = 3500
nx = 700 ny = 700 nz = 700
xoffset = -685.467585 yoffset = -31.7331281 zoffset = 572.489161
bins = 400 dk = 0.001
kx_ny = 0.628318531 ky_ny = 0.628318531 kz_ny = 0.628318531
############################
A(data) = 8.04764868 (not used)
A(ran) = 8.04752075 (used)
Ngal = 478599
weighted Ngal = 0
Nran = 23820508
weighted Nran = 0
SN(data) = 3485.42577
SN(ran) = 70.0968243
SN(data+ran) = 3555.52259
############################
13 columns: k_central k_mean P_0(k) sigma^{lin}_{P_0(k)} P^img_1(k) sigma^{lin}_{P_1(k)} P_2(k) sigma^{lin}_{P_2(k)} P^img_3(k) sigma^{lin}_{P_3(k)} P_4(k) sigma^{lin}_{P_4(k)} N_modes
### header ###
0.00050000 0 0 0 0 0 0 0 0 0 0 0 0
0.00150000 0.00179520 12581.59341468 0 -33784.32037965 0 -2816.17938367 0 -24922.14231805 0 9112.83335084 0 3
0.00250000 0.00253879 34864.42566571 0 -49832.65869504 0 -22241.86464920 0 -21095.98975372 0 -46621.46305114 0 6
0.00350000 0.00331552 59594.68459465 0 -42892.41477546 0 -24076.99176464 0 27728.20159684 0 23074.50347556 0 7
0.00450000 0.00420575 82892.84903155 0 -26308.17593885 0 -29718.78415274 0 -25937.69595042 0 -5953.91015241 0 24
0.00550000 0.00557378 101446.63300690 0 -4460.92894618 0 -54796.71408098 0 -28689.27939110 0 5232.83607092 0 45
0.00650000 0.00659388 81327.55447194 0 -10198.99519858 0 -50004.72262272 0 -49757.92050251 0 -27433.56703342 0 40
0.00750000 0.00754703 98162.13857270 0 -4549.20859196 0 -53759.01579898 0 -33203.02332667 0 -20875.65048983 0 57
0.00850000 0.00846663 108128.44886521 0 -2270.07017897 0 -53780.38538588 0 -59779.26024938 0 -29161.73549111 0 75
0.00950000 0.00948925 92261.58595360 0 19112.16131596 0 -37412.72122272 0 -50974.10466059 0 -2760.33057729 0 112
0.01050000 0.01054430 85786.82256940 0 21033.32039525 0 -5253.75169250 0 -53540.55883031 0 -20556.87825830 0 105
0.01150000 0.01145670 63379.20521766 0 12588.67970256 0 -1240.59863431 0 -14615.57948386 0 2327.34731526 0 144
0.01250000 0.01249090 63511.18732950 0 -671.94506904 0 25095.53492471 0 9601.88686576 0 -20187.06260936 0 169
0.01350000 0.01339930 61079.37262958 0 -5814.64245084 0 17436.58640116 0 -2061.26827754 0 -43537.37769615 0 180
0.01450000 0.01448870 63704.73156733 0 -1078.61605837 0 30085.49955073 0 604.35849111 0 -36274.59695461 0 267
0.01550000 0.01550050 60883.94609653 0 10860.97628251 0 21826.20957551 0 -4853.77503075 0 -7855.84767580 0 238
0.01650000 0.01653350 61822.54707141 0 1017.29198736 0 21350.65322455 0 -8459.37795702 0 -16763.72122193 0 315
0.01750000 0.01747870 64135.55572602 0 -7767.90019977 0 11384.34293204 0 -3825.87575621 0 -16295.80477509 0 297
0.01850000 0.01844180 69681.57250444 0 -4977.20930783 0 14547.59540947 0 8508.10725855 0 -20299.77887601 0 388
0.01950000 0.01947590 75142.88599798 0 -1639.33519567 0 21805.39360485 0 5397.26009447 0 -1849.80901815 0 399
0.02050000 0.02045430 73410.28861036 0 4352.71911573 0 17398.94049677 0 8074.83611607 0 5089.71520031 0 462
0.02150000 0.02154770 68612.09665020 0 6962.25570132 0 23864.62457462 0 5755.33907911 0 17518.30015832 0 571
0.02250000 0.02255340 68717.61590572 0 272.78554486 0 11368.17733780 0 12731.06979973 0 16707.91670484 0 510
0.02350000 0.02348930 67601.96845700 0 -4793.03225679 0 28090.15589516 0 8238.47400456 0 14224.61569451 0 555
0.02450000 0.02439640 70321.55287895 0 -4336.17706245 0 19722.24641347 0 8666.89546877 0 16973.54177724 0 592
0.02550000 0.02547300 72498.59338480 0 687.85599980 0 15175.61767319 0 2118.14681013 0 748.17248925 0 837
0.02650000 0.02652900 69193.94731942 0 4142.86534344 0 9183.70730200 0 -4688.42093191 0 2830.30767014 0 723
0.02750000 0.02749970 67225.73085966 0 2545.23959536 0 7304.93308213 0 -4399.86507481 0 -14364.01626398 0 826
0.02850000 0.02848090 65375.32393597 0 3419.21141027 0 17294.41775048 0 -7261.91710021 0 -7302.02106070 0 831
0.02950000 0.02946900 61881.34111620 0 4678.83229862 0 22100.36033802 0 -1670.42628377 0 -17530.03682263 0 996
0.03050000 0.03053250 58543.58879961 0 3553.38584242 0 26607.46087870 0 -1331.76815686 0 -4858.10430975 0 1041
0.03150000 0.03150510 57905.82289006 0 3582.38426112 0 26983.36630629 0 -2984.98804786 0 993.69575594 0 1036
0.03250000 0.03246190 56104.46636531 0 382.56764544 0 30793.24255314 0 8574.91766650 0 2540.51171266 0 1059
0.03350000 0.03345080 54055.75410412 0 2509.95209616 0 28464.73264378 0 4288.89823548 0 4405.08013980 0 1302
0.03450000 0.03451200 54147.43295362 0 3547.34035307 0 25952.42214243 0 6908.69886617 0 4584.83933323 0 1339
0.03550000 0.03553350 49448.89191683 0 1405.02265786 0 25195.18584808 0 5437.95088818 0 5532.23173401 0 1365
0.03650000 0.03647120 45198.11569570 0 2573.19721553 0 16745.56260922 0 1427.85379164 0 1003.22902761 0 1308
0.03750000 0.03744890 46506.08942653 0 -954.88172129 0 21472.89169055 0 5165.47204672 0 790.30268519 0 1579
0.03850000 0.03847530 46354.28785326 0 93.84171743 0 13629.92112851 0 -381.44712616 0 -4397.93849029 0 1662
0.03950000 0.03950240 46177.79499565 0 -65.35949051 0 16435.31606781 0 3299.86282105 0 566.68269145 0 1683
0.04050000 0.04050350 46390.38363217 0 1153.31549776 0 15394.51753485 0 -3419.68752024 0 -3022.73360317 0 1822
0.04150000 0.04152450 45461.85847288 0 2449.91795100 0 16302.44816998 0 -405.01899847 0 -2433.36482539 0 1887
0.04250000 0.04250150 42628.22910529 0 2666.57013072 0 19617.94511368 0 -1536.78332320 0 931.99744035 0 1920
0.04350000 0.04349210 41795.03666269 0 2059.65171811 0 17927.20111387 0 -224.77926614 0 514.85756790 0 2005
0.04450000 0.04448520 39935.21826290 0 1023.72500808 0 20383.48565164 0 1299.23766654 0 -3351.96918165 0 2151
0.04550000 0.04548030 39614.34228966 0 1317.10839880 0 18628.18999814 0 475.34265509 0 -5384.78158440 0 2274
0.04650000 0.04648670 38049.15845329 0 1169.13784993 0 18328.68361179 0 1500.43288082 0 -4088.15698652 0 2311
0.04750000 0.04749250 36812.93338729 0 1477.86748284 0 15823.45939833 0 4481.70062754 0 -1364.32079183 0 2568
0.04850000 0.04851840 36466.36962047 0 -783.34262180 0 13381.34743633 0 4734.67003268 0 249.37311403 0 2493
0.04950000 0.04949480 37409.62097177 0 -2074.57721197 0 10095.85649289 0 5033.42350093 0 -115.92724085 0 2644
0.05050000 0.05050630 38524.93625075 0 -1046.59157330 0 12897.04394876 0 3690.83768272 0 -522.89053956 0 2829
0.05150000 0.05149060 38545.97366791 0 1361.33126413 0 11262.76880553 0 1074.34656992 0 3354.74833518 0 2784
0.05250000 0.05249300 36213.14555186 0 1792.52080954 0 13423.09010089 0 -3615.28013816 0 3698.11220013 0 3055
0.05350000 0.05348950 35312.41192787 0 2839.71914624 0 14889.50879987 0 -2098.24984243 0 6559.36701814 0 3009
0.05450000 0.05448610 34576.76666692 0 1665.31086970 0 16252.84415479 0 94.08685870 0 3755.13467294 0 3336
0.05550000 0.05550870 31801.70989762 0 1163.41345799 0 15011.63654262 0 1188.20439326 0 5655.38920297 0 3349
0.05650000 0.05647670 33357.92515088 0 -539.62968022 0 15751.26784051 0 1432.61489131 0 3728.71610593 0 3324
0.05750000 0.05747970 31983.29602465 0 -587.88287178 0 13530.27020514 0 2321.68935727 0 2386.97178440 0 3639
0.05850000 0.05849280 34556.61503575 0 -1059.17969938 0 13484.87367338 0 2896.95199323 0 3519.55989010 0 3846
0.05950000 0.05951020 32977.81223986 0 -181.60494998 0 12044.69638422 0 2379.04399983 0 3483.61912374 0 3787
0.06050000 0.06049470 33811.44757545 0 1500.66539965 0 11110.74578577 0 1695.71547365 0 4545.41078455 0 3930
0.06150000 0.06148310 31987.28206158 0 522.49968649 0 10527.00174900 0 973.95490802 0 4245.25113104 0 4083
0.06250000 0.06249100 31760.85301904 0 605.05826204 0 8915.65739047 0 1305.90320609 0 3063.28045665 0 4303
0.06350000 0.06350600 31530.54866281 0 183.69651214 0 9852.08818968 0 -1401.87811761 0 1582.68918190 0 4470
0.06450000 0.06451750 30994.98031133 0 221.69340922 0 10042.44359796 0 -2484.04285609 0 -156.30247330 0 4479
0.06550000 0.06550280 30570.91027078 0 1146.77175379 0 9730.45870155 0 -2969.25427429 0 -3417.32911505 0 4636
0.06650000 0.06648880 30315.91463021 0 733.38318499 0 10628.67890781 0 -2150.97625322 0 -3477.86151484 0 4653
0.06750000 0.06749660 29965.80771944 0 104.25523892 0 11155.69942453 0 -1362.56029218 0 -6104.49376994 0 5220
0.06850000 0.06852730 29930.48700327 0 -44.42039560 0 11880.38308391 0 -307.48731807 0 -6751.40541979 0 5029
0.06950000 0.06949320 30291.77696210 0 521.84641933 0 12292.71646016 0 1911.37114414 0 -5472.55190324 0 5040
0.07050000 0.07048030 30641.33025663 0 -394.36188583 0 11877.39355621 0 2426.32282681 0 -4700.94373128 0 5475
0.07150000 0.07148790 30109.41577234 0 -327.88364762 0 8794.61473555 0 3146.90972601 0 -1414.40091698 0 5509
0.07250000 0.07249820 30419.55159051 0 377.23299934 0 10559.52116700 0 1453.96233356 0 -2128.58801244 0 5916
0.07350000 0.07351270 29756.98367336 0 932.20670729 0 9875.81618177 0 281.22929977 0 -935.34017522 0 5721
0.07450000 0.07449140 28736.22604833 0 1325.83339076 0 9124.22677308 0 1067.82497060 0 -561.38458403 0 6028
0.07550000 0.07549160 27121.54892003 0 1327.00705719 0 8725.37948846 0 260.23063575 0 -529.92700198 0 6183
0.07650000 0.07648840 26328.77046301 0 716.67726130 0 9173.49861852 0 414.52569656 0 317.01283912 0 6330
0.07750000 0.07749960 26113.52446854 0 519.26546041 0 8975.04934080 0 387.93218681 0 -1821.13169687 0 6583
0.07850000 0.07848650 25862.18269515 0 123.86166882 0 9032.49256196 0 -7.71813010 0 -87.43770620 0 6549
0.07950000 0.07947320 25214.34097001 0 571.34192573 0 7990.56465187 0 -132.44050609 0 -1198.80060811 0 6828
0.08050000 0.08048110 25314.32406313 0 667.57260797 0 9446.38713600 0 -485.39854049 0 -654.10423206 0 7147
0.08150000 0.08149960 24617.09976930 0 647.59370506 0 9014.17893671 0 -297.65177194 0 -862.59278669 0 7386
0.08250000 0.08250610 23860.19564469 0 580.99699298 0 9468.49856867 0 618.89534637 0 -41.27485884 0 7227
0.08350000 0.08350160 23562.57155357 0 393.24468826 0 8691.35423429 0 1178.41645812 0 -219.27742794 0 7798
0.08450000 0.08449610 22746.87338418 0 921.38240255 0 9190.01852715 0 1268.98807514 0 -84.60274815 0 7371
0.08550000 0.08548940 22576.13813548 0 639.15548632 0 7971.28773436 0 1451.94717044 0 505.84026657 0 8256
0.08650000 0.08650700 21562.57752158 0 -40.71183113 0 7522.21638437 0 679.94593095 0 2041.08342939 0 8037
0.08750000 0.08749060 21577.08226709 0 302.00762452 0 6778.04543331 0 1455.36851881 0 1558.76188797 0 8155
0.08850000 0.08849210 21835.28888186 0 14.82462498 0 7457.26612698 0 334.44178561 0 2140.97794391 0 8718
0.08950000 0.08949900 21449.75053167 0 213.03485121 0 7083.04369276 0 558.81580467 0 3001.31972697 0 8571
0.09050000 0.09049190 20723.40602357 0 449.64821812 0 7218.12605555 0 332.83851298 0 2867.28923504 0 8932
0.09150000 0.09150830 20617.77604480 0 571.62980618 0 6451.82152718 0 933.57746111 0 2351.69535753 0 9285
0.09250000 0.09250820 20345.72902401 0 429.71581898 0 6798.07526890 0 377.24960783 0 2411.67414107 0 9204
0.09350000 0.09350330 20045.44757493 0 320.97673140 0 5967.37409939 0 -359.49845668 0 860.51672579 0 9349
0.09450000 0.09448040 19614.51269298 0 476.21736875 0 5658.68875577 0 -224.35851780 0 2007.45677892 0 9564
0.09550000 0.09549270 19054.58522690 0 683.32852618 0 5326.27542006 0 -430.46873707 0 948.10656573 0 10155
0.09650000 0.09649430 18465.75899305 0 198.72719308 0 5193.73969198 0 482.49316246 0 652.34594688 0 9913
0.09750000 0.09749140 18408.18290399 0 -52.71866016 0 5472.23080582 0 298.86640597 0 -195.72991475 0 10476
0.09850000 0.09850240 18184.30049616 0 353.57919183 0 5257.16196854 0 125.68749518 0 -882.60047764 0 10575
0.09950000 0.09950330 17726.79203465 0 663.55999745 0 5068.24596249 0 -318.45888474 0 -77.97009342 0 10882
0.10050000 0.10051200 17529.37248314 0 405.65897885 0 6228.03877027 0 -512.53348693 0 330.89310551 0 10875
0.10150000 0.10150300 16998.67595458 0 393.61339668 0 5988.22328702 0 161.20972766 0 530.05322649 0 11118
0.10250000 0.10250800 17235.95587544 0 80.04836879 0 6236.78590687 0 203.03211297 0 326.82845507 0 11575
0.10350000 0.10349800 16835.02699376 0 237.09944197 0 6583.77042204 0 389.16564380 0 -61.39736980 0 11364
0.10450000 0.10450100 16792.84143620 0 399.71314042 0 6150.52142421 0 716.12143060 0 813.18032273 0 12093
0.10550000 0.10551000 16322.37835466 0 304.74691768 0 6085.19470778 0 575.29142400 0 1544.47858895 0 12067
0.10650000 0.10649700 16126.06603562 0 349.01739400 0 5543.60301160 0 656.68408374 0 1802.26445538 0 12054
0.10750000 0.10749900 15915.24897107 0 251.95296571 0 5910.68379631 0 334.34656362 0 1544.95469892 0 12807
0.10850000 0.10850100 15481.32456143 0 392.83944117 0 5254.30530874 0 -47.90607418 0 1844.85968896 0 12736
0.10950000 0.10950300 15400.49659026 0 -27.63076514 0 5290.99899319 0 192.35617738 0 1457.48333285 0 12933
0.11050000 0.11050200 15309.48208025 0 231.48577329 0 5398.19016976 0 165.57665257 0 1312.42480540 0 13428
0.11150000 0.11150900 15101.76526665 0 154.53975919 0 5445.25862256 0 166.41150586 0 1208.41138606 0 13453
0.11250000 0.11250000 15143.95082421 0 22.30398039 0 5240.61991526 0 308.00550288 0 1169.62503222 0 13668
0.11350000 0.11349100 14968.01158284 0 242.10856172 0 4814.73401344 0 407.48037628 0 492.92661414 0 13791
0.11450000 0.11448600 14695.74311555 0 300.61029713 0 4841.40724393 0 47.95789266 0 570.22804986 0 14205
0.11550000 0.11549300 14549.92059769 0 185.93312175 0 5018.40942848 0 -348.56010699 0 -332.95587962 0 14776
0.11650000 0.11649800 14319.50551821 0 359.53499535 0 4747.99003943 0 -364.47657392 0 181.96701500 0 14553
0.11750000 0.11747300 14046.46198818 0 120.70827071 0 4679.85095250 0 -328.86465560 0 -314.53374559 0 14568
0.11850000 0.11849100 14158.73536184 0 14.50153454 0 4780.83055484 0 -18.26955740 0 -635.77399832 0 16015
0.11950000 0.11950300 14131.60816604 0 -9.18158142 0 4660.85084311 0 147.34274806 0 -1033.95805068 0 15270
0.12050000 0.12050700 14138.47300743 0 182.01462600 0 4446.80065972 0 448.74803811 0 -1390.92758837 0 15999
0.12150000 0.12150000 13959.65496160 0 -19.60011867 0 4516.27949795 0 -127.83552619 0 -981.29364491 0 15670
0.12250000 0.12250700 14009.03753030 0 182.79965383 0 4106.68098594 0 246.99034973 0 -2208.72949947 0 16887
0.12350000 0.12352200 13862.66139619 0 159.69835532 0 4180.24551203 0 4.38992213 0 -986.47881462 0 16407
0.12450000 0.12449800 13605.56201390 0 226.78778587 0 3821.50218791 0 419.01552427 0 -1235.92611323 0 16306
0.12550000 0.12549900 13611.31962281 0 -7.84330273 0 3922.11640353 0 467.05612720 0 -804.39000405 0 17523
0.12650000 0.12650100 13557.28667770 0 64.04742002 0 3852.49362507 0 595.46187812 0 -1211.11303331 0 17154
0.12750000 0.12750600 13526.94850769 0 269.61775273 0 3938.30414242 0 -137.52602487 0 -665.34153451 0 18007
0.12850000 0.12850300 13135.43110210 0 525.88781789 0 3863.95348126 0 -94.79183362 0 -7.05271660 0 17496
0.12950000 0.12949900 13001.45597180 0 255.10525659 0 4240.50110369 0 148.69689338 0 123.50624719 0 18405
0.13050000 0.13049000 12594.76948121 0 72.81337958 0 4630.12514174 0 -216.24471817 0 311.32941479 0 18100
0.13150000 0.13148800 12577.16448475 0 176.84938647 0 4430.05930459 0 439.60783397 0 -57.67407913 0 19059
0.13250000 0.13249300 12529.22131828 0 159.05283879 0 4300.36916399 0 231.77918989 0 77.66028977 0 18957
0.13350000 0.13349100 12143.35079835 0 338.01150313 0 3840.79017774 0 155.01697639 0 -203.38421290 0 19468
0.13450000 0.13450700 11987.45246491 0 135.39017342 0 3928.79301540 0 201.15313945 0 124.57361930 0 19953
0.13550000 0.13551000 11758.80895740 0 71.55013804 0 3223.98417907 0 356.02949731 0 -120.06718310 0 19956
0.13650000 0.13649900 11871.41450081 0 152.91102021 0 3545.51341948 0 322.51578455 0 -502.67358167 0 19723
0.13750000 0.13749600 11647.31064648 0 226.03818948 0 3160.84978295 0 -39.00613949 0 -128.29281321 0 20946
0.13850000 0.13851100 11385.78233426 0 351.39019321 0 3609.56681855 0 216.06091758 0 354.14830932 0 20955
0.13950000 0.13949800 11228.99821483 0 111.21375218 0 2934.13285997 0 341.30884146 0 870.55821717 0 20506
0.14050000 0.14048300 11274.61619308 0 -236.56797038 0 3290.89423795 0 757.36251885 0 352.43542067 0 21447
0.14150000 0.14148400 11173.63659074 0 131.37202674 0 3111.51150356 0 752.00129917 0 98.69194932 0 21771
0.14250000 0.14249400 11071.91514263 0 449.91284668 0 2699.48815241 0 -188.22509299 0 414.33635981 0 22470
0.14350000 0.14350900 10588.36457315 0 448.73807302 0 2791.79812442 0 -356.10146742 0 891.70303587 0 22519
0.14450000 0.14449900 10435.76579250 0 211.27656603 0 2750.40977425 0 -73.09273433 0 960.49206828 0 22218
0.14550000 0.14550500 10337.08923371 0 -12.33124815 0 2850.57002456 0 -29.94632043 0 733.69431732 0 23559
0.14650000 0.14650700 10467.21119498 0 -57.95863788 0 3169.59691956 0 -143.01014736 0 244.11043804 0 23044
0.14750000 0.14750500 10413.49934729 0 120.73152259 0 3116.59370065 0 -70.63412461 0 435.07482419 0 23649
0.14850000 0.14849900 10488.34826306 0 111.29347291 0 3175.34345614 0 132.56340889 0 743.62951438 0 23640
0.14950000 0.14949500 10336.95636582 0 72.08570639 0 3039.95106826 0 -82.04205159 0 863.17408375 0 24457
0.15050000 0.15050000 10378.20077577 0 52.73205767 0 3359.02225256 0 556.25366870 0 883.93690725 0 24591
0.15150000 0.15149900 10338.32933409 0 102.64454783 0 3264.55317720 0 191.37074047 0 693.52724457 0 25020
0.15250000 0.15250500 10169.81962268 0 204.29989416 0 3103.00795810 0 293.74877744 0 824.00684193 0 25297
0.15350000 0.15350100 9851.19133137 0 132.37960830 0 3001.39723324 0 40.12544080 0 895.27718233 0 25452
0.15450000 0.15450400 9864.72171230 0 174.24739014 0 2885.72465586 0 60.99212271 0 119.04631475 0 26061
0.15550000 0.15549900 9645.33466834 0 168.47649444 0 2772.04509695 0 -140.06601619 0 327.24588171 0 26128
0.15650000 0.15649500 9514.16083622 0 224.01084680 0 2647.84682946 0 -185.10601909 0 -237.52351201 0 26331
0.15750000 0.15749700 9355.43905994 0 97.71570244 0 2417.98536622 0 -22.69726937 0 -71.18818374 0 27345
0.15850000 0.15849900 9274.76610131 0 52.51625806 0 2499.17872412 0 201.67575318 0 -363.66829420 0 26980
0.15950000 0.15949700 9160.12325014 0 231.76590310 0 2515.82042832 0 274.88042872 0 -297.21330787 0 27777
0.16050000 0.16050000 9066.58425007 0 233.80099641 0 2506.35359060 0 248.32124317 0 -292.65926068 0 28224
0.16150000 0.16150500 8644.51830031 0 164.39523551 0 2341.73026519 0 63.26759618 0 168.00592064 0 28075
0.16250000 0.16249700 8686.23882023 0 187.93721254 0 2345.11839659 0 366.31679430 0 678.61393027 0 28590
0.16350000 0.16349900 8548.54338878 0 -23.22973747 0 2397.41298671 0 496.83735926 0 571.15591068 0 29163
0.16450000 0.16449100 8569.90190336 0 67.41739280 0 2034.44003450 0 359.12089040 0 516.50070091 0 28996
0.16550000 0.16550500 8416.46162602 0 129.54398591 0 1907.01972049 0 226.61837930 0 787.51910273 0 30777
0.16650000 0.16650700 8341.30268515 0 90.97819278 0 1639.62307612 0 261.43309022 0 903.93020417 0 29211
0.16750000 0.16749900 8308.26286789 0 10.95946461 0 1670.76952583 0 61.39703763 0 566.61072134 0 30922
0.16850000 0.16850800 8237.98682227 0 196.42525675 0 1438.33928324 0 -143.05775835 0 350.65720531 0 30867
0.16950000 0.16949900 8053.53296312 0 212.64731984 0 1762.47051998 0 -259.61501449 0 384.40897305 0 30852
0.17050000 0.17049200 7957.15944789 0 182.26818223 0 1668.68792877 0 -124.13847694 0 696.91980490 0 31257
0.17150000 0.17149500 7932.41280192 0 11.57999091 0 1950.64468028 0 42.63398671 0 278.99269015 0 32608
0.17250000 0.17250900 7871.75860657 0 -62.83754709 0 1814.20042154 0 94.06338537 0 234.29925102 0 32361
0.17350000 0.17350400 8081.56808956 0 -34.36428875 0 1927.20456863 0 63.33236928 0 307.60357748 0 32508
0.17450000 0.17449800 7986.45681936 0 54.58490051 0 1822.31643563 0 -97.42549680 0 350.05487084 0 32791
0.17550000 0.17549800 8010.37304097 0 36.60743104 0 1933.88118050 0 -107.90356995 0 212.99056191 0 33633
0.17650000 0.17650100 7975.82738754 0 108.06732963 0 1984.85816396 0 -148.15324224 0 17.23418430 0 33984
0.17750000 0.17750300 7901.80889613 0 152.89330449 0 2070.86798316 0 -210.36642093 0 195.50957549 0 34069
0.17850000 0.17849800 7850.44438129 0 91.95100724 0 2240.48492705 0 -177.57351651 0 73.38183274 0 34536
