### header ###
fiducial parameters:
Omega_m = 0.31
Omega_nu = 0
Omega_de = 0.69
Omega_k = 0
H_0 = 100
w_de = -1
zeff = 0
beta = 0
fgrowth = 0
b_1 = 2
gamma = 0.55
Lx = 3500 Ly = 3500 Lz = 3500
nx = 700 ny = 700 nz = 700
xoffset = -685.467585 yoffset = -31.7331281 zoffset = 572.489161
bins = 400 dk = 0.001
kx_ny = 0.628318531 ky_ny = 0.628318531 kz_ny = 0.628318531
############################
A(data) = 8.02356644 (not used)
A(ran) = 8.01850336 (used)
Ngal = 476767
weighted Ngal = 0
Nran = 23820508
weighted Nran = 0
SN(data) = 3492.96112
SN(ran) = 69.8440723
SN(data+ran) = 3562.80519
############################
13 columns: k_central k_mean P_0(k) sigma^{lin}_{P_0(k)} P^img_1(k) sigma^{lin}_{P_1(k)} P_2(k) sigma^{lin}_{P_2(k)} P^img_3(k) sigma^{lin}_{P_3(k)} P_4(k) sigma^{lin}_{P_4(k)} N_modes
### header ###
0.00050000 0 0 0 0 0 0 0 0 0 0 0 0
0.00150000 0.00179520 65439.54341992 0 -66300.85956756 0 -4723.90773295 0 85258.45122905 0 -75448.26071648 0 3
0.00250000 0.00253879 97680.82461284 0 -40984.21031622 0 27391.82436885 0 -45674.11493965 0 125659.81436682 0 6
0.00350000 0.00331552 109885.29464419 0 -4809.86219052 0 24804.99712147 0 -82303.02628846 0 -63978.32871360 0 7
0.00450000 0.00420575 99509.86194963 0 25965.59820896 0 25675.72474521 0 369.95626747 0 71230.25857682 0 24
0.00550000 0.00557378 86341.65676606 0 12770.48727608 0 37026.73997954 0 20311.62626357 0 -2866.01591768 0 45
0.00650000 0.00659388 90299.90216548 0 -1389.77606659 0 62850.72315407 0 14838.24393596 0 -2503.80695589 0 40
0.00750000 0.00754703 82406.88469526 0 14442.74049344 0 46621.57377438 0 24475.26328837 0 -24567.16358436 0 57
0.00850000 0.00846663 71439.08262290 0 12879.10678255 0 42877.46713696 0 17935.06246449 0 2997.86516162 0 75
0.00950000 0.00948925 59640.19184965 0 6213.23507198 0 29129.18285614 0 26665.25841425 0 3152.56768399 0 112
0.01050000 0.01054430 62033.58558245 0 2026.65619016 0 31298.14056487 0 32285.68121544 0 2797.40072078 0 105
0.01150000 0.01145670 52868.02582082 0 -928.19409678 0 8210.84855414 0 23155.44216999 0 -8935.33291167 0 144
0.01250000 0.01249090 54657.97785101 0 1489.89202760 0 1113.37762214 0 656.69404883 0 -23736.51777647 0 169
0.01350000 0.01339930 56216.40756923 0 -6271.20976473 0 -6762.18986417 0 -15604.22736692 0 -26043.65809893 0 180
0.01450000 0.01448870 57661.23523482 0 -3103.39548947 0 13848.15665068 0 -28471.48676192 0 -10790.43450109 0 267
0.01550000 0.01550050 63950.09428531 0 -1437.34277401 0 29417.17402468 0 -21436.57446514 0 -1153.72517378 0 238
0.01650000 0.01653350 68774.30620880 0 -2869.57013395 0 39612.01710144 0 -6575.18937030 0 -13324.98930300 0 315
0.01750000 0.01747870 80366.58740093 0 1167.88667722 0 45921.24922961 0 1716.73074616 0 6408.37372459 0 297
0.01850000 0.01844180 78151.12592796 0 -4451.86071216 0 38759.44809041 0 23935.04456047 0 -2846.39575810 0 388
0.01950000 0.01947590 79855.48888730 0 -2921.46612037 0 30570.02448479 0 28048.30250735 0 4172.25129351 0 399
0.02050000 0.02045430 84477.85232934 0 -824.40876732 0 27560.67732233 0 17833.97213890 0 -2857.85561429 0 462
0.02150000 0.02154770 78601.10520859 0 812.02990818 0 15072.64505238 0 5987.89111727 0 13028.58316760 0 571
0.02250000 0.02255340 85441.47675830 0 2577.05038457 0 5654.01623469 0 -4807.74737648 0 -2530.28088453 0 510
0.02350000 0.02348930 81081.52741447 0 1695.77083527 0 13579.54205058 0 -5303.13426119 0 -5652.48825387 0 555
0.02450000 0.02439640 79655.41197782 0 7212.03627690 0 16074.46900197 0 -15233.52593199 0 -8273.20788752 0 592
0.02550000 0.02547300 70832.65139258 0 8512.45868220 0 21426.16647981 0 -9044.39531114 0 -13311.48106672 0 837
0.02650000 0.02652900 65314.20470297 0 5052.71149077 0 25763.97117401 0 4.13718524 0 -16450.04225981 0 723
0.02750000 0.02749970 62590.19135108 0 2015.90496276 0 20517.46078194 0 5321.78005618 0 -22948.61114237 0 826
0.02850000 0.02848090 58554.10750819 0 394.38292325 0 23227.19083481 0 6809.96694576 0 -24340.29164883 0 831
0.02950000 0.02946900 59368.91989160 0 574.03471513 0 16540.94604658 0 3882.89822903 0 -28551.20750061 0 996
0.03050000 0.03053250 58204.44349042 0 -1177.18743007 0 15569.46026699 0 -3362.86434927 0 -19806.94969833 0 1041
0.03150000 0.03150510 59760.43729718 0 401.61758029 0 18975.08593471 0 -6117.91342762 0 -12945.76217796 0 1036
0.03250000 0.03246190 60070.24094561 0 3200.01259584 0 23043.05807308 0 -753.98103085 0 -11713.30170240 0 1059
0.03350000 0.03345080 56322.25899450 0 3851.79606861 0 29472.64637202 0 2758.95760901 0 1838.39345126 0 1302
0.03450000 0.03451200 58869.11514928 0 313.58041842 0 25663.54518791 0 7019.44425900 0 947.85965289 0 1339
0.03550000 0.03553350 55260.64449089 0 1101.64538676 0 29962.59674524 0 8308.26286789 0 7739.94257960 0 1365
0.03650000 0.03647120 59995.50275308 0 -642.73849063 0 28197.44672265 0 8954.64304616 0 13100.22110918 0 1308
0.03750000 0.03744890 54739.13799193 0 -925.31861402 0 26558.96409599 0 4454.92774613 0 14819.08881403 0 1579
0.03850000 0.03847530 59424.83513193 0 3599.69030482 0 23693.11426318 0 1081.01432393 0 15621.16802389 0 1662
0.03950000 0.03950240 52186.52422824 0 2862.42848444 0 22925.13781376 0 2704.98002552 0 15557.61287943 0 1683
0.04050000 0.04050350 50275.99458078 0 3234.56932160 0 21882.01409259 0 7148.49220476 0 20389.02181405 0 1822
0.04150000 0.04152450 47246.38506390 0 490.14967507 0 15316.56836813 0 10117.94578090 0 12670.94707596 0 1887
0.04250000 0.04250150 46827.62973926 0 474.22435029 0 12163.72387602 0 8543.36154077 0 8868.04639375 0 1920
0.04350000 0.04349210 44077.26425431 0 1535.36606563 0 10015.24996821 0 1741.32237958 0 8624.10093335 0 2005
0.04450000 0.04448520 42793.31746834 0 1613.84670394 0 7298.16789166 0 -1986.27542154 0 5967.50696728 0 2151
0.04550000 0.04548030 41447.36566338 0 1243.11205204 0 7801.09502958 0 -2407.49987462 0 7622.86381697 0 2274
0.04650000 0.04648670 39899.78682348 0 1356.27121169 0 7401.67198407 0 -4870.77104935 0 1033.60484352 0 2311
0.04750000 0.04749250 38748.70793533 0 1775.25905515 0 9803.87928742 0 -2676.40235516 0 1717.53902587 0 2568
0.04850000 0.04851840 38694.56426697 0 272.76672191 0 8469.02195194 0 -1660.01829844 0 -3517.00218307 0 2493
0.04950000 0.04949480 38276.03038883 0 -447.25548872 0 9662.85108621 0 1880.30220070 0 -59.84491914 0 2644
0.05050000 0.05050630 39933.77886067 0 -682.52135370 0 10382.02072783 0 1397.41597071 0 -3928.11760359 0 2829
0.05150000 0.05149060 39907.98034385 0 -86.12098533 0 8910.37589153 0 -113.13480053 0 -4059.94470288 0 2784
0.05250000 0.05249300 39307.74961543 0 1923.88287119 0 10819.25576259 0 -1877.91057854 0 -877.20714822 0 3055
0.05350000 0.05348950 38177.81886769 0 1821.12062455 0 11254.57528516 0 -1392.17876107 0 6.67923601 0 3009
0.05450000 0.05448610 36842.71794105 0 173.09143942 0 12385.50254214 0 528.34033784 0 -594.99241155 0 3336
0.05550000 0.05550870 36758.01465619 0 109.47185404 0 11430.62524978 0 1742.17494859 0 -722.15031146 0 3349
0.05650000 0.05647670 36855.00822160 0 657.39603423 0 13414.23224104 0 897.18494389 0 -180.06589683 0 3324
0.05750000 0.05747970 36164.20587617 0 1751.70822026 0 11951.02451625 0 150.11636543 0 361.86129079 0 3639
0.05850000 0.05849280 34448.54914552 0 1799.88390554 0 13170.75181828 0 1557.82074036 0 3404.13090387 0 3846
0.05950000 0.05951020 33055.76140658 0 1158.90702179 0 11855.35962982 0 1045.29057513 0 3188.54166732 0 3787
0.06050000 0.06049470 33556.23048838 0 -365.00472381 0 12568.63879464 0 2265.50838114 0 4675.48845652 0 3930
0.06150000 0.06148310 32759.79816418 0 -208.94362719 0 12973.55371326 0 2246.76293523 0 4144.29367335 0 4083
0.06250000 0.06249100 32726.69191297 0 628.30128630 0 11855.80252281 0 2961.90225061 0 5110.46473702 0 4303
0.06350000 0.06350600 33093.29658771 0 193.51212809 0 10712.87286573 0 1934.52337534 0 5241.62749682 0 4470
0.06450000 0.06451750 32738.53930053 0 -292.88513610 0 9630.57525936 0 514.54532834 0 5846.50860166 0 4479
0.06550000 0.06550280 32637.00608194 0 271.83775386 0 10551.82590125 0 -223.15717056 0 4748.27791988 0 4636
0.06650000 0.06648880 33185.63977670 0 441.88651842 0 11480.11854172 0 -1622.73778077 0 4485.40985636 0 4653
0.06750000 0.06749660 32269.18345146 0 630.26440949 0 12714.12914276 0 -3047.34738124 0 2103.58670300 0 5220
0.06850000 0.06852730 31471.20100178 0 1518.43648098 0 13615.30565974 0 -2922.98302887 0 396.84983722 0 5029
0.06950000 0.06949320 29864.93884034 0 2180.06325052 0 14779.89278417 0 -2541.89575327 0 -209.22043531 0 5040
0.07050000 0.07048030 29600.86389342 0 460.90212906 0 14796.16910165 0 -447.76924460 0 -315.37856397 0 5475
0.07150000 0.07148790 29328.04180989 0 -357.23195179 0 14381.84270694 0 3164.68080734 0 -2260.59226892 0 5509
0.07250000 0.07249820 28993.32543062 0 -64.19645351 0 12606.39542227 0 3815.35704763 0 -2806.10356809 0 5916
0.07350000 0.07351270 29179.45121082 0 -229.26245046 0 10039.87481861 0 4620.84653354 0 -899.00080516 0 5721
0.07450000 0.07449140 28645.76515456 0 33.92549252 0 9459.05387560 0 3500.77015489 0 -1735.85265112 0 6028
0.07550000 0.07549160 28003.45959183 0 829.56404176 0 6874.30822528 0 1554.10043922 0 -1821.93997658 0 6183
0.07650000 0.07648840 27341.88818392 0 833.06068194 0 7187.85431950 0 -75.74699204 0 -94.77378573 0 6330
0.07750000 0.07749960 26757.26943349 0 689.48916771 0 7528.36152464 0 -1283.27137416 0 187.26622966 0 6583
0.07850000 0.07848650 26473.81791814 0 683.34734913 0 7573.14907853 0 -1662.11096783 0 891.25792842 0 6549
0.07950000 0.07947320 25351.63779777 0 1207.81348052 0 8527.25130816 0 -247.22619025 0 1040.34456764 0 6828
0.08050000 0.08048110 25793.64500453 0 680.90922321 0 9005.57574032 0 -316.11376634 0 879.22341857 0 7147
0.08150000 0.08149960 24064.70148409 0 538.18917076 0 8033.03808988 0 1030.27428821 0 -174.45997877 0 7386
0.08250000 0.08250610 23858.42407272 0 1092.78309798 0 9456.38544531 0 1035.61114878 0 900.65058156 0 7227
0.08350000 0.08350160 23022.46354891 0 536.70326477 0 7502.86196059 0 986.63050547 0 749.37494373 0 7798
0.08450000 0.08449610 22062.60371039 0 235.23596970 0 7311.48789842 0 2166.82075003 0 709.23333733 0 7371
0.08550000 0.08548940 22230.23870814 0 22.23422475 0 6833.98281829 0 1160.91111259 0 1263.47405738 0 8256
0.08650000 0.08650700 21692.78806144 0 382.43809924 0 5407.98917722 0 1810.54655435 0 614.83955378 0 8037
0.08750000 0.08749060 21498.46876088 0 320.49508527 0 4495.60746752 0 852.55904594 0 1032.01042874 0 8155
0.08850000 0.08849210 20723.95963981 0 225.48014430 0 3982.51593542 0 449.25182889 0 1139.75189986 0 8718
0.08950000 0.08949900 20627.85186039 0 838.76735815 0 4840.92006164 0 284.47681264 0 954.98247945 0 8571
0.09050000 0.09049190 20024.29943452 0 602.03330290 0 4230.51386671 0 -357.69256050 0 918.61321411 0 8932
0.09150000 0.09150830 19520.73010177 0 575.39993278 0 4652.95627551 0 -523.08762694 0 2838.62298608 0 9285
0.09250000 0.09250820 19214.24815079 0 355.62978639 0 4815.12154481 0 -213.19650715 0 1909.11238988 0 9204
0.09350000 0.09350330 19151.46806907 0 -30.81162261 0 5353.21438634 0 371.97585951 0 2032.19235256 0 9349
0.09450000 0.09448040 19269.49905163 0 255.07757578 0 5293.92208694 0 200.35593206 0 2024.98426911 0 9564
0.09550000 0.09549270 18702.70674417 0 312.32592402 0 5479.02921326 0 173.82996349 0 2444.03854652 0 10155
0.09650000 0.09649430 18743.78506925 0 371.16093641 0 5132.97477338 0 149.35348225 0 2030.76402266 0 9913
0.09750000 0.09749140 18154.29449590 0 292.02703093 0 5690.93136564 0 -506.92203271 0 1365.10692689 0 10476
0.09850000 0.09850240 18382.71655691 0 85.05804215 0 5155.04191674 0 -137.42969565 0 1892.83607240 0 10575
0.09950000 0.09950330 18083.09944732 0 343.48123159 0 5580.38527465 0 -428.67059152 0 1289.56045465 0 10882
0.10050000 0.10051200 17937.38765270 0 493.92533783 0 6315.38834076 0 -425.88036566 0 369.60416754 0 10875
0.10150000 0.10150300 17350.77588381 0 522.09997557 0 6444.52486512 0 -515.58169795 0 389.30847679 0 11118
0.10250000 0.10250800 16871.56566566 0 578.94972012 0 6954.66008649 0 -240.69794754 0 891.22914037 0 11575
0.10350000 0.10349800 16478.38741135 0 367.93446096 0 6777.65790194 0 408.98510522 0 453.29544191 0 11364
0.10450000 0.10450100 16341.97636958 0 9.07411343 0 6684.87181996 0 1012.47995500 0 551.06628453 0 12093
0.10550000 0.10551000 16510.71859982 0 -127.16454331 0 6687.68419046 0 807.94532755 0 -139.32195596 0 12067
0.10650000 0.10649700 16483.25923427 0 -59.20715323 0 5846.65254189 0 437.07780775 0 455.35267986 0 12054
0.10750000 0.10749900 16397.55944017 0 156.37112172 0 5810.04743604 0 369.72596311 0 484.76520351 0 12807
0.10850000 0.10850100 16108.57176241 0 507.76906556 0 4938.82155768 0 45.48112432 0 461.41367047 0 12736
0.10950000 0.10950300 16076.24057394 0 217.66419021 0 5304.61795272 0 618.60525146 0 243.55239287 0 12933
0.11050000 0.11050200 15676.64037123 0 128.16105254 0 5103.40059379 0 347.15392174 0 1110.15557562 0 13428
0.11150000 0.11150900 15711.07530142 0 165.47257272 0 4874.64636303 0 159.25214063 0 -132.50915450 0 13453
0.11250000 0.11250000 15479.77443596 0 338.73674041 0 5498.36149239 0 457.80630704 0 1179.52369061 0 13668
0.11350000 0.11349100 15274.82570356 0 350.83768420 0 5924.10345399 0 201.95034683 0 1733.12885921 0 13791
0.11450000 0.11448600 14881.20455626 0 430.71675714 0 5927.18156029 0 16.60505481 0 2308.34720587 0 14205
0.11550000 0.11549300 14511.94252356 0 677.52994968 0 6471.10951701 0 432.28238387 0 3027.67186003 0 14776
0.11650000 0.11649800 14292.04615266 0 89.02636336 0 6036.07787489 0 362.54666770 0 2265.09870512 0 14553
0.11750000 0.11747300 14173.46155385 0 -329.58214225 0 5209.11915115 0 290.32964353 0 1743.34861502 0 14568
0.11850000 0.11849100 14468.31756377 0 -113.25105994 0 5442.83378343 0 -76.77007485 0 1027.09653099 0 16015
0.11950000 0.11950300 14261.81870591 0 59.19486295 0 4332.82214803 0 227.59495834 0 707.37429399 0 15270
0.12050000 0.12050700 14304.55787971 0 48.81433698 0 4024.24752766 0 500.27420889 0 317.63399654 0 15999
0.12150000 0.12150000 13973.16319788 0 83.76756269 0 3524.09954328 0 783.77554971 0 395.20670422 0 15670
0.12250000 0.12250700 14013.35573698 0 216.05759588 0 3172.92968933 0 601.60923286 0 -840.84674075 0 16887
0.12350000 0.12352200 13482.99137816 0 320.54933966 0 2958.30374505 0 59.26351136 0 -268.45848032 0 16407
0.12450000 0.12449800 13357.87410771 0 335.75496334 0 3623.94976849 0 -159.74928802 0 -315.90560663 0 16306
0.12550000 0.12549900 13414.34296429 0 61.51639729 0 3456.43656631 0 -561.29379096 0 303.70611915 0 17523
0.12650000 0.12650100 13093.79916079 0 309.05294480 0 3553.67372287 0 -609.20484768 0 45.50459765 0 17154
0.12750000 0.12750600 13252.68702193 0 51.82955248 0 3681.34870035 0 -376.78899911 0 -67.30456581 0 18007
0.12850000 0.12850300 13151.59669634 0 -156.95574047 0 3629.76273902 0 47.37294174 0 -939.06047636 0 17496
0.12950000 0.12949900 13441.35943684 0 -12.10758719 0 3688.63429008 0 144.70089136 0 -1348.18841457 0 18405
0.13050000 0.13049000 13259.44114007 0 155.00258237 0 3290.10810289 0 90.77711937 0 -1557.35570272 0 18100
0.13150000 0.13148800 13040.54127841 0 244.83346085 0 3241.36772903 0 276.08620489 0 -1784.09477035 0 19059
0.13250000 0.13249300 12895.05093029 0 295.71190063 0 3467.02170884 0 -286.48422513 0 -1706.66600290 0 18957
0.13350000 0.13349100 12684.01241925 0 466.33088992 0 4042.35077874 0 -507.91632748 0 -1321.28266526 0 19468
0.13450000 0.13450700 12342.65264509 0 394.14597550 0 4238.36414500 0 -88.72065648 0 -629.55578070 0 19953
0.13550000 0.13551000 12040.48890079 0 220.88955843 0 4314.13206374 0 83.95147401 0 -568.56166497 0 19956
0.13650000 0.13649900 12065.18018513 0 115.54635288 0 4361.87592836 0 455.75903419 0 -288.70644072 0 19723
0.13750000 0.13749600 11968.96168246 0 110.65183169 0 4112.67111366 0 795.71594479 0 -371.56064733 0 20946
0.13850000 0.13851100 11767.22392426 0 52.07690821 0 3815.52313251 0 555.43320944 0 -238.44472943 0 20955
0.13950000 0.13949800 11450.99832744 0 209.67661509 0 3142.49186840 0 582.95568724 0 358.82968826 0 20506
0.14050000 0.14048300 11491.08014329 0 86.38428522 0 3198.81678476 0 645.95057206 0 4.98985390 0 21447
0.14150000 0.14148400 11242.72789761 0 164.77612349 0 2896.28765374 0 392.85604966 0 384.97033992 0 21771
0.14250000 0.14249400 11123.25751281 0 101.21112466 0 2526.54951107 0 204.27553504 0 543.19939774 0 22470
0.14350000 0.14350900 11056.18136906 0 240.47317934 0 2557.97276890 0 -93.61705996 0 835.59845879 0 22519
0.14450000 0.14449900 10834.74594501 0 249.74403691 0 2768.32479581 0 260.67131428 0 949.89585342 0 22218
0.14550000 0.14550500 10741.88235676 0 -8.15019436 0 2756.47740825 0 320.41868623 0 940.70693106 0 23559
0.14650000 0.14650700 10654.74316044 0 133.88876617 0 2951.59391621 0 282.42289638 0 1159.58243361 0 23044
0.14750000 0.14750500 10657.98735161 0 123.96464144 0 2779.47462690 0 167.52870344 0 1117.19757420 0 23649
0.14850000 0.14849900 10570.94780621 0 140.19002623 0 2839.95166506 0 -113.86114504 0 1282.91705976 0 23640
0.14950000 0.14949500 10380.89135070 0 217.40399058 0 3134.36478199 0 -368.65748377 0 1159.91460335 0 24457
0.15050000 0.15050000 10280.81967899 0 281.85045719 0 3249.57232173 0 -528.14878662 0 1542.05374982 0 24591
0.15150000 0.15149900 10075.42805360 0 255.68987534 0 3523.72308423 0 -117.75195998 0 1184.05227146 0 25020
0.15250000 0.15250500 10008.99410469 0 98.69493884 0 3437.22608275 0 -69.64547673 0 1028.67655174 0 25297
0.15350000 0.15350100 9920.83625448 0 70.64420042 0 3896.14072951 0 34.68616124 0 717.44346618 0 25452
0.15450000 0.15450400 9836.93017701 0 116.00253266 0 3346.34444064 0 284.48899219 0 446.62658067 0 26061
0.15550000 0.15549900 9752.61442351 0 64.05827090 0 3469.20295683 0 150.47178705 0 558.50356511 0 26128
0.15650000 0.15649500 9811.98422919 0 -2.39171074 0 3067.99726702 0 -22.47604432 0 -37.48912026 0 26331
0.15750000 0.15749700 9582.38850175 0 202.54382344 0 3320.45734521 0 -45.02173356 0 2.32775699 0 27345
0.15850000 0.15849900 9491.27434082 0 312.31263723 0 3146.61077324 0 -208.80633036 0 -341.06746478 0 26980
0.15950000 0.15949700 9170.11048713 0 197.10731196 0 3066.08175483 0 123.58928963 0 -198.36291359 0 27777
0.16050000 0.16050000 8998.71089894 0 97.22331615 0 2781.52300699 0 402.48011439 0 90.62099959 0 28224
0.16150000 0.16150500 9124.35964098 0 -75.68919450 0 2695.47997083 0 739.68998121 0 -2.98107952 0 28075
0.16250000 0.16249700 9085.71722736 0 -89.69657119 0 2334.99829171 0 547.32937490 0 -166.55212439 0 28590
0.16350000 0.16349900 9101.45100093 0 45.73257681 0 2009.62695458 0 310.72818755 0 46.35174122 0 29163
0.16450000 0.16449100 8995.31169522 0 98.76248002 0 1841.56013616 0 -95.81358776 0 297.23766699 0 28996
0.16550000 0.16550500 8930.12891901 0 196.14623416 0 2121.37992898 0 -41.20355307 0 311.49107073 0 30777
0.16650000 0.16650700 8968.66060938 0 82.42349318 0 2129.14162868 0 -107.83403575 0 203.83153482 0 29211
0.16750000 0.16749900 8649.16867674 0 162.16084036 0 2272.26249928 0 -298.35375733 0 257.05952192 0 30922
0.16850000 0.16850800 8643.89825012 0 220.00930861 0 2441.29260996 0 -138.42620488 0 1.27216583 0 30867
0.16950000 0.16949900 8467.87043015 0 243.03752977 0 2643.76114160 0 -231.99067130 0 345.05128725 0 30852
0.17050000 0.17049200 8361.25501448 0 247.29040973 0 2774.46993608 0 129.35022023 0 522.79863926 0 31257
0.17150000 0.17149500 8136.76362878 0 148.89619523 0 2747.07700448 0 265.10467313 0 575.66123965 0 32608
0.17250000 0.17250900 7999.96505564 0 -7.26848299 0 2543.20228759 0 478.62559940 0 719.79190628 0 32361
0.17350000 0.17350400 8088.86475161 0 17.93007992 0 2507.64905260 0 314.50385031 0 451.01343577 0 32508
0.17450000 0.17449800 7936.71993628 0 74.61296453 0 2299.73293716 0 265.16446369 0 662.27117884 0 32791
0.17550000 0.17549800 7944.99096292 0 61.86163238 0 1944.66562487 0 93.20262284 0 620.85293339 0 33633
0.17650000 0.17650100 7839.60457530 0 20.22625864 0 1907.57333673 0 202.36666625 0 462.93722237 0 33984
0.17750000 0.17750300 7951.92223826 0 -9.41862882 0 1805.43114028 0 -111.61014140 0 411.13977963 0 34069
0.17850000 0.17849800 7807.35089310 0 45.71032144 0 1691.56335184 0 36.13696796 0 84.27057841 0 34536
