### header ###
fiducial parameters:
Omega_m = 0.31
Omega_nu = 0
Omega_de = 0.69
Omega_k = 0
H_0 = 100
w_de = -1
zeff = 0
beta = 0
fgrowth = 0
b_1 = 2
gamma = 0.55
Lx = 3500 Ly = 3500 Lz = 3500
nx = 700 ny = 700 nz = 700
xoffset = -685.467585 yoffset = -31.7331281 zoffset = 572.489161
bins = 400 dk = 0.001
kx_ny = 0.628318531 ky_ny = 0.628318531 kz_ny = 0.628318531
############################
A(data) = 8.02063694 (not used)
A(ran) = 8.02876385 (used)
Ngal = 477320
weighted Ngal = 0
Nran = 23820508
weighted Nran = 0
SN(data) = 3478.43602
SN(ran) = 69.9334449
SN(data+ran) = 3548.36946
############################
13 columns: k_central k_mean P_0(k) sigma^{lin}_{P_0(k)} P^img_1(k) sigma^{lin}_{P_1(k)} P_2(k) sigma^{lin}_{P_2(k)} P^img_3(k) sigma^{lin}_{P_3(k)} P_4(k) sigma^{lin}_{P_4(k)} N_modes
### header ###
0.00050000 0 0 0 0 0 0 0 0 0 0 0 0
0.00150000 0.00179520 4143.44110433 0 -3899.16347419 0 -8802.70860500 0 12814.88729860 0 -7963.72533651 0 3
0.00250000 0.00253879 9305.05998202 0 -10256.38305811 0 -10859.85797770 0 11023.08619018 0 3032.48832133 0 6
0.00350000 0.00331552 18398.88215114 0 -14813.33120512 0 -9002.84087609 0 -907.17218088 0 -18454.68666823 0 7
0.00450000 0.00420575 38882.90451214 0 -30000.68554262 0 -27269.03228661 0 17933.06944602 0 -9246.08878003 0 24
0.00550000 0.00557378 61184.78116185 0 -15322.43670028 0 -35144.44476037 0 -14488.35847170 0 -23423.28170735 0 45
0.00650000 0.00659388 72294.08754539 0 2860.08115158 0 -33842.56080819 0 -8631.15400426 0 24487.77501541 0 40
0.00750000 0.00754703 64222.80564559 0 3351.69237353 0 -17514.31412138 0 -25862.40414165 0 -145.11278184 0 57
0.00850000 0.00846663 54483.69945836 0 3830.62578356 0 -13607.44430912 0 -9870.86685258 0 31226.05973030 0 75
0.00950000 0.00948925 56146.54119963 0 -763.23417270 0 -14541.83780057 0 -4483.61613974 0 4055.25003715 0 112
0.01050000 0.01054430 48844.34298173 0 1882.40594242 0 -4243.96674136 0 1187.75042795 0 12455.25818850 0 105
0.01150000 0.01145670 52138.58106177 0 -3276.97632565 0 -6656.63739167 0 -9062.91931056 0 -2662.73910634 0 144
0.01250000 0.01249090 60240.42257807 0 -8268.80110224 0 -5737.54585312 0 -5881.55250972 0 -7139.41289841 0 169
0.01350000 0.01339930 70490.73800218 0 -17255.00027413 0 -4231.43286967 0 -16673.70322115 0 -14635.95256153 0 180
0.01450000 0.01448870 82739.16516306 0 -7072.21495909 0 5594.21460835 0 -22013.22114170 0 -27473.31667951 0 267
0.01550000 0.01550050 84676.71128308 0 12200.70544091 0 14230.15185692 0 -25587.47831640 0 -13200.20420229 0 238
0.01650000 0.01653350 78564.01292045 0 14608.38247273 0 24945.50492342 0 -19349.21979033 0 -16447.60634835 0 315
0.01750000 0.01747870 69049.89637353 0 9816.86712443 0 33317.95405829 0 -10542.58051002 0 -85.04054788 0 297
0.01850000 0.01844180 63081.13823354 0 2193.26146170 0 31300.13358333 0 19574.20943064 0 -7955.64253939 0 388
0.01950000 0.01947590 68113.50986362 0 -2347.41036783 0 39272.65034575 0 4175.41797841 0 -6343.67813067 0 399
0.02050000 0.02045430 73071.91836390 0 -4121.92757721 0 40934.49557778 0 6578.45570613 0 -265.10356590 0 462
0.02150000 0.02154770 73190.17079297 0 1213.01747318 0 46081.13359999 0 3345.22613583 0 9941.04324728 0 571
0.02250000 0.02255340 68031.13176697 0 1347.49085810 0 31513.27583609 0 14679.68824456 0 8412.47558909 0 510
0.02350000 0.02348930 77622.75458762 0 -3516.86931517 0 38656.58619284 0 5764.57339801 0 -51.66922521 0 555
0.02450000 0.02439640 76028.45053698 0 -3888.63369328 0 33704.82108745 0 8827.31131074 0 9493.05698511 0 592
0.02550000 0.02547300 77450.35849019 0 724.47328521 0 35401.10124967 0 8049.48049223 0 2783.33886826 0 837
0.02650000 0.02652900 75232.46110577 0 5055.90032031 0 22315.60633249 0 3861.41791888 0 2205.24171716 0 723
0.02750000 0.02749970 70785.59401210 0 1697.91886629 0 21222.98931939 0 -85.89588497 0 1200.60539706 0 826
0.02850000 0.02848090 68383.12097295 0 828.95617113 0 16818.86139952 0 10168.82311344 0 975.63015077 0 831
0.02950000 0.02946900 66737.99495140 0 1304.16485109 0 15323.87610251 0 3017.67355072 0 -8614.85554212 0 996
0.03050000 0.03053250 62902.76308072 0 6931.92860364 0 10840.82465134 0 6324.55622571 0 -7261.03131422 0 1041
0.03150000 0.03150510 56632.83770566 0 8249.07021941 0 12991.49087946 0 -6171.37061184 0 -2107.32914878 0 1036
0.03250000 0.03246190 50479.06101795 0 5509.65526371 0 13142.18522024 0 -239.82434111 0 6641.01434135 0 1059
0.03350000 0.03345080 51446.11786761 0 -272.46444744 0 17143.83413295 0 -1592.48818937 0 11535.03727282 0 1302
0.03450000 0.03451200 51793.78886692 0 -2674.71936179 0 14720.76656964 0 6193.27167034 0 6163.06636823 0 1339
0.03550000 0.03553350 55401.70590908 0 -2824.79365238 0 25551.38253749 0 -554.16542824 0 4925.73406975 0 1365
0.03650000 0.03647120 56873.21787747 0 574.97696997 0 23298.38588340 0 1717.39508565 0 5200.13949573 0 1308
0.03750000 0.03744890 55699.44072345 0 2740.68827306 0 25381.75452127 0 829.37802670 0 10919.16134943 0 1579
0.03850000 0.03847530 52321.60659102 0 4713.95371294 0 24872.31685637 0 3398.96012818 0 8194.00754809 0 1662
0.03950000 0.03950240 50281.30929669 0 2302.13563164 0 25656.12673028 0 1829.52451908 0 8182.09372659 0 1683
0.04050000 0.04050350 45501.94028872 0 2177.63841138 0 18892.15422182 0 6569.27674885 0 9545.89411915 0 1822
0.04150000 0.04152450 45429.30583791 0 1677.57900560 0 15397.72850905 0 6412.71407592 0 3283.30969545 0 1887
0.04250000 0.04250150 42305.02794384 0 -107.47440664 0 11722.60245525 0 4617.92343979 0 1201.29188120 0 1920
0.04350000 0.04349210 42171.05281353 0 363.29183516 0 12443.41080094 0 2117.70391714 0 100.78063267 0 2005
0.04450000 0.04448520 41367.31275494 0 1320.34151765 0 11321.89502006 0 -45.19866931 0 -726.44858796 0 2151
0.04550000 0.04548030 39213.63485447 0 2636.44233489 0 12510.61981259 0 -2360.53107274 0 -1037.39932923 0 2274
0.04650000 0.04648670 38946.68110309 0 1627.31065092 0 9874.06675445 0 -538.38404368 0 1337.90222481 0 2311
0.04750000 0.04749250 37547.13924602 0 666.45208869 0 13060.91435608 0 527.34936477 0 3474.67268529 0 2568
0.04850000 0.04851840 36945.80128511 0 391.21402389 0 14906.67090334 0 1454.60452840 0 3539.99940172 0 2493
0.04950000 0.04949480 38657.58270208 0 85.03368304 0 13568.13755602 0 1795.27781842 0 6096.84279349 0 2644
0.05050000 0.05050630 37056.96742629 0 -1050.89095702 0 13455.42128936 0 2770.92679214 0 5714.31611566 0 2829
0.05150000 0.05149060 37654.43007351 0 304.51882779 0 11812.50973277 0 665.19095090 0 7027.36097125 0 2784
0.05250000 0.05249300 38757.89796493 0 445.38205137 0 13728.13264965 0 1964.67331582 0 4749.15263354 0 3055
0.05350000 0.05348950 37020.31803114 0 2211.84082275 0 11619.74055768 0 -761.82909468 0 4117.74223843 0 3009
0.05450000 0.05448610 35762.72337824 0 1817.89857802 0 13352.11649881 0 -969.02329455 0 5780.51754575 0 3336
0.05550000 0.05550870 33988.93694229 0 1000.14317068 0 13828.55863575 0 -176.48178528 0 2578.48978679 0 3349
0.05650000 0.05647670 33546.04394955 0 205.20782479 0 13070.87944841 0 -851.74523007 0 -765.38109648 0 3324
0.05750000 0.05747970 33858.61567918 0 288.35323355 0 14159.17825484 0 -57.30625650 0 -2697.26261512 0 3639
0.05850000 0.05849280 33424.13765330 0 629.37308734 0 13312.36685271 0 -2217.96381837 0 -2579.75203182 0 3846
0.05950000 0.05951020 32882.47952317 0 380.51372918 0 13332.96137687 0 -738.61707293 0 -3777.75543255 0 3787
0.06050000 0.06049470 33871.45957597 0 401.63086708 0 14079.45751614 0 726.90033881 0 -4429.17351860 0 3930
0.06150000 0.06148310 32071.76389995 0 618.66282754 0 14048.89789964 0 3055.17551488 0 -3203.60002908 0 4083
0.06250000 0.06249100 32213.71110412 0 28.37726128 0 11323.44514553 0 5304.75082061 0 -1436.53449430 0 4303
0.06350000 0.06350600 32062.02025411 0 -920.10022734 0 8417.82352197 0 4114.13266054 0 -16.30189455 0 4470
0.06450000 0.06451750 33317.73261179 0 -749.74254491 0 7814.55897656 0 1587.47242622 0 319.63919456 0 4479
0.06550000 0.06550280 32703.88292384 0 88.17357291 0 8128.95763978 0 605.48454655 0 1053.88712812 0 4636
0.06650000 0.06648880 31856.85007522 0 1500.74290592 0 6189.78388802 0 -1351.75370316 0 625.08145424 0 4653
0.06750000 0.06749660 31359.14907462 0 862.34144492 0 9261.29108201 0 -2049.16622651 0 -664.06157377 0 5220
0.06850000 0.06852730 30774.08743120 0 734.05527511 0 8517.67374719 0 -1345.64177986 0 -1568.37266591 0 5029
0.06950000 0.06949320 30298.53108024 0 954.54622985 0 10242.00010817 0 -2294.04176220 0 -2973.50604702 0 5040
0.07050000 0.07048030 28816.38968002 0 1630.57698674 0 8786.63158936 0 -922.07553008 0 -3716.32617446 0 5475
0.07150000 0.07148790 28036.89801278 0 888.62603681 0 10481.90417002 0 546.24317984 0 -3008.39494253 0 5509
0.07250000 0.07249820 27322.06872249 0 -453.50138715 0 9025.67200987 0 2711.35768462 0 -4643.17941270 0 5916
0.07350000 0.07351270 27716.13276279 0 -236.85806529 0 8901.94985234 0 2251.44652862 0 -4791.90287966 0 5721
0.07450000 0.07449140 27519.59899726 0 1019.03366406 0 7568.44334049 0 1683.21481893 0 -5570.33160371 0 6028
0.07550000 0.07549160 26542.46633201 0 1169.02712668 0 7914.07703203 0 -460.73604419 0 -2145.07470409 0 6183
0.07650000 0.07648840 25429.14407150 0 688.15716704 0 7148.10467340 0 -71.40697288 0 573.49217121 0 6330
0.07750000 0.07749960 25423.60790909 0 -34.28844333 0 9676.92401105 0 -288.03877953 0 339.59263112 0 6583
0.07850000 0.07848650 25924.74133038 0 488.21423269 0 9221.82931636 0 -79.69316861 0 -192.17569848 0 6549
0.07950000 0.07947320 25662.77012517 0 329.57660609 0 10063.02704980 0 -522.85842982 0 -1467.54807611 0 6828
0.08050000 0.08048110 25000.97727076 0 312.11444262 0 10428.82344484 0 -1438.95933343 0 774.46372453 0 7147
0.08150000 0.08149960 25791.76270931 0 264.92197977 0 11717.84135557 0 -964.23894299 0 -665.55965931 0 7386
0.08250000 0.08250610 25060.54637828 0 444.62359712 0 12416.39432838 0 -650.73381638 0 -93.75081364 0 7227
0.08350000 0.08350160 25329.05025514 0 697.78566070 0 12265.58926435 0 499.15036792 0 -200.50208675 0 7798
0.08450000 0.08449610 23815.24200593 0 648.95560102 0 11430.73597303 0 2086.24744233 0 802.93510057 0 7371
0.08550000 0.08548940 23898.28444207 0 479.54792406 0 10969.34112551 0 2484.62968930 0 1455.29101254 0 8256
0.08650000 0.08650700 22696.71575275 0 845.27788514 0 10230.31880549 0 2755.93486434 0 648.87145135 0 8037
0.08750000 0.08749060 22105.89650043 0 1040.25820350 0 8927.72622452 0 1145.84167851 0 1513.93004478 0 8155
0.08850000 0.08849210 21149.69052909 0 665.78774921 0 8863.19671548 0 487.71819254 0 1787.75970987 0 8718
0.08950000 0.08949900 20602.49623655 0 488.89850237 0 7506.60440637 0 239.31279970 0 2566.71990551 0 8571
0.09050000 0.09049190 20042.90094022 0 -16.94264999 0 7451.95141107 0 1102.93309814 0 1085.73777769 0 8932
0.09150000 0.09150830 19803.40655439 0 90.62409984 0 6220.35457684 0 463.12766635 0 432.96776078 0 9285
0.09250000 0.09250820 19986.21063715 0 428.44693055 0 6791.05541497 0 195.53947076 0 563.55586692 0 9204
0.09350000 0.09350330 19589.15706915 0 340.83605319 0 6806.20235532 0 995.61126814 0 1205.57687090 0 9349
0.09450000 0.09448040 19342.79784193 0 413.52697286 0 6968.75515598 0 703.50230200 0 1555.31839495 0 9564
0.09550000 0.09549270 19063.88597975 0 331.42789880 0 6967.10537959 0 999.30831739 0 2048.08113868 0 10155
0.09650000 0.09649430 18616.78550358 0 661.00782658 0 6749.15773786 0 -17.34291453 0 3191.42047178 0 9913
0.09750000 0.09749140 18199.13741142 0 563.92125364 0 7329.79045135 0 126.09384950 0 3985.91513914 0 10476
0.09850000 0.09850240 17821.34968860 0 270.47364344 0 7141.71594198 0 77.13679025 0 4132.16947767 0 10575
0.09950000 0.09950330 17799.09431572 0 183.86924040 0 6449.51848361 0 1421.48720487 0 2722.27499689 0 10882
0.10050000 0.10051200 17626.69821829 0 -384.46433468 0 5818.65063242 0 380.44175907 0 1728.68885696 0 10875
0.10150000 0.10150300 17694.57156943 0 343.94184031 0 5490.04617645 0 -426.29336338 0 126.08166994 0 11118
0.10250000 0.10250800 17112.72090021 0 510.36109680 0 5319.05626428 0 -769.64726324 0 -357.34599673 0 11575
0.10350000 0.10349800 16701.71620294 0 690.51889392 0 5486.59161111 0 -1111.50639924 0 -551.41284829 0 11364
0.10450000 0.10450100 16025.75077276 0 601.31138732 0 6036.10001953 0 -637.08717604 0 -870.19836661 0 12093
0.10550000 0.10551000 15983.67593845 0 259.58179751 0 6456.08437223 0 -22.26223773 0 -1038.55085101 0 12067
0.10650000 0.10649700 15991.42656583 0 3.42150338 0 6976.07396269 0 -31.95893691 0 -1532.13294678 0 12054
0.10750000 0.10749900 15933.07541403 0 199.21216090 0 6831.30331569 0 483.34905317 0 -333.19393461 0 12807
0.10850000 0.10850100 15707.42143423 0 -27.84191437 0 6086.81126720 0 958.86443653 0 -282.97540539 0 12736
0.10950000 0.10950300 15934.95770925 0 -123.20840165 0 6103.59691163 0 772.57035699 0 471.62346119 0 12933
0.11050000 0.11050200 15820.02697763 0 22.54303188 0 5526.66235463 0 680.89704365 0 -426.69307430 0 13428
0.11150000 0.11150900 15618.95355893 0 345.60711796 0 5013.27186976 0 241.77196304 0 -36.57963950 0 13453
0.11250000 0.11250000 15342.36688496 0 52.78376543 0 4562.67253894 0 691.40689437 0 -78.97856076 0 13668
0.11350000 0.11349100 15395.40332084 0 -388.13370312 0 4403.98397964 0 644.50120474 0 194.36801880 0 13791
0.11450000 0.11448600 15640.87676207 0 -67.92373022 0 4009.96422865 0 395.40489883 0 -720.74634067 0 14205
0.11550000 0.11549300 15476.78490826 0 247.04128242 0 4223.26149395 0 321.49713067 0 -380.67427789 0 14776
0.11650000 0.11649800 15209.49898713 0 772.46406267 0 4227.62398993 0 -230.05190722 0 -9.10091953 0 14553
0.11750000 0.11747300 14504.08117294 0 660.55386126 0 4059.18071246 0 7.57431167 0 1075.27000181 0 14568
0.11850000 0.11849100 14345.96837453 0 224.74604917 0 4554.32400603 0 -302.41840777 0 262.12843222 0 16015
0.11950000 0.11950300 14207.34286780 0 60.26112783 0 4779.44651424 0 220.92941880 0 172.98957404 0 15270
0.12050000 0.12050700 14189.40570159 0 -9.64204619 0 4851.62699974 0 -297.71156249 0 -310.41262629 0 15999
0.12150000 0.12150000 14040.81510253 0 271.64730987 0 4865.27917624 0 -216.25800496 0 190.96217168 0 15670
0.12250000 0.12250700 14212.32541397 0 5.21158828 0 4884.48965980 0 -59.32717723 0 -112.33316422 0 16887
0.12350000 0.12352200 14130.05804056 0 -113.71609758 0 4820.61341792 0 398.92479089 0 65.91664990 0 16407
0.12450000 0.12449800 14083.66499957 0 134.62286131 0 4731.53656475 0 303.81130623 0 -500.69385000 0 16306
0.12550000 0.12549900 13960.31930109 0 190.23914887 0 4607.69261166 0 91.41599251 0 -235.03777509 0 17523
0.12650000 0.12650100 13679.85731344 0 438.72758415 0 4359.29607667 0 535.46094993 0 -632.99263032 0 17154
0.12750000 0.12750600 13161.56178868 0 283.97080739 0 4557.95572857 0 122.96923944 0 -321.48384388 0 18007
0.12850000 0.12850300 13065.67545575 0 285.54418475 0 4147.56000917 0 348.44384758 0 -669.63648931 0 17496
0.12950000 0.12949900 12634.62985056 0 148.54298807 0 3816.03245945 0 386.64226097 0 -176.46739126 0 18405
0.13050000 0.13049000 12736.27379239 0 38.86806760 0 3462.95816563 0 270.08832653 0 -226.76564122 0 18100
0.13150000 0.13148800 12757.86482579 0 46.63707503 0 3706.09534632 0 350.56309055 0 -238.30411091 0 19059
0.13250000 0.13249300 12744.91020575 0 81.95734831 0 3336.27969738 0 -125.77053762 0 -185.09051783 0 18957
0.13350000 0.13349100 12679.02987308 0 287.99006130 0 3797.39773678 0 12.73583090 0 -58.62098435 0 19468
0.13450000 0.13450700 12461.45869039 0 275.89908260 0 3856.98898895 0 -126.29647304 0 245.99826943 0 19953
0.13550000 0.13551000 12275.44363344 0 123.28922962 0 3797.30915818 0 155.41779455 0 192.97512033 0 19956
0.13650000 0.13649900 11987.67391140 0 181.58834149 0 3874.69363634 0 415.69825576 0 697.80337642 0 19723
0.13750000 0.13749600 12410.30454973 0 -329.79805258 0 3488.30271714 0 521.93167623 0 319.66908984 0 20946
0.13850000 0.13851100 12200.48399442 0 -72.17428499 0 3703.03938467 0 77.60382091 0 -318.73237116 0 20955
0.13950000 0.13949800 12133.60715251 0 634.50953882 0 3293.14191989 0 -343.53659322 0 -219.93844573 0 20506
0.14050000 0.14048300 11697.13610816 0 487.62961394 0 3278.54859578 0 -384.63706295 0 445.78951292 0 21447
0.14150000 0.14148400 11420.66015744 0 101.97854749 0 3250.05950402 0 154.07361432 0 625.98606318 0 21771
0.14250000 0.14249400 11408.48060014 0 -81.40384279 0 3494.80217181 0 469.62712102 0 -36.46238358 0 22470
0.14350000 0.14350900 11531.27268238 0 193.51544979 0 3439.32982447 0 515.40343352 0 -394.33863395 0 22519
0.14450000 0.14449900 11060.94246873 0 369.93744452 0 3179.82774769 0 198.44595603 0 297.55433548 0 22218
0.14550000 0.14550500 10930.42190377 0 357.84203688 0 3354.46045473 0 -63.96017010 0 604.12486506 0 23559
0.14650000 0.14650700 10580.18212511 0 186.33283268 0 3318.65255627 0 380.39857700 0 1164.74213697 0 23044
0.14750000 0.14750500 10585.38611777 0 48.51737723 0 3337.63052101 0 431.28255294 0 608.27034347 0 23649
0.14850000 0.14849900 10509.24173999 0 -1.70915728 0 3277.71817141 0 125.16709591 0 1131.43658392 0 23640
0.14950000 0.14949500 10505.42178793 0 170.24585195 0 3322.31749578 0 -96.77422266 0 893.32070253 0 24457
0.15050000 0.15050000 10366.60805168 0 142.77873577 0 3423.13101326 0 -38.44698708 0 1543.92497271 0 24591
0.15150000 0.15149900 10300.99345480 0 181.40675536 0 3071.89472536 0 41.24440995 0 1223.59154338 0 25020
0.15250000 0.15250500 10262.76071721 0 38.95011352 0 3341.47261772 0 254.21504167 0 1763.77705431 0 25297
0.15350000 0.15350100 10192.50681623 0 77.06980269 0 2874.51946314 0 364.92278861 0 1427.20052447 0 25452
0.15450000 0.15450400 10060.12610070 0 220.72568803 0 3172.89647236 0 462.28727690 0 1507.97313403 0 26061
0.15550000 0.15549900 9866.77009239 0 196.76628435 0 2552.35910022 0 122.73007722 0 1587.16240113 0 26128
0.15650000 0.15649500 9680.11284060 0 192.64737952 0 2735.50642505 0 130.85716364 0 1412.41897084 0 26331
0.15750000 0.15749700 9576.78590539 0 120.24876923 0 2733.26981543 0 -118.14281305 0 1477.97820609 0 27345
0.15850000 0.15849900 9511.43704431 0 65.02787438 0 2815.20501909 0 -162.75431697 0 910.90355434 0 26980
0.15950000 0.15949700 9396.46202340 0 187.81873867 0 2472.79337407 0 -45.69825261 0 827.92755215 0 27777
0.16050000 0.16050000 9363.15647034 0 111.12738804 0 2728.95160875 0 -176.54157584 0 607.00034781 0 28224
0.16150000 0.16150500 9172.33602442 0 103.50187794 0 2680.29981350 0 136.03015379 0 607.96031837 0 28075
0.16250000 0.16249700 9098.99294482 0 184.98754521 0 2494.97124068 0 219.05265975 0 148.18092305 0 28590
0.16350000 0.16349900 8942.58528443 0 180.66933853 0 2392.39722356 0 247.33027010 0 367.48492457 0 29163
0.16450000 0.16449100 8826.89056240 0 86.14312998 0 2315.68815722 0 417.05461555 0 454.32406089 0 28996
0.16550000 0.16550500 8675.83083490 0 13.98545348 0 1903.18869610 0 580.96820493 0 857.60359713 0 30777
0.16650000 0.16650700 8768.30689178 0 9.12888822 0 2008.15433538 0 198.54892865 0 774.49804874 0 29211
0.16750000 0.16749900 8681.62166078 0 22.34594450 0 1857.40463298 0 48.32017912 0 591.78254458 0 30922
0.16850000 0.16850800 8595.35717812 0 210.27341340 0 2130.17135488 0 -259.49654061 0 393.18489771 0 30867
0.16950000 0.16949900 8468.91122869 0 276.06738194 0 2176.65297447 0 -481.32060326 0 664.18336934 0 30852
0.17050000 0.17049200 8349.00902323 0 143.95350943 0 2244.98029093 0 -132.97308491 0 699.99901843 0 31257
0.17150000 0.17149500 8333.91744450 0 -95.82720671 0 2172.58943127 0 114.12909530 0 555.02906958 0 32608
0.17250000 0.17250900 8449.86683000 0 -109.94054555 0 2088.96016191 0 428.15240671 0 96.78928102 0 32361
0.17350000 0.17350400 8429.41624606 0 69.17202412 0 1847.31774507 0 241.93804791 0 150.00674941 0 32508
0.17450000 0.17449800 8441.37435686 0 120.73595152 0 1810.62406062 0 -90.97586760 0 -228.90038544 0 32791
0.17550000 0.17549800 8279.66305289 0 210.00878484 0 2039.73260577 0 -271.94847710 0 431.11314637 0 33633
0.17650000 0.17650100 8102.31762627 0 228.66565215 0 2003.37109106 0 -140.01951242 0 281.20161895 0 33984
0.17750000 0.17750300 8080.09547036 0 124.48282624 0 2393.02834608 0 -229.87696449 0 419.81605336 0 34069
0.17850000 0.17849800 8013.60615982 0 99.11613008 0 2431.67075970 0 45.83953547 0 438.49174363 0 34536
