### header ###
fiducial parameters:
Omega_m = 0.31
Omega_nu = 0
Omega_de = 0.69
Omega_k = 0
H_0 = 100
w_de = -1
zeff = 0
beta = 0
fgrowth = 0
b_1 = 2
gamma = 0.55
Lx = 3500 Ly = 3500 Lz = 3500
nx = 700 ny = 700 nz = 700
xoffset = -685.467585 yoffset = -31.7331281 zoffset = 572.489161
bins = 400 dk = 0.001
kx_ny = 0.628318531 ky_ny = 0.628318531 kz_ny = 0.628318531
############################
A(data) = 8.0940324 (not used)
A(ran) = 8.09669912 (used)
Ngal = 481214
weighted Ngal = 0
Nran = 23820508
weighted Nran = 0
SN(data) = 3484.51737
SN(ran) = 70.5251857
SN(data+ran) = 3555.04255
############################
13 columns: k_central k_mean P_0(k) sigma^{lin}_{P_0(k)} P^img_1(k) sigma^{lin}_{P_1(k)} P_2(k) sigma^{lin}_{P_2(k)} P^img_3(k) sigma^{lin}_{P_3(k)} P_4(k) sigma^{lin}_{P_4(k)} N_modes
### header ###
0.00050000 0 0 0 0 0 0 0 0 0 0 0 0
0.00150000 0.00179520 38656.36474635 0 -19181.14189958 0 36963.07411183 0 -59170.72527734 0 -35452.58756007 0 3
0.00250000 0.00253879 65105.26993364 0 -5195.44483000 0 4968.34037565 0 2408.60710710 0 6554.12980850 0 6
0.00350000 0.00331552 67760.96704139 0 -6394.24543812 0 12159.18422284 0 -3028.96732204 0 59734.52805711 0 7
0.00450000 0.00420575 63803.60742796 0 -6108.92269987 0 14954.06045357 0 -28015.97131888 0 27828.95975269 0 24
0.00550000 0.00557378 72828.10577140 0 13986.22854117 0 52570.73389944 0 -2684.42979066 0 -11711.86230017 0 45
0.00650000 0.00659388 65724.98795374 0 18223.16435627 0 58238.87842061 0 17330.84569914 0 28447.01692407 0 40
0.00750000 0.00754703 46008.60987242 0 12978.64698267 0 43527.30188057 0 11681.08123718 0 124.47396838 0 57
0.00850000 0.00846663 55536.78827186 0 -4208.41350637 0 57208.93076597 0 9780.31738021 0 -24187.16139659 0 75
0.00950000 0.00948925 65474.64268959 0 -2601.12161872 0 70041.53378429 0 -4280.39469002 0 -43721.06756489 0 112
0.01050000 0.01054430 64692.60438765 0 5725.46594675 0 71894.81951243 0 -7215.54620387 0 -25854.21062128 0 105
0.01150000 0.01145670 64467.50402409 0 6759.00103462 0 63167.72381363 0 339.19734912 0 -20828.92527909 0 144
0.01250000 0.01249090 72816.59055359 0 -6690.69586281 0 69519.80583883 0 23096.20523221 0 -20622.20497473 0 169
0.01350000 0.01339930 74493.16197763 0 -11598.59241728 0 60717.63977776 0 14194.94186400 0 -52392.58019311 0 180
0.01450000 0.01448870 86217.75745134 0 -860.15908970 0 51904.06922211 0 10954.22740213 0 -41040.12555655 0 267
0.01550000 0.01550050 76842.48785765 0 -1629.81299633 0 43440.38413074 0 5206.02997253 0 -12204.35930810 0 238
0.01650000 0.01653350 78209.25563326 0 6497.90454307 0 35846.43015387 0 5927.33657284 0 -23540.09473419 0 315
0.01750000 0.01747870 76514.41487327 0 1387.40658908 0 34698.45151667 0 7472.95561125 0 -17647.84635870 0 297
0.01850000 0.01844180 74114.37774558 0 4380.14526431 0 34544.43547845 0 9412.51689438 0 -22091.50247816 0 388
0.01950000 0.01947590 67071.49337494 0 11502.15246811 0 37860.48603838 0 1953.56777403 0 11697.24683141 0 399
0.02050000 0.02045430 64011.76713455 0 3200.55513975 0 34646.74375977 0 12330.69453429 0 6340.27892695 0 462
0.02150000 0.02154770 68947.92026195 0 -8833.06891965 0 37355.47730340 0 9581.81274086 0 10047.78045853 0 571
0.02250000 0.02255340 73722.52817025 0 -4323.99750515 0 42365.81500709 0 6772.83036832 0 9547.65461879 0 510
0.02350000 0.02348930 79536.93810226 0 3172.40929006 0 51441.91038418 0 -3116.73764088 0 11750.50471379 0 555
0.02450000 0.02439640 76404.57741107 0 8458.66932823 0 49752.71650985 0 3418.96781913 0 31880.65557358 0 592
0.02550000 0.02547300 72203.62665163 0 5750.04650784 0 49986.78545652 0 -727.83705749 0 25527.24486939 0 837
0.02650000 0.02652900 72066.99416336 0 -1950.74433120 0 53605.11048400 0 9550.34519372 0 8728.41330546 0 723
0.02750000 0.02749970 70821.91123751 0 661.63230570 0 52366.89239953 0 10502.36582628 0 -1668.15645718 0 826
0.02850000 0.02848090 70775.51819652 0 4193.52122949 0 45392.43499627 0 13382.67611531 0 607.45763483 0 831
0.02950000 0.02946900 68345.14289882 0 202.22604772 0 37944.08209076 0 12622.78246300 0 -5780.04143578 0 996
0.03050000 0.03053250 66862.78005210 0 -1058.54304071 0 23603.20698565 0 6103.77406883 0 -1946.51470312 0 1041
0.03150000 0.03150510 67105.15324238 0 1055.94990223 0 28868.87249966 0 5962.67943366 0 -10854.65398504 0 1036
0.03250000 0.03246190 63643.72305758 0 5286.84687138 0 21708.17859294 0 -3216.18926240 0 -7423.51768094 0 1059
0.03350000 0.03345080 60993.22994249 0 6545.28302097 0 28997.75436055 0 3210.81918486 0 -9165.49332768 0 1302
0.03450000 0.03451200 53627.36585689 0 5617.10110375 0 21792.88187780 0 4829.10589105 0 4182.39354305 0 1339
0.03550000 0.03553350 50485.48296635 0 2480.20075938 0 24497.40793801 0 10414.87231556 0 2123.53903232 0 1365
0.03650000 0.03647120 48281.31526470 0 644.37940917 0 17574.21539865 0 11045.08689959 0 -1053.52395587 0 1308
0.03750000 0.03744890 48577.83212334 0 -1785.47881096 0 13896.43198689 0 8155.15476030 0 -456.38462054 0 1579
0.03850000 0.03847530 46530.11637138 0 100.74564412 0 10347.27577255 0 1520.40735480 0 691.00054005 0 1662
0.03950000 0.03950240 48097.29322621 0 1767.26483663 0 9130.18368383 0 -3324.24408030 0 -1965.61446343 0 1683
0.04050000 0.04050350 44771.38829719 0 -33.28019743 0 9599.21843547 0 -2896.01084562 0 1784.32728917 0 1822
0.04150000 0.04152450 45576.34631150 0 -135.76220353 0 12935.68636238 0 770.12005151 0 -1735.13295001 0 1887
0.04250000 0.04250150 45660.60670337 0 1158.27589928 0 14662.30469460 0 -898.78932376 0 2062.22049747 0 1920
0.04350000 0.04349210 45887.25719241 0 1507.78490450 0 14947.08488893 0 173.37710541 0 -1612.89448401 0 2005
0.04450000 0.04448520 44143.69820322 0 1704.70620140 0 16368.54994915 0 -3845.45162649 0 4400.06437666 0 2151
0.04550000 0.04548030 43108.87872567 0 2015.69458858 0 20474.83233139 0 -2224.82865976 0 3023.77440170 0 2274
0.04650000 0.04648670 42688.24110581 0 2319.25344581 0 24004.13586734 0 -2103.61991997 0 3214.08552068 0 2311
0.04750000 0.04749250 40918.10853705 0 2354.20877527 0 23843.36571097 0 1326.92955092 0 6821.31607870 0 2568
0.04850000 0.04851840 38796.54037855 0 816.76000534 0 21610.07779505 0 2887.67338503 0 2701.92406387 0 2493
0.04950000 0.04949480 40467.24347044 0 98.63282310 0 22715.98159793 0 4479.72975373 0 4753.19403210 0 2644
0.05050000 0.05050630 40016.15695733 0 -911.43613317 0 19395.39138482 0 1207.90205912 0 -372.03454284 0 2829
0.05150000 0.05149060 40117.91162241 0 129.19299322 0 18509.93756908 0 2364.50603735 0 -486.57109969 0 2784
0.05250000 0.05249300 39555.65896812 0 1155.30851623 0 16430.55496813 0 -1124.07348791 0 -2525.40906161 0 3055
0.05350000 0.05348950 37164.25825379 0 2606.05987559 0 17038.75777042 0 -1144.52407185 0 -3018.67005996 0 3009
0.05450000 0.05448610 36917.89902657 0 1094.75397179 0 16721.09277138 0 563.43407135 0 -5334.71253157 0 3336
0.05550000 0.05550870 34109.29311307 0 903.96674284 0 15847.37561994 0 2212.20620947 0 -5126.57496963 0 3349
0.05650000 0.05647670 34956.54740820 0 984.76924767 0 16229.81371917 0 1227.12361500 0 -5269.99479301 0 3324
0.05750000 0.05747970 33919.62418893 0 -343.53659322 0 15057.58669062 0 3000.93219560 0 -4983.17729091 0 3639
0.05850000 0.05849280 33912.53790105 0 879.44265060 0 16299.23719578 0 1121.15039416 0 -472.27229942 0 3846
0.05950000 0.05951020 33746.89592176 0 867.39374674 0 15728.56957463 0 3006.03653734 0 2075.47407028 0 3787
0.06050000 0.06049470 32817.92786947 0 94.69561512 0 16317.94942473 0 2371.17157689 0 5341.24520322 0 3930
0.06150000 0.06148310 32818.26003922 0 428.91639713 0 14902.02052692 0 1314.40675155 0 3751.31472088 0 4083
0.06250000 0.06249100 32483.76510645 0 864.60573535 0 15437.36743190 0 1970.87381772 0 5562.69169959 0 4303
0.06350000 0.06350600 32116.27464572 0 687.14294208 0 13663.69171920 0 1116.04605242 0 4205.11395357 0 4470
0.06450000 0.06451750 30677.97965178 0 182.34901021 0 13225.33837963 0 2215.81578736 0 4005.97819171 0 4479
0.06550000 0.06550280 30268.08218699 0 584.62317935 0 10556.96345996 0 711.52752303 0 2598.30924822 0 4636
0.06650000 0.06648880 29665.30482386 0 603.83587738 0 9761.68265754 0 886.68948720 0 -501.41576557 0 4653
0.06750000 0.06749660 29442.08675552 0 265.33829919 0 9606.30472336 0 -581.75655446 0 -187.91063896 0 5220
0.06850000 0.06852730 28573.68431999 0 634.52282561 0 9916.28552898 0 -258.75358762 0 -782.36714999 0 5029
0.06950000 0.06949320 29731.73877277 0 -701.10514368 0 8613.91439451 0 -1264.86917031 0 -1836.82118114 0 5040
0.07050000 0.07048030 29308.11162521 0 -73.21818377 0 10574.57952875 0 581.57496833 0 -1530.83748478 0 5475
0.07150000 0.07148790 30794.34978562 0 346.64680926 0 11721.16305302 0 -602.74746785 0 -209.95120875 0 5509
0.07250000 0.07249820 29393.14707982 0 35.58933077 0 12054.99364630 0 -214.79756532 0 -1575.94613609 0 5916
0.07350000 0.07351270 29575.61899283 0 1159.08417899 0 13029.02606060 0 1115.82460592 0 84.98529698 0 5721
0.07450000 0.07449140 29505.53117673 0 503.76531290 0 12694.19895808 0 79.10832841 0 1075.02419620 0 6028
0.07550000 0.07549160 28674.44247584 0 340.74968906 0 13085.71636367 0 2224.89509371 0 1376.07960079 0 6183
0.07650000 0.07648840 29140.03373447 0 116.03242794 0 12335.45563396 0 593.80767279 0 1217.62356031 0 6330
0.07750000 0.07749960 27759.64699932 0 764.12770931 0 12262.71045990 0 -553.28628565 0 150.18944277 0 6583
0.07850000 0.07848650 27972.23563584 0 1168.18562999 0 12437.43174554 0 372.90372033 0 -622.39973717 0 6549
0.07950000 0.07947320 25825.97619300 0 1224.31124450 0 10935.49302854 0 -371.77545044 0 4.24008036 0 6828
0.08050000 0.08048110 25526.58052990 0 926.75248009 0 11065.73678538 0 1254.47225730 0 -1564.44199060 0 7147
0.08150000 0.08149960 24377.82682997 0 349.20673076 0 9115.74537227 0 1299.32624514 0 -2193.78186097 0 7386
0.08250000 0.08250610 24184.50403863 0 301.93454718 0 8412.30950421 0 1877.79985529 0 -3030.56173681 0 7227
0.08350000 0.08350160 23744.48985034 0 544.74620152 0 7901.31064151 0 1543.19419927 0 -2579.94026134 0 7798
0.08450000 0.08449610 23459.70965600 0 -378.27933403 0 6802.51527116 0 673.29257097 0 -1805.07682588 0 7371
0.08550000 0.08548940 23654.47184956 0 -158.69630993 0 6564.84781892 0 228.24490381 0 -1356.23799471 0 8256
0.08650000 0.08650700 24114.96983877 0 -365.71335260 0 6870.58792414 0 564.44608184 0 -1278.11167079 0 8037
0.08750000 0.08749060 23802.28738589 0 637.01631316 0 7624.13713432 0 -290.42375830 0 207.21413005 0 8155
0.08850000 0.08849210 23092.44064177 0 1225.81708067 0 7243.28237754 0 -471.74636399 0 382.07381975 0 8718
0.08950000 0.08949900 22735.91178261 0 637.77144572 0 7886.57337718 0 69.73383388 0 105.42879463 0 8571
0.09050000 0.09049190 21502.89769080 0 929.68000277 0 8177.10010809 0 280.79194294 0 731.77659066 0 8932
0.09150000 0.09150830 20939.86997378 0 1068.53470662 0 8360.35815617 0 675.31216301 0 692.08562788 0 9285
0.09250000 0.09250820 19888.77417874 0 548.48643284 0 7762.67406246 0 874.12129130 0 740.75624609 0 9204
0.09350000 0.09350330 19496.37098717 0 273.82523616 0 6607.03337648 0 1827.19933087 0 -264.65070782 0 9349
0.09450000 0.09448040 19516.96551133 0 -43.23621046 0 7031.71239490 0 369.35171853 0 98.27751220 0 9564
0.09550000 0.09549270 19161.10099166 0 120.58426067 0 6141.99573410 0 197.10177579 0 1231.23144751 0 10155
0.09650000 0.09649430 19421.30062490 0 324.66824449 0 6777.83505914 0 -471.34554583 0 725.61816360 0 9913
0.09750000 0.09749140 18934.33977937 0 569.53270786 0 6441.70142229 0 -158.80260425 0 486.46701984 0 10476
0.09850000 0.09850240 18154.07304940 0 663.93645650 0 6434.13902444 0 63.42903068 0 589.08754072 0 10575
0.09950000 0.09950330 17828.10380674 0 540.69926680 0 6977.20333982 0 -87.95345509 0 -609.26353101 0 10882
0.10050000 0.10051200 17305.71152180 0 391.29485186 0 6973.09550731 0 -232.63840230 0 -540.46231905 0 10875
0.10150000 0.10150300 17234.07358022 0 117.42643363 0 7036.87209827 0 169.10983142 0 -911.40845235 0 11118
0.10250000 0.10250800 16831.48384982 0 339.18627680 0 6294.20698338 0 492.56233465 0 -759.36107348 0 11575
0.10350000 0.10349800 16880.20207902 0 113.07500998 0 5830.25442883 0 398.39110483 0 -561.31261391 0 11364
0.10450000 0.10450100 16693.96557557 0 335.52465898 0 5942.98176781 0 643.97859101 0 -982.72972544 0 12093
0.10550000 0.10551000 16323.48558714 0 402.00400442 0 5885.19530458 0 438.39209271 0 -734.79047747 0 12067
0.10650000 0.10649700 16114.99371080 0 300.77527477 0 5905.71232247 0 571.33638957 0 -382.06939082 0 12054
0.10750000 0.10749900 15943.26195287 0 96.25326977 0 5863.23888447 0 22.80157067 0 810.85402728 0 12807
0.10850000 0.10850100 15685.83040083 0 280.68343415 0 6229.11278577 0 147.74135175 0 1046.94367323 0 12736
0.10950000 0.10950300 15663.46430470 0 100.86134992 0 5889.84568101 0 85.81417121 0 1503.34490225 0 12933
0.11050000 0.11050200 15446.22529176 0 231.10377808 0 5826.26839190 0 1081.12947610 0 1423.38057241 0 13428
0.11150000 0.11150900 15401.93599248 0 -14.06251686 0 5480.14751807 0 648.35658824 0 1033.37896809 0 13453
0.11250000 0.11250000 15305.71748981 0 -219.97941333 0 5326.30863704 0 762.55765366 0 1336.47389491 0 13668
0.11350000 0.11349100 15196.98726009 0 343.61077779 0 4561.13348579 0 330.37492071 0 454.03507321 0 13791
0.11450000 0.11448600 14962.36469718 0 176.19058314 0 4136.90843269 0 324.95501771 0 909.95797780 0 14205
0.11550000 0.11549300 14908.66392181 0 101.20857802 0 3963.30545186 0 207.03143669 0 569.31126136 0 14776
0.11650000 0.11649800 14867.03198049 0 87.66158861 0 4414.92343656 0 -110.74982177 0 1010.30645763 0 14553
0.11750000 0.11747300 14741.36109380 0 78.02966252 0 4160.02744691 0 207.73563655 0 297.40707356 0 14568
0.11850000 0.11849100 14721.32018588 0 378.95696031 0 4314.26493164 0 -113.28870585 0 522.57719277 0 16015
0.11950000 0.11950300 14720.76656964 0 104.32189432 0 4437.75457034 0 -224.21900651 0 824.05998909 0 15270
0.12050000 0.12050700 14529.21535028 0 38.57310086 0 4718.61516169 0 392.26146582 0 997.48913442 0 15999
0.12150000 0.12150000 14574.05826579 0 27.96880322 0 4213.22996767 0 418.26260619 0 1136.96167400 0 15670
0.12250000 0.12250700 14530.32258276 0 173.40921515 0 4404.89191028 0 458.11301044 0 501.30061340 0 16887
0.12350000 0.12352200 14182.20869046 0 353.25587994 0 3864.42959123 0 123.19954379 0 749.80897886 0 16407
0.12450000 0.12449800 14084.55078556 0 314.13846359 0 4224.54588363 0 -347.65328359 0 883.24156525 0 16306
0.12550000 0.12549900 13709.53114395 0 344.42016474 0 4327.19740702 0 -357.95608183 0 1133.54032563 0 17523
0.12650000 0.12650100 13572.45576270 0 335.37628983 0 4811.01371230 0 -258.14350252 0 807.52236474 0 17154
0.12750000 0.12750600 13347.35539913 0 171.14492472 0 4664.77044610 0 5.49845007 0 1065.99471531 0 18007
0.12850000 0.12850300 13510.00785072 0 -134.78230278 0 4731.28190128 0 644.57538932 0 848.43128325 0 17496
0.12950000 0.12949900 13261.87705153 0 -107.10414810 0 4423.59306690 0 553.37597148 0 854.80894235 0 18405
0.13050000 0.13049000 13333.95788610 0 171.91445130 0 4037.64504069 0 820.02080500 0 -10.87250257 0 18100
0.13150000 0.13148800 13188.91043098 0 186.92520205 0 3737.98364180 0 206.80334680 0 138.03535182 0 19059
0.13250000 0.13249300 12709.25731983 0 438.54821249 0 3536.60019800 0 -192.69277605 0 -84.49457154 0 18957
0.13350000 0.13349100 12305.11746395 0 408.99064138 0 3305.34362184 0 55.48020869 0 -30.18038937 0 19468
0.13450000 0.13450700 12197.05157372 0 -2.06807776 0 3309.72826246 0 343.82668813 0 -422.59520689 0 19953
0.13550000 0.13551000 11984.35221396 0 27.80360413 0 2634.89220942 0 662.61220645 0 -629.21364586 0 19956
0.13650000 0.13649900 12143.68296810 0 226.66045413 0 2814.90606632 0 300.54054148 0 -346.68777686 0 19723
0.13750000 0.13749600 11878.50078869 0 148.55184593 0 2323.91489456 0 98.42222748 0 3.92662284 0 20946
0.13850000 0.13851100 11777.07829335 0 167.03377052 0 2529.51689412 0 -18.31783273 0 -273.58496671 0 20955
0.13950000 0.13949800 11498.49860092 0 196.71535166 0 2381.81208104 0 239.74019144 0 -142.62150876 0 20506
0.14050000 0.14048300 11398.29406131 0 97.88732347 0 2258.10099584 0 -6.70282006 0 57.43480619 0 21447
0.14150000 0.14148400 11313.81222294 0 166.57316180 0 2491.02949305 0 149.69229539 0 3.27356605 0 21771
0.14250000 0.14249400 11238.18824443 0 148.32818497 0 2475.97113130 0 186.62292759 0 51.98146477 0 22470
0.14350000 0.14350900 11178.61913691 0 -5.87899480 0 2511.66830651 0 96.29600895 0 189.74975211 0 22519
0.14450000 0.14449900 11228.33387534 0 71.87046040 0 2403.48062071 0 -179.11589136 0 210.49596713 0 22218
0.14550000 0.14550500 11264.87254724 0 326.38556207 0 2762.71112712 0 -393.90127712 0 263.67634323 0 23559
0.14650000 0.14650700 11105.76323960 0 304.27634388 0 3058.32005513 0 -754.98307625 0 336.99506372 0 23044
0.14750000 0.14750500 10742.82350437 0 351.70464724 0 3545.07052649 0 -319.61704991 0 312.56508624 0 23649
0.14850000 0.14849900 10492.31215535 0 359.46856140 0 3710.70143345 0 30.44258203 0 399.16063141 0 23640
0.14950000 0.14949500 10261.94136517 0 315.66976611 0 3749.98604190 0 260.21402726 0 326.44092370 0 24457
0.15050000 0.15050000 10085.32671199 0 58.05197758 0 3805.63554644 0 262.21922529 0 386.04767713 0 24591
0.15150000 0.15149900 10140.76584235 0 167.85422979 0 3774.87662810 0 230.48040619 0 937.02981198 0 25020
0.15250000 0.15250500 9893.33259963 0 89.82190990 0 3527.12228795 0 299.28161815 0 1146.46172870 0 25297
0.15350000 0.15350100 9893.06686384 0 -24.45223285 0 3583.36969803 0 342.46700664 0 1752.00717303 0 25452
0.15450000 0.15450400 9864.48919348 0 52.37353579 0 3433.05181630 0 636.22242747 0 1163.94492959 0 26061
0.15550000 0.15549900 9834.25067440 0 39.96389558 0 3441.32284293 0 294.62349110 0 1158.92916644 0 26128
0.15650000 0.15649500 9749.33701537 0 124.65887620 0 3163.65108113 0 74.38465319 0 976.21034059 0 26331
0.15750000 0.15749700 9647.77057980 0 177.97544190 0 3109.10880908 0 -58.74421933 0 1028.73744953 0 27345
0.15850000 0.15849900 9424.09854614 0 137.39758591 0 2878.40584915 0 -251.14690047 0 859.77155833 0 26980
0.15950000 0.15949700 9348.14239789 0 161.25069526 0 2772.86444898 0 308.38306915 0 732.75538417 0 27777
0.16050000 0.16050000 9194.11528733 0 47.58863062 0 2714.86761158 0 132.26113442 0 418.54605770 0 28224
0.16150000 0.16150500 9126.91734801 0 118.93891320 0 2412.50456544 0 377.23742827 0 400.29886640 0 28075
0.16250000 0.16249700 9033.09046750 0 5.22636983 0 2291.56156144 0 309.29210702 0 243.76276704 0 28590
0.16350000 0.16349900 9054.85865809 0 83.51478152 0 2334.76577288 0 -137.76186539 0 107.67437282 0 29163
0.16450000 0.16449100 8929.06597583 0 185.55001931 0 2397.22475719 0 -264.17349062 0 421.11926599 0 28996
0.16550000 0.16550500 8811.32287370 0 112.23794222 0 2222.81349664 0 94.99633946 0 476.98246640 0 30777
0.16650000 0.16650700 8830.50014029 0 2.71521085 0 2217.21090028 0 40.26628077 0 524.51152791 0 29211
0.16750000 0.16749900 8768.01901134 0 -7.93498158 0 2186.62913914 0 394.33420502 0 -10.82929836 0 30922
0.16850000 0.16850800 8878.97477835 0 3.75884390 0 1978.64658974 0 222.42086096 0 -7.02577763 0 30867
0.16950000 0.16949900 8748.68673221 0 165.26662748 0 1859.80732746 0 -64.49429905 0 -239.80441092 0 30852
0.17050000 0.17049200 8620.84566985 0 368.88446643 0 1918.91139735 0 -324.87529697 0 -274.12529616 0 31257
0.17150000 0.17149500 8320.76352261 0 279.37136366 0 2183.82784096 0 -367.76062546 0 -36.71095728 0 32608
0.17250000 0.17250900 8189.11358052 0 230.57230649 0 2414.78546435 0 -96.04887466 0 -35.14765573 0 32361
0.17350000 0.17350400 8082.22135672 0 26.64676763 0 2322.28726281 0 111.54370746 0 126.81797954 0 32508
0.17450000 0.17449800 8122.29210024 0 -59.90869573 0 2380.62734228 0 235.04663295 0 -128.74124236 0 32791
0.17550000 0.17549800 8124.99374750 0 -75.55001538 0 2183.24100774 0 458.55811790 0 407.68964322 0 33633
0.17650000 0.17650100 8280.16130750 0 -114.37490091 0 2103.61991997 0 324.55752125 0 188.25277380 0 33984
0.17750000 0.17750300 8198.70221381 0 84.61758507 0 1931.98781296 0 353.85489272 0 478.36761423 0 34069
0.17850000 0.17849800 8188.34959011 0 272.56852729 0 1906.06750056 0 81.10799027 0 408.11592772 0 34536
