### header ###
fiducial parameters:
Omega_m = 0.31
Omega_nu = 0
Omega_de = 0.69
Omega_k = 0
H_0 = 100
w_de = -1
zeff = 0
beta = 0
fgrowth = 0
b_1 = 2
gamma = 0.55
Lx = 3500 Ly = 3500 Lz = 3500
nx = 700 ny = 700 nz = 700
xoffset = -685.467585 yoffset = -31.7331281 zoffset = 572.489161
bins = 400 dk = 0.001
kx_ny = 0.628318531 ky_ny = 0.628318531 kz_ny = 0.628318531
############################
A(data) = 8.10406753 (not used)
A(ran) = 8.10202737 (used)
Ngal = 481402
weighted Ngal = 0
Nran = 23820508
weighted Nran = 0
SN(data) = 3492.00524
SN(ran) = 70.5715968
SN(data+ran) = 3562.57684
############################
13 columns: k_central k_mean P_0(k) sigma^{lin}_{P_0(k)} P^img_1(k) sigma^{lin}_{P_1(k)} P_2(k) sigma^{lin}_{P_2(k)} P^img_3(k) sigma^{lin}_{P_3(k)} P_4(k) sigma^{lin}_{P_4(k)} N_modes
### header ###
0.00050000 0 0 0 0 0 0 0 0 0 0 0 0
0.00150000 0.00179520 74023.58468207 0 -67214.43708834 0 16892.27091307 0 92421.47032398 0 -95816.24511338 0 3
0.00250000 0.00253879 108319.33574509 0 -37510.15768112 0 19349.77340657 0 2219.76860732 0 115099.03095479 0 6
0.00350000 0.00331552 99516.17317477 0 14280.42021160 0 24486.33561319 0 -79499.29219788 0 44427.59261157 0 7
0.00450000 0.00420575 75901.78314105 0 32684.50635541 0 -5565.20511732 0 -12243.99823096 0 41771.23116433 0 24
0.00550000 0.00557378 49902.52506465 0 8832.16098901 0 -14599.85678262 0 21695.00252641 0 12816.21597758 0 45
0.00650000 0.00659388 51173.73867707 0 -4704.69724939 0 -34869.18676538 0 23291.85321175 0 202.15075591 0 40
0.00750000 0.00754703 51246.92674413 0 -4408.43505422 0 -29178.23325509 0 110.57521120 0 5974.71505074 0 57
0.00850000 0.00846663 47069.78148304 0 -2353.84338855 0 -19710.62047241 0 -19001.21662128 0 19127.44112421 0 75
0.00950000 0.00948925 55392.84804922 0 -4486.30671467 0 -27974.89299380 0 2179.43212800 0 10077.35463812 0 112
0.01050000 0.01054430 64283.14981586 0 -6736.02596062 0 -15827.44543526 0 -17274.04467282 0 12941.88686427 0 105
0.01150000 0.01145670 59812.92011682 0 -3812.30108598 0 -19508.55054447 0 -11571.79739122 0 3995.84701450 0 144
0.01250000 0.01249090 68651.62484980 0 306.72111320 0 -9208.09963358 0 -1915.05822831 0 12986.95122629 0 169
0.01350000 0.01339930 71534.08316984 0 -8018.76586319 0 -18157.94836309 0 -6671.55181320 0 182.32465109 0 180
0.01450000 0.01448870 73599.07174852 0 -898.37078988 0 9914.55824631 0 -13056.70687264 0 -2097.56335829 0 267
0.01550000 0.01550050 71997.34924025 0 6380.68184022 0 7578.48593910 0 -8861.83481953 0 25934.59569947 0 238
0.01650000 0.01653350 72585.51113462 0 -538.67967475 0 15745.17806186 0 136.30917638 0 14548.70264196 0 315
0.01750000 0.01747870 77012.00515062 0 -5151.76450859 0 11754.49075072 0 14655.43985321 0 16905.33625636 0 297
0.01850000 0.01844180 84464.89770930 0 -4547.48130929 0 36714.61114290 0 -4698.09814380 0 3483.08765215 0 388
0.01950000 0.01947590 87769.87594442 0 1698.52784415 0 28818.38269848 0 -3314.50043446 0 9890.80810957 0 399
0.02050000 0.02045430 84228.94646741 0 5019.00733402 0 34584.84946403 0 -1030.35068725 0 3460.85442391 0 462
0.02150000 0.02154770 85995.75733872 0 -769.62179689 0 33848.87203334 0 -2101.47188895 0 -1300.23417578 0 571
0.02250000 0.02255340 79039.45854816 0 -3240.78089582 0 33729.62309504 0 -1293.54649159 0 -1741.52168143 0 510
0.02350000 0.02348930 87915.03412279 0 6347.76381853 0 36531.36416715 0 12994.70185366 0 -9139.97161897 0 555
0.02450000 0.02439640 76127.88001385 0 3659.95696880 0 25482.95557011 0 7365.53191586 0 4151.01457451 0 592
0.02550000 0.02547300 73003.93428952 0 6801.43018332 0 20606.26082699 0 11851.48431613 0 -7967.74459042 0 837
0.02650000 0.02652900 66086.16718932 0 8427.34572132 0 16651.00495527 0 4356.19582572 0 -6626.54281281 0 723
0.02750000 0.02749970 58198.90732801 0 7340.71883594 0 18152.85509367 0 -767.50255392 0 -11172.52935826 0 826
0.02850000 0.02848090 55062.00698364 0 2480.53292912 0 17929.74774858 0 -1472.78528575 0 3626.67356040 0 831
0.02950000 0.02946900 55218.56965657 0 -5437.85123726 0 21685.25888057 0 -3151.54903011 0 -4569.05019804 0 996
0.03050000 0.03053250 59505.88454960 0 -3392.09528679 0 23871.60013926 0 4956.94695341 0 549.48626377 0 1041
0.03150000 0.03150510 59237.71284250 0 3615.65659720 0 26683.97064319 0 2708.17992739 0 -1978.34763697 0 1036
0.03250000 0.03246190 54614.13144472 0 7114.47802292 0 17843.49433824 0 2056.01999557 0 1947.74373117 0 1059
0.03350000 0.03345080 51509.23011908 0 4145.81058185 0 19170.95536075 0 6038.61343727 0 8249.33595521 0 1302
0.03450000 0.03451200 47816.38834557 0 2376.98454742 0 16790.07335500 0 3053.54788314 0 7033.50611152 0 1339
0.03550000 0.03553350 46926.28415339 0 -196.51937151 0 18579.36104569 0 3124.76507637 0 1998.76500394 0 1365
0.03650000 0.03647120 44730.97431160 0 109.86613952 0 19468.35800538 0 -654.23045656 0 3151.68189800 0 1308
0.03750000 0.03744890 45098.90766532 0 2701.92406387 0 20547.68822870 0 -3601.34008121 0 -561.72893333 0 1579
0.03850000 0.03847530 44085.23632818 0 1569.19201795 0 20279.40579834 0 -2019.74705947 0 -537.42960928 0 1662
0.03950000 0.03950240 43430.64048490 0 -102.74187356 0 22314.60982326 0 -1848.09280781 0 705.96367981 0 1683
0.04050000 0.04050350 45996.43031512 0 -2283.29053480 0 21556.04484993 0 2846.51755368 0 3674.83817336 0 1822
0.04150000 0.04152450 47273.51225971 0 -1611.26685226 0 21698.21350060 0 5069.28676102 0 -2323.97025619 0 1887
0.04250000 0.04250150 47583.86952437 0 554.15878485 0 20696.05738127 0 -11.78637905 0 -616.44393365 0 1920
0.04350000 0.04349210 45234.98653735 0 4570.03563495 0 22978.39569614 0 1865.34348987 0 92.07689958 0 2005
0.04450000 0.04448520 42187.88274725 0 3595.06207304 0 22715.98159793 0 1222.19643046 0 3078.98101324 0 2151
0.04550000 0.04548030 39221.49620509 0 2135.63001102 0 21167.73841854 0 1584.18394575 0 3126.06053837 0 2274
0.04650000 0.04648670 38980.11952404 0 1162.28408086 0 19314.34196715 0 2513.42880616 0 1045.88626621 0 2311
0.04750000 0.04749250 39059.28664650 0 -1540.89115571 0 18737.69529060 0 1754.52059076 0 1776.35521531 0 2568
0.04850000 0.04851840 39792.60671924 0 -358.53959335 0 16990.48243421 0 1331.30311922 0 -565.52120458 0 2493
0.04950000 0.04949480 39508.82303413 0 1103.06818050 0 17829.87537871 0 401.46588944 0 -935.88714806 0 2644
0.05050000 0.05050630 38508.88137976 0 1161.22113768 0 14675.81293087 0 3221.14966392 0 192.02843656 0 2829
0.05150000 0.05149060 38458.61302509 0 -572.63185158 0 13053.05300545 0 4387.54157729 0 468.67047216 0 2784
0.05250000 0.05249300 38127.32906651 0 -590.82589572 0 14003.39064464 0 3834.85541164 0 859.05850061 0 3055
0.05350000 0.05348950 38402.80850800 0 1305.90320609 0 14445.17640490 0 2512.56516482 0 3251.18888115 0 3009
0.05450000 0.05448610 36754.47151225 0 1797.83552545 0 13208.50844591 0 2314.71379264 0 5163.50117290 0 3336
0.05550000 0.05550870 36107.84774284 0 760.05530825 0 12634.96202030 0 2043.34218366 0 9083.43632845 0 3349
0.05650000 0.05647670 35920.17183716 0 -656.69183437 0 11581.87320680 0 756.36379515 0 5766.94287552 0 3324
0.05750000 0.05747970 35932.46211771 0 888.93052574 0 13338.94043227 0 841.96947449 0 4107.63320587 0 3639
0.05850000 0.05849280 34405.92069497 0 2596.75912274 0 11962.87190381 0 -1733.02920829 0 6181.15854698 0 3846
0.05950000 0.05951020 32893.10895499 0 1093.57144750 0 10739.16963718 0 154.89296635 0 6068.94053495 0 3787
0.06050000 0.06049470 33052.21826264 0 -1228.65159583 0 9452.48798698 0 2108.62461079 0 4941.01387800 0 3930
0.06150000 0.06148310 33544.93671707 0 -1357.02412977 0 9796.67120397 0 2836.31994252 0 4176.38127067 0 4083
0.06250000 0.06249100 34834.08749570 0 670.41155205 0 11033.69347735 0 1628.03035203 0 4699.50432905 0 4303
0.06350000 0.06350600 33512.27335885 0 792.10304520 0 10281.04112548 0 -1842.35734355 0 5183.40921293 0 4470
0.06450000 0.06451750 33053.32549512 0 1837.43015900 0 13903.07538178 0 -26.29090311 0 7169.79535772 0 4479
0.06550000 0.06550280 32237.29515599 0 867.14794112 0 13565.14802832 0 -1087.01109505 0 7109.34046421 0 4636
0.06650000 0.06648880 31237.79639461 0 347.12402646 0 14899.80606196 0 -239.84205683 0 7012.86729806 0 4653
0.06750000 0.06749660 31769.60015565 0 -205.06831350 0 14327.92048507 0 472.99089330 0 5652.61004944 0 5220
0.06850000 0.06852730 30966.52443655 0 520.03609422 0 14215.97928116 0 1855.71056728 0 3388.31962403 0 5029
0.06950000 0.06949320 30874.29197081 0 770.87186236 0 13961.75870332 0 286.34471383 0 2290.93043893 0 5040
0.07050000 0.07048030 30319.45777415 0 1122.49014546 0 13734.11170505 0 209.32562239 0 1700.98590026 0 5475
0.07150000 0.07148790 29611.38260199 0 412.95453367 0 12630.09019738 0 -2061.98797865 0 -2055.08992029 0 5509
0.07250000 0.07249820 29154.64920323 0 1081.22026917 0 14518.69664170 0 -82.85564602 0 -578.30531081 0 5916
0.07350000 0.07351270 27662.43198742 0 1429.27104921 0 15316.23619839 0 -2076.86918321 0 -669.08508754 0 5721
0.07450000 0.07449140 27198.28013102 0 758.97243488 0 14643.14957266 0 971.98846313 0 -1018.20213246 0 6028
0.07550000 0.07549160 27165.28460306 0 -378.78312481 0 13658.59844979 0 1819.58157140 0 14.72718852 0 6183
0.07650000 0.07648840 26949.48499234 0 -72.27781123 0 13308.27009252 0 2118.16895478 0 -230.71513948 0 6330
0.07750000 0.07749960 27164.06664733 0 180.53204170 0 12934.24696015 0 2407.56630857 0 702.87560842 0 6583
0.07850000 0.07848650 26411.03783641 0 765.26040814 0 12687.99845618 0 1190.19741173 0 1281.75446566 0 6549
0.07950000 0.07947320 25842.36323373 0 855.26401490 0 11085.61160843 0 86.61780055 0 1328.39109779 0 6828
0.08050000 0.08048110 25598.66136447 0 612.97940322 0 12372.65864535 0 799.63665501 0 2770.27352498 0 7147
0.08150000 0.08149960 24738.78461905 0 203.04207806 0 11278.82367651 0 21.93084305 0 887.81664986 0 7386
0.08250000 0.08250610 24751.62851584 0 11.90496365 0 11961.21105509 0 676.90768502 0 -367.47938841 0 7227
0.08350000 0.08350160 24099.46858402 0 468.73247718 0 11279.82018575 0 762.50007757 0 -1262.73221162 0 7798
0.08450000 0.08449610 23814.24549670 0 1002.43624915 0 10121.13461045 0 855.94164118 0 195.63026383 0 7371
0.08550000 0.08548940 22828.36569484 0 588.98678257 0 9368.01722094 0 -36.39683542 0 -617.61981455 0 8256
0.08650000 0.08650700 22808.87840316 0 223.50705602 0 9254.11621553 0 1543.00596975 0 -826.33756631 0 8037
0.08750000 0.08749060 22389.12656929 0 807.09054408 0 9584.38152022 0 562.17957695 0 68.97449384 0 8155
0.08850000 0.08849210 21450.19342467 0 709.55997091 0 8469.17696448 0 419.87584391 0 407.45380270 0 8718
0.08950000 0.08949900 21078.49548051 0 534.45779730 0 9243.45356673 0 1277.52483758 0 807.03628968 0 8571
0.09050000 0.09049190 20539.05181534 0 289.75277541 0 8975.94619911 0 822.07693572 0 325.81755181 0 8932
0.09150000 0.09150830 20247.18533312 0 413.61887316 0 8466.56389583 0 602.24589154 0 18.94784802 0 9285
0.09250000 0.09250820 20105.45957544 0 298.75346826 0 8146.79515506 0 249.71414163 0 164.67315087 0 9204
0.09350000 0.09350330 19778.38310030 0 -124.61458690 0 7699.44001542 0 188.07561660 0 428.15019225 0 9349
0.09450000 0.09448040 20155.50648362 0 -223.28118060 0 8022.03219901 0 237.84239496 0 -195.86388988 0 9564
0.09550000 0.09549270 19967.38768495 0 205.08935092 0 7497.17078563 0 362.38722622 0 -789.02826060 0 10155
0.09650000 0.09649430 19364.94249157 0 1164.64248605 0 7122.73797724 0 403.88962134 0 732.54943893 0 9913
0.09750000 0.09749140 18690.30574037 0 704.32719020 0 6987.47845725 0 778.10541217 0 1541.00187896 0 10476
0.09850000 0.09850240 18251.62023106 0 -55.30172282 0 6929.40411358 0 1125.01463552 0 1564.51949687 0 10575
0.09950000 0.09950330 18245.97334540 0 64.58996394 0 7363.89321179 0 497.80397322 0 750.95717894 0 10882
0.10050000 0.10051200 18154.51594240 0 448.07041183 0 7628.17853288 0 -256.77828487 0 1196.38684130 0 10875
0.10150000 0.10150300 17689.14613027 0 431.57929125 0 7281.60369373 0 -822.55415292 0 1342.51938426 0 11118
0.10250000 0.10250800 17245.47807479 0 489.16977433 0 7282.97666201 0 -226.67927708 0 1651.30437880 0 11575
0.10350000 0.10349800 17290.32099030 0 76.67119899 0 7242.99449709 0 801.13252609 0 1651.94657364 0 11364
0.10450000 0.10450100 17243.15288657 0 -121.76346326 0 6719.48390734 0 1219.05189021 0 1084.46335311 0 12093
0.10550000 0.10551000 17195.87405960 0 71.96092129 0 6158.21668996 0 1204.62465097 0 628.93019435 0 12067
0.10650000 0.10649700 17133.75831737 0 263.37296153 0 6086.23550631 0 242.87033766 0 569.87816439 0 12054
0.10750000 0.10749900 16623.65631297 0 547.58071667 0 6306.27581743 0 -244.74820395 0 2213.98885376 0 12807
0.10850000 0.10850100 16213.53740169 0 667.34119638 0 6311.35801453 0 134.70922544 0 2369.14534145 0 12736
0.10950000 0.10950300 15735.87730901 0 430.06570444 0 6673.34552982 0 215.58702208 0 2500.14201638 0 12933
0.11050000 0.11050200 15548.09068009 0 222.71870649 0 6975.21032135 0 361.66420341 0 2217.63164863 0 13428
0.11150000 0.11150900 15312.80377769 0 121.83211168 0 6679.23600663 0 -197.06855882 0 2053.28513134 0 13453
0.11250000 0.11250000 15257.10998385 0 -19.12068701 0 6714.84460324 0 493.71274920 0 1964.33007375 0 13668
0.11350000 0.11349100 15279.25463349 0 83.86909591 0 6246.50740806 0 249.20038576 0 1418.06585650 0 13791
0.11450000 0.11448600 15116.60218191 0 488.34820782 0 6020.22230574 0 54.37762659 0 994.07442945 0 14205
0.11550000 0.11549300 14730.06732249 0 599.72029424 0 5733.11692320 0 -555.11211202 0 249.22695934 0 14776
0.11650000 0.11649800 14145.55929531 0 354.73292807 0 5943.90077077 0 -624.68838671 0 -179.66397144 0 14553
0.11750000 0.11747300 13908.72226744 0 414.35628999 0 5988.44473352 0 22.47471564 0 277.50567693 0 14568
0.11850000 0.11849100 13851.14617838 0 -75.98493630 0 6063.72546996 0 383.96386560 0 -20.82150682 0 16015
0.11950000 0.11950300 14002.28341216 0 -220.46659563 0 5635.28186110 0 1088.30655705 0 -224.19132570 0 15270
0.12050000 0.12050700 14112.01015111 0 -119.53128258 0 5334.43572345 0 923.00449814 0 244.80135111 0 15999
0.12150000 0.12150000 14214.76132543 0 25.28143926 0 4874.80137558 0 429.44343979 0 657.02400411 0 15670
0.12250000 0.12250700 13954.67241544 0 139.30756194 0 5041.83846779 0 356.86545783 0 943.44068805 0 16887
0.12350000 0.12352200 13961.09436383 0 270.37288528 0 5476.82582062 0 459.10951968 0 1931.60028159 0 16407
0.12450000 0.12449800 13789.69477564 0 127.35941623 0 5000.78228737 0 140.17341774 0 1936.33923661 0 16306
0.12550000 0.12549900 13611.09817631 0 118.82486826 0 5176.66616711 0 296.15036469 0 1933.50472146 0 17523
0.12650000 0.12650100 13585.85327573 0 304.66498248 0 5231.68454914 0 225.05275257 0 1768.20598424 0 17154
0.12750000 0.12750600 13189.24260072 0 397.21522394 0 4814.86688134 0 201.36904978 0 1432.41558946 0 18007
0.12850000 0.12850300 12872.13121792 0 359.95795816 0 4859.99767730 0 134.40362928 0 1949.68138802 0 17496
0.12950000 0.12949900 12801.04689258 0 90.50939055 0 4311.87330948 0 148.99695339 0 1211.66664955 0 18405
0.13050000 0.13049000 12627.10066968 0 -108.72247909 0 4210.30687391 0 389.66832734 0 1435.22795997 0 18100
0.13150000 0.13148800 12668.06827151 0 35.34418950 0 3973.74665416 0 184.76056255 0 715.54345524 0 19059
0.13250000 0.13249300 12647.47374735 0 19.91125100 0 4018.36812318 0 135.74780951 0 1211.66664955 0 18957
0.13350000 0.13349100 12624.00041873 0 160.37044544 0 3897.92337381 0 246.34372596 0 632.79554294 0 19468
0.13450000 0.13450700 12463.45170886 0 199.59083441 0 3665.22739542 0 -38.37335612 0 583.80050562 0 19953
0.13550000 0.13551000 12367.12248294 0 2.23641031 0 3658.25183078 0 250.01087994 0 699.03461894 0 19956
0.13650000 0.13649900 12376.42323579 0 193.61288624 0 3726.09196495 0 -74.98743056 0 -14.19228451 0 19723
0.13750000 0.13749600 12202.91990588 0 203.22809312 0 3350.39691152 0 92.84421169 0 -133.62745931 0 20946
0.13850000 0.13851100 12001.29287093 0 158.12608520 0 3428.20213802 0 -238.45690899 0 -183.04878113 0 20955
0.13950000 0.13949800 11755.81942970 0 407.92880543 0 3388.88431259 0 88.91929398 0 72.22045659 0 20506
0.14050000 0.14048300 11466.49958219 0 296.80916802 0 3532.24877435 0 311.60068674 0 -278.81885465 0 21447
0.14150000 0.14148400 11209.73236965 0 108.25733073 0 3359.85267692 0 366.52273954 0 487.01509992 0 21771
0.14250000 0.14249400 11185.15180855 0 243.91556513 0 3641.33331846 0 424.79970676 0 165.35299161 0 22470
0.14350000 0.14350900 10991.91759581 0 184.99086691 0 3717.21196044 0 53.63567010 0 614.27154352 0 22519
0.14450000 0.14449900 10725.73890717 0 202.19947414 0 3614.13968870 0 -181.15873529 0 493.93308846 0 22218
0.14550000 0.14550500 10566.03169399 0 239.20096922 0 3718.08667410 0 -175.30701162 0 1261.43674961 0 23559
0.14650000 0.14650700 10595.37335476 0 121.72360289 0 3955.89806656 0 21.50876602 0 1336.95000488 0 23044
0.14750000 0.14750500 10509.65141601 0 63.30280618 0 3907.06911411 0 353.38874784 0 979.78448704 0 23649
0.14850000 0.14849900 10299.21081051 0 119.42166656 0 3652.42778793 0 491.88360114 0 1289.87047975 0 23640
0.14950000 0.14949500 10242.89696648 0 231.94859646 0 3703.20546955 0 186.07595474 0 951.68624835 0 24457
0.15050000 0.15050000 10216.54483341 0 148.21746172 0 3457.90918551 0 194.50863732 0 988.32124947 0 24591
0.15150000 0.15149900 9908.29131046 0 129.10441462 0 3333.77735197 0 66.16123755 0 825.58464822 0 25020
0.15250000 0.15250500 9948.18489678 0 134.80887636 0 3161.17088037 0 259.00935832 0 1045.91173255 0 25297
0.15350000 0.15350100 9754.04275341 0 117.36996478 0 3265.27287832 0 85.93906704 0 788.00185609 0 25452
0.15450000 0.15450400 9638.00478931 0 136.01465254 0 2883.66520344 0 217.45381604 0 575.47743905 0 26061
0.15550000 0.15549900 9534.23496111 0 152.47809231 0 3077.50839404 0 91.52450129 0 609.94890791 0 26128
0.15650000 0.15649500 9480.13558205 0 116.05678705 0 2900.89374086 0 98.83743966 0 449.79326557 0 26331
0.15750000 0.15749700 9425.10612770 0 -29.78853980 0 2996.80221844 0 16.52101586 0 639.55962617 0 27345
0.15850000 0.15849900 9343.76882958 0 120.56543772 0 2808.36232235 0 -26.11762123 0 668.78170584 0 26980
0.15950000 0.15949700 9412.72726855 0 79.49043434 0 3095.02481191 0 79.01831041 0 860.05722431 0 27777
0.16050000 0.16050000 9343.55845541 0 93.56690233 0 2912.82970702 0 89.06434144 0 451.97008463 0 28224
0.16150000 0.16150500 9198.35598774 0 55.50346057 0 2915.01095501 0 225.42810438 0 577.72290653 0 28075
0.16250000 0.16249700 9199.40785860 0 194.74226338 0 2540.83281008 0 65.37709551 0 133.10484557 0 28590
0.16350000 0.16349900 8950.93381734 0 188.06786597 0 2666.49262445 0 -63.37311544 0 -11.18758772 0 29163
0.16450000 0.16449100 9018.31998619 0 42.65292039 0 2603.98935085 0 -4.57513998 0 375.32413054 0 28996
0.16550000 0.16550500 8814.94352392 0 66.85425436 0 2766.25427107 0 68.49849460 0 219.16449023 0 30777
0.16650000 0.16650700 8880.22595105 0 52.69031501 0 2701.81334062 0 138.12946658 0 271.59305548 0 29211
0.16750000 0.16749900 8824.96397788 0 129.38232997 0 2795.14196652 0 -51.44013881 0 235.23043354 0 30922
0.16850000 0.16850800 8807.56935559 0 117.72427917 0 2615.50456866 0 71.95959261 0 628.11305678 0 30867
0.16950000 0.16949900 8751.28872854 0 -13.60157598 0 2711.90022853 0 54.88983233 0 438.84827249 0 30852
0.17050000 0.17049200 8691.04420920 0 -33.99768408 0 2717.76856069 0 214.05350509 0 374.12499776 0 31257
0.17150000 0.17149500 8659.02304582 0 59.72068765 0 2330.42542155 0 382.38938101 0 251.26315988 0 32608
0.17250000 0.17250900 8562.87097710 0 180.40138827 0 2286.63437690 0 352.36677226 0 373.10634388 0 32361
0.17350000 0.17350400 8343.83824754 0 141.59621148 0 2187.65886534 0 227.68132248 0 322.33309119 0 32508
0.17450000 0.17449800 8257.68448812 0 204.68188937 0 2056.56253949 0 342.60430347 0 447.64634179 0 32791
0.17550000 0.17549800 8026.09574222 0 278.90189709 0 2041.94707073 0 -41.66039719 0 587.20192380 0 33633
0.17650000 0.17650100 7802.24655136 0 234.89272763 0 2032.19235256 0 -131.06421611 0 387.19255551 0 33984
0.17750000 0.17750300 7766.19506175 0 143.96679622 0 2341.65275892 0 -117.26699215 0 655.29561421 0 34069
0.17850000 0.17849800 7708.61897269 0 -0.69592883 0 2344.58692500 0 -332.33472220 0 892.36294643 0 34536
