### header ###
fiducial parameters:
Omega_m = 0.31
Omega_nu = 0
Omega_de = 0.69
Omega_k = 0
H_0 = 100
w_de = -1
zeff = 0
beta = 0
fgrowth = 0
b_1 = 2
gamma = 0.55
Lx = 3500 Ly = 3500 Lz = 3500
nx = 700 ny = 700 nz = 700
xoffset = -685.467585 yoffset = -31.7331281 zoffset = 572.489161
bins = 400 dk = 0.001
kx_ny = 0.628318531 ky_ny = 0.628318531 kz_ny = 0.628318531
############################
A(data) = 8.0060692 (not used)
A(ran) = 7.99335615 (used)
Ngal = 475241
weighted Ngal = 0
Nran = 23820508
weighted Nran = 0
SN(data) = 3503.2338
SN(ran) = 69.625031
SN(data+ran) = 3572.85883
############################
13 columns: k_central k_mean P_0(k) sigma^{lin}_{P_0(k)} P^img_1(k) sigma^{lin}_{P_1(k)} P_2(k) sigma^{lin}_{P_2(k)} P^img_3(k) sigma^{lin}_{P_3(k)} P_4(k) sigma^{lin}_{P_4(k)} N_modes
### header ###
0.00050000 0 0 0 0 0 0 0 0 0 0 0 0
0.00150000 0.00179520 19115.92590640 0 -12901.80504843 0 12296.81322034 0 30544.22596797 0 -10873.53229885 0 3
0.00250000 0.00253879 44899.38437209 0 -27240.13351883 0 871.62891098 0 33120.31306027 0 101053.56547584 0 6
0.00350000 0.00331552 55805.62431846 0 -31610.15867826 0 3761.78914016 0 -63935.81098629 0 -47584.20169412 0 7
0.00450000 0.00420575 66309.05308792 0 -5833.95258532 0 -2401.21079412 0 -24413.25826939 0 17338.81777301 0 24
0.00550000 0.00557378 64339.72939568 0 1083.51777657 0 -7874.75920659 0 -12109.91237740 0 13103.09991363 0 45
0.00650000 0.00659388 72195.54385451 0 -1931.94352366 0 16600.73660060 0 -23258.19334430 0 3894.73454426 0 40
0.00750000 0.00754703 63425.81970515 0 4835.98180477 0 3752.64339986 0 5083.03858844 0 -18778.44144593 0 57
0.00850000 0.00846663 61025.89330071 0 10084.18626253 0 4967.89748266 0 10664.06605793 0 15574.66425965 0 75
0.00950000 0.00948925 46296.26887121 0 92.77899569 0 -2676.00375147 0 -2849.48493673 0 -7451.91819409 0 112
0.01050000 0.01054430 57913.01990119 0 2511.24755817 0 114.75911058 0 5269.23080260 0 -6693.28678682 0 105
0.01150000 0.01145670 49312.14870532 0 -1717.78261701 0 -398.05450616 0 -12507.85173138 0 -3494.44785741 0 144
0.01250000 0.01249090 55034.99051108 0 -3345.62473953 0 8488.88570266 0 -11997.19611075 0 -14244.98877218 0 169
0.01350000 0.01339930 52234.02450171 0 -3533.26742823 0 3826.45151710 0 -8395.74530629 0 -1045.57291941 0 180
0.01450000 0.01448870 69550.47617858 0 -5607.37960256 0 11317.13392039 0 -2506.44216920 0 -17044.40465608 0 267
0.01550000 0.01550050 68974.38311827 0 -20296.34645532 0 4079.19947574 0 -2085.01841427 0 13657.60194055 0 238
0.01650000 0.01653350 94340.74710804 0 -7833.39300107 0 11536.36595180 0 9723.28383507 0 -8716.01230167 0 315
0.01750000 0.01747870 102013.31459112 0 -5970.71794148 0 11945.82052359 0 -3257.07935795 0 8108.14166912 0 297
0.01850000 0.01844180 94331.44635519 0 8314.56302072 0 11974.16567513 0 -7780.92125376 0 -19695.34066416 0 388
0.01950000 0.01947590 89281.46972866 0 16821.85092722 0 24100.68653975 0 -3546.39920546 0 5129.85237778 0 399
0.02050000 0.02045430 76190.54937232 0 12135.37872448 0 34015.06762887 0 -2759.34514038 0 10009.84667370 0 462
0.02150000 0.02154770 65443.41873360 0 4971.90566424 0 27160.74494988 0 4946.31752158 0 14581.91961641 0 571
0.02250000 0.02255340 70018.17117892 0 -2582.37617280 0 35542.16266785 0 10707.53600517 0 6554.31803802 0 510
0.02350000 0.02348930 70541.00635686 0 -894.16662815 0 34262.09119557 0 548.80420857 0 10759.60914879 0 555
0.02450000 0.02439640 74124.89645416 0 3837.09202125 0 32144.84124375 0 3098.61224515 0 14577.71213298 0 592
0.02550000 0.02547300 72059.90787548 0 161.03257046 0 40825.43317832 0 1432.54845736 0 21680.49778089 0 837
0.02650000 0.02652900 73539.28119450 0 -1791.93397632 0 40634.43557520 0 4269.94241539 0 32827.00717583 0 723
0.02750000 0.02749970 74871.94620967 0 2440.98258487 0 46778.46861707 0 15284.79079590 0 9770.87268714 0 826
0.02850000 0.02848090 75745.10974487 0 1894.49692112 0 43214.06581145 0 9003.05125026 0 27789.87444608 0 831
0.02950000 0.02946900 71253.73190543 0 4980.03275066 0 44337.13171780 0 11659.04731079 0 22924.91636726 0 996
0.03050000 0.03053250 66546.55445528 0 4299.18442523 0 34435.92669522 0 7493.32868892 0 34279.14257579 0 1041
0.03150000 0.03150510 61438.22667695 0 3478.27119085 0 28891.79221203 0 15887.90032877 0 23963.50043525 0 1036
0.03250000 0.03246190 59051.47633905 0 -2025.44930675 0 19453.29964362 0 11889.79456001 0 14308.98680963 0 1059
0.03350000 0.03345080 57544.09003823 0 1425.17428903 0 19159.44014294 0 884.82490770 0 6719.61677524 0 1302
0.03450000 0.03451200 58403.08099767 0 1599.96200862 0 12538.41134788 0 -33.90268353 0 1993.29527548 0 1339
0.03550000 0.03553350 54495.21467617 0 150.89253540 0 16678.46432082 0 -6010.17970713 0 1026.33807674 0 1365
0.03650000 0.03647120 57462.70845082 0 824.70329116 0 13432.94446998 0 -3965.17667475 0 -3976.03862540 0 1308
0.03750000 0.03744890 54210.98809808 0 2971.02584626 0 17507.67072649 0 -101.13494706 0 1380.35351817 0 1579
0.03850000 0.03847530 53593.04164995 0 128.43343173 0 11503.37042384 0 7377.77790711 0 -660.46749713 0 1662
0.03950000 0.03950240 53354.10088036 0 -2444.25999302 0 13805.63892338 0 7372.90608419 0 -521.59064863 0 1683
0.04050000 0.04050350 53405.91936051 0 1595.65487426 0 9698.20501935 0 2938.82752569 0 -1679.73810894 0 1822
0.04150000 0.04152450 50967.12909596 0 4425.79645953 0 11803.09825668 0 -2049.17729884 0 -2108.14850082 0 1887
0.04250000 0.04250150 49252.13670480 0 3668.70410541 0 12078.24552842 0 -873.52560022 0 10598.81684778 0 1920
0.04350000 0.04349210 46678.92841695 0 1153.92447562 0 13439.14497188 0 -1263.50727436 0 11774.42093540 0 2005
0.04450000 0.04448520 46923.40534894 0 329.96745915 0 17342.25019370 0 1790.31741690 0 8087.75751913 0 2151
0.04550000 0.04548030 44203.93165023 0 1692.21661901 0 16237.45362330 0 3289.87558407 0 5752.69279348 0 2274
0.04650000 0.04648670 45551.21213417 0 1237.09977966 0 17312.24419344 0 1202.90844062 0 4806.80622887 0 2311
0.04750000 0.04749250 41754.17978411 0 148.77550689 0 15391.74945365 0 1481.01202309 0 7281.24937934 0 2568
0.04850000 0.04851840 42273.02892511 0 2797.73289053 0 18939.98666503 0 737.53309233 0 5019.81561373 0 2493
0.04950000 0.04949480 38690.24606029 0 2107.05234066 0 13035.33728574 0 -1083.27972158 0 2867.61033246 0 2644
0.05050000 0.05050630 38810.71295432 0 890.37435690 0 16782.87634386 0 2142.81594983 0 2577.92509823 0 2829
0.05150000 0.05149060 37285.83238030 0 -57.81115451 0 8928.78916771 0 -749.61299871 0 -486.75490028 0 2784
0.05250000 0.05249300 38226.20492714 0 -62.98115514 0 13588.06774069 0 751.95258094 0 -982.85594994 0 3055
0.05350000 0.05348950 37928.47011277 0 635.55698075 0 10501.50218495 0 -2582.69727022 0 -2324.40207685 0 3009
0.05450000 0.05448610 38245.02787933 0 791.44424187 0 13639.66477435 0 -690.02063930 0 49.70532696 0 3336
0.05550000 0.05550870 36956.65216344 0 188.00475372 0 14906.89234984 0 -272.92173445 0 -1926.58451844 0 3349
0.05650000 0.05647670 37445.27385768 0 1269.09879839 0 16232.91397012 0 1525.57813049 0 227.00923236 0 3324
0.05750000 0.05747970 36327.74411374 0 1588.74574358 0 17201.85311500 0 -272.31829275 0 -1223.39224154 0 3639
0.05850000 0.05849280 34694.13330999 0 1385.22534109 0 16076.35129719 0 1853.10857095 0 1531.77863239 0 3846
0.05950000 0.05951020 34171.85174830 0 756.09141596 0 15782.15962675 0 2374.72579315 0 -354.72074852 0 3787
0.06050000 0.06049470 33533.97511550 0 378.20072053 0 16374.63972780 0 2553.12309063 0 988.37550387 0 3930
0.06150000 0.06148310 32735.66049607 0 595.17842660 0 14240.22767251 0 985.16120797 0 383.17330160 0 4083
0.06250000 0.06249100 31997.91149341 0 677.26532111 0 12815.10874510 0 -322.02860226 0 1978.04868420 0 4303
0.06350000 0.06350600 32210.27868343 0 587.97477208 0 13875.06239999 0 333.52721158 0 1536.68367228 0 4470
0.06450000 0.06451750 31287.84330279 0 550.41633906 0 13405.70655093 0 777.25505762 0 -277.93639037 0 4479
0.06550000 0.06550280 30609.44196115 0 315.80817017 0 11752.16556251 0 295.13281804 0 -803.48871681 0 4636
0.06650000 0.06648880 29756.76222686 0 502.18972108 0 11756.70521569 0 -146.89653337 0 -950.37085616 0 4653
0.06750000 0.06749660 29435.33263738 0 772.87041699 0 11351.90102032 0 1546.30552255 0 -1431.21977838 0 5220
0.06850000 0.06852730 29478.84687392 0 13.63025330 0 11404.38383996 0 -425.06322809 0 -1950.53395703 0 5029
0.06950000 0.06949320 29446.84785519 0 296.59879385 0 11039.14106116 0 628.85711700 0 -1112.31467896 0 5040
0.07050000 0.07048030 29781.56423446 0 -581.65801077 0 10698.51206044 0 841.33613751 0 -2046.57530250 0 5475
0.07150000 0.07148790 29751.55823420 0 126.94198958 0 11304.84363984 0 1829.93419510 0 -203.04872145 0 5509
0.07250000 0.07249820 29774.25650008 0 629.54581561 0 12729.40895100 0 523.97119846 0 -194.95374478 0 5916
0.07350000 0.07351270 29442.86181826 0 920.82878631 0 12033.07044316 0 1560.21236252 0 1326.48665792 0 5721
0.07450000 0.07449140 28014.19974691 0 561.74111288 0 11890.12672975 0 719.21171646 0 2304.49403683 0 6028
0.07550000 0.07549160 28086.50202797 0 725.21513097 0 11627.71263155 0 1838.64811473 0 1874.84354457 0 6183
0.07650000 0.07648840 27627.77561073 0 268.56366741 0 9962.99966739 0 1395.13507180 0 620.92158181 0 6330
0.07750000 0.07749960 27105.05115605 0 229.99322390 0 10372.14421409 0 914.87409002 0 665.58623289 0 6583
0.07850000 0.07848650 26569.48280457 0 521.68919232 0 8418.14461939 0 -80.68292372 0 101.03573903 0 6549
0.07950000 0.07947320 26335.74602765 0 766.05761553 0 9327.07176376 0 -62.73147422 0 -240.48425167 0 6828
0.08050000 0.08048110 25874.91586869 0 242.74300593 0 8588.81343415 0 -694.97882636 0 -561.28604033 0 7147
0.08150000 0.08149960 24750.07839037 0 542.57824032 0 9448.86733676 0 -316.15141224 0 -1519.11189279 0 7386
0.08250000 0.08250610 24705.45692135 0 1280.80224572 0 8471.61287594 0 -475.10570734 0 -2029.90038133 0 7227
0.08350000 0.08350160 23904.04205098 0 347.07641546 0 9570.68505442 0 650.45257933 0 -2023.94347057 0 7798
0.08450000 0.08449610 23325.40235595 0 659.67471867 0 8998.43409081 0 466.97419199 0 -2316.18641184 0 7371
0.08550000 0.08548940 22464.19693156 0 814.72934097 0 8511.20750949 0 779.24586162 0 -1195.00280070 0 8256
0.08650000 0.08650700 21817.46243890 0 561.26389568 0 8523.67494724 0 1098.51302607 0 -2712.18810898 0 8037
0.08750000 0.08749060 21544.97252511 0 117.36221415 0 7541.16113213 0 1111.56176087 0 141.53309923 0 8155
0.08850000 0.08849210 21811.37266025 0 -159.63413584 0 6743.88731124 0 1636.97679049 0 -735.79584457 0 8718
0.08950000 0.08949900 21302.71005808 0 100.63791040 0 7114.75483104 0 794.15696145 0 415.87209126 0 8571
0.09050000 0.09049190 21265.50704669 0 929.89148417 0 6764.18288263 0 372.16519627 0 407.92659097 0 8932
0.09150000 0.09150830 20488.89418391 0 777.86403548 0 7173.30528468 0 -162.88275594 0 1523.95049874 0 9285
0.09250000 0.09250820 19764.21052453 0 696.20121102 0 7523.76650984 0 -466.65863074 0 1639.35734032 0 9204
0.09350000 0.09350330 19269.94194463 0 474.86875959 0 7840.11390224 0 -407.08620151 0 902.08998379 0 9349
0.09450000 0.09448040 19125.22665925 0 272.12231260 0 8066.73117430 0 215.69885256 0 960.90949492 0 9564
0.09550000 0.09549270 18983.72234807 0 -139.35960186 0 8005.23548226 0 -256.94547697 0 -78.01150391 0 10155
0.09650000 0.09649430 19340.47265372 0 -14.75520150 0 7643.86801715 0 33.80170393 0 76.71449178 0 9913
0.09750000 0.09749140 19136.52043056 0 274.63019417 0 7758.40014508 0 178.02083843 0 -223.33875668 0 10476
0.09850000 0.09850240 18909.75921828 0 422.66496253 0 7300.47093523 0 761.31644604 0 -122.79983287 0 10575
0.09950000 0.09950330 18412.61183392 0 425.12080418 0 7309.59453088 0 1127.04087097 0 3.19790885 0 10882
0.10050000 0.10051200 18064.27649513 0 448.57752431 0 7020.36326196 0 1410.27093983 0 979.82324018 0 10875
0.10150000 0.10150300 17326.08459947 0 699.49854935 0 6632.25613242 0 757.51088800 0 1367.03351141 0 11118
0.10250000 0.10250800 17100.76278941 0 214.09447269 0 6663.60188398 0 412.76851861 0 1723.30770710 0 11575
0.10350000 0.10349800 17007.64453768 0 -151.97651600 0 6110.98215228 0 376.17780678 0 1330.68306903 0 11364
0.10450000 0.10450100 16996.68293611 0 72.25655236 0 6188.88702971 0 117.55819430 0 1188.74693718 0 12093
0.10550000 0.10551000 16976.97419793 0 133.55327473 0 5899.50074825 0 -441.16460284 0 954.94594077 0 12067
0.10650000 0.10649700 16939.77118654 0 234.01690674 0 5758.68292120 0 621.98231053 0 295.51592048 0 12054
0.10750000 0.10749900 16319.27810371 0 358.87176309 0 5189.07824323 0 414.15477368 0 354.65652903 0 12807
0.10850000 0.10850100 16281.30002958 0 420.38849255 0 5174.44062982 0 754.22905093 0 -242.26689596 0 12736
0.10950000 0.10950300 15720.48677751 0 235.41091243 0 4509.92398351 0 536.06439163 0 -358.65806722 0 12933
0.11050000 0.11050200 15553.95901224 0 174.22081656 0 4710.36627970 0 438.06545912 0 22.61411621 0 13428
0.11150000 0.11150900 15429.28463478 0 143.30688566 0 4369.44939853 0 146.81016924 0 -28.36596751 0 13453
0.11250000 0.11250000 15310.47858948 0 412.39205957 0 4365.07583023 0 -58.46298227 0 578.15251273 0 13668
0.11350000 0.11349100 14945.97765645 0 504.29899896 0 3871.82590421 0 -41.43651479 0 759.05104838 0 13791
0.11450000 0.11448600 14691.53563212 0 296.33970145 0 3941.43761034 0 662.24571250 0 1244.68432216 0 14205
0.11550000 0.11549300 14490.46221341 0 12.38461676 0 3912.30632375 0 246.06802507 0 757.69136690 0 14776
0.11650000 0.11649800 14569.62933586 0 106.72015987 0 3924.86234009 0 351.88180443 0 424.10547199 0 14553
0.11750000 0.11747300 14126.07200363 0 144.60566936 0 3616.22128577 0 -191.56229169 0 747.45500260 0 14568
0.11850000 0.11849100 14282.08106032 0 119.30319269 0 3897.15938339 0 139.90546748 0 1138.52287180 0 16015
0.11950000 0.11950300 14189.95931783 0 41.71110844 0 4165.63004327 0 -331.63052234 0 1072.22289802 0 15270
0.12050000 0.12050700 14040.26148628 0 90.54349331 0 4053.32345264 0 613.24846071 0 592.58085920 0 15999
0.12150000 0.12150000 13877.83048119 0 393.37977062 0 4665.01403724 0 -180.43128355 0 640.43433984 0 15670
0.12250000 0.12250700 13868.97262134 0 412.94346134 0 4184.15404269 0 -405.47407102 0 796.14665822 0 16887
0.12350000 0.12352200 13577.54903211 0 -1.59541128 0 5181.87015978 0 -116.78645326 0 1310.58679948 0 16407
0.12450000 0.12449800 13850.37111564 0 -6.49232409 0 5033.25741606 0 -414.26881862 0 796.15219439 0 16306
0.12550000 0.12549900 13846.71724845 0 55.91081140 0 5317.03002884 0 60.42366955 0 1422.90446244 0 17523
0.12650000 0.12650100 13803.20301192 0 105.03550565 0 5126.98464565 0 364.59283333 0 1373.25615796 0 17154
0.12750000 0.12750600 13655.71964533 0 339.79525466 0 5192.39994068 0 283.67074739 0 1095.31423143 0 18007
0.12850000 0.12850300 13439.14497188 0 213.32826782 0 5155.99413667 0 402.18226885 0 1374.30802882 0 17496
0.12950000 0.12949900 13192.12140518 0 222.87371904 0 5103.69954656 0 344.80548164 0 1037.56319964 0 18405
0.13050000 0.13049000 12829.83493711 0 257.38394104 0 4714.15301479 0 -109.60837580 0 1188.32618884 0 18100
0.13150000 0.13148800 12943.76915949 0 86.57129678 0 5189.77579970 0 -435.62401150 0 830.64137896 0 19059
0.13250000 0.13249300 12804.03642028 0 -87.69513775 0 5016.46069931 0 -195.00578471 0 898.30657040 0 18957
0.13350000 0.13349100 12807.24739448 0 124.64116048 0 5027.48873483 0 139.71502349 0 274.79960074 0 19468
0.13450000 0.13450700 12693.97751159 0 295.27232933 0 4951.01218731 0 -78.59490471 0 4.73181337 0 19953
0.13550000 0.13551000 12670.72562947 0 148.76332733 0 5015.32024985 0 94.66549839 0 -59.02911024 0 19956
0.13650000 0.13649900 12214.43512369 0 167.89298292 0 4869.73025081 0 219.06816100 0 184.26673686 0 19723
0.13750000 0.13749600 12253.29898380 0 200.51758800 0 4880.04965754 0 708.75722736 0 -50.31574423 0 20946
0.13850000 0.13851100 12063.96222940 0 188.52515299 0 4721.01785617 0 559.19115648 0 512.86122774 0 20955
0.13950000 0.13949800 11843.40151902 0 319.74881058 0 4449.24764350 0 512.28214515 0 725.58716109 0 20506
0.14050000 0.14048300 11648.75004871 0 -13.65350518 0 3845.88344716 0 619.83538674 0 1066.03125398 0 21447
0.14150000 0.14148400 11678.86677221 0 -18.59862689 0 3882.13423861 0 139.11711795 0 650.00857911 0 21771
0.14250000 0.14249400 11568.03280078 0 226.12676807 0 3511.64317786 0 383.73245401 0 857.55266444 0 22470
0.14350000 0.14350900 11476.57539778 0 276.35969131 0 3672.12545378 0 143.53940448 0 587.98584440 0 22519
0.14450000 0.14449900 10986.91290500 0 264.38829372 0 3338.57166862 0 -186.16010441 0 338.24734365 0 22218
0.14550000 0.14550500 10808.42702892 0 363.17779021 0 3582.84929877 0 -76.59933960 0 48.70560675 0 23559
0.14650000 0.14650700 10556.36555442 0 238.03948235 0 3443.62588650 0 180.87860547 0 467.23992779 0 23044
0.14750000 0.14750500 10493.99514872 0 13.84372772 0 3384.74326311 0 221.41327940 0 -143.86382360 0 23649
0.14850000 0.14849900 10269.79164347 0 135.63597903 0 3355.58983186 0 404.98910319 0 4.63291537 0 23640
0.14950000 0.14949500 10390.93394931 0 44.06597048 0 3095.57842815 0 -5.48848498 0 -73.94353177 0 24457
0.15050000 0.15050000 10108.91076385 0 300.07771831 0 3292.48865272 0 -161.35477512 0 145.18364472 0 24591
0.15150000 0.15149900 10158.82480413 0 269.00988210 0 3358.92260163 0 -98.96853599 0 121.16223603 0 25020
0.15250000 0.15250500 9799.62751469 0 187.24519224 0 3330.74353497 0 -218.95079436 0 -52.60085062 0 25297
0.15350000 0.15350100 9706.37639507 0 248.67002140 0 3397.43214735 0 55.32143155 0 -123.90485088 0 25452
0.15450000 0.15450400 9461.35691916 0 92.99844917 0 3344.79431517 0 -68.61586124 0 -543.00895376 0 26061
0.15550000 0.15549900 9495.63683680 0 30.77032284 0 3207.50855974 0 292.99918105 0 -172.41159868 0 26128
0.15650000 0.15649500 9509.12292843 0 -19.55760094 0 3085.92336091 0 196.17502221 0 -725.02136529 0 26331
0.15750000 0.15749700 9312.07983595 0 79.30884821 0 2840.16203923 0 425.92465496 0 -287.54384661 0 27345
0.15850000 0.15849900 9458.69956120 0 -2.73006991 0 2813.95384639 0 438.04220724 0 -288.12182197 0 26980
0.15950000 0.15949700 9386.57443733 0 -51.59039026 0 2428.30477295 0 229.45621615 0 -211.02743872 0 27777
0.16050000 0.16050000 9398.96436880 0 121.38146806 0 2836.10956835 0 145.45159498 0 -246.44005519 0 28224
0.16150000 0.16150500 9399.14152600 0 137.98109743 0 2763.99551680 0 -59.38375681 0 168.45877872 0 28075
0.16250000 0.16249700 9113.36482243 0 192.70274114 0 2664.95357130 0 -95.77273088 0 458.62344462 0 28590
0.16350000 0.16349900 9161.21941030 0 90.65908838 0 2712.70850824 0 -16.68211819 0 -40.01416394 0 29163
0.16450000 0.16449100 9067.40360211 0 142.10664565 0 2738.28557857 0 21.65779952 0 -238.38826058 0 28996
0.16550000 0.16550500 8986.15488259 0 162.80082074 0 2719.76157915 0 -83.50481642 0 -6.10643143 0 30777
0.16650000 0.16650700 8831.80667462 0 47.26520802 0 2355.64817749 0 132.99412233 0 -46.24290027 0 29211
0.16750000 0.16749900 8844.52877584 0 -54.77512305 0 2477.20015935 0 340.28797312 0 -565.85448155 0 30922
0.16850000 0.16850800 8814.62242650 0 87.77319764 0 2294.83896959 0 303.52564025 0 -772.60578843 0 30867
0.16950000 0.16949900 8670.75971013 0 316.73160206 0 2198.07792300 0 -57.97380696 0 -452.85365615 0 30852
0.17050000 0.17049200 8314.50765909 0 327.12187167 0 2019.52561297 0 21.18346112 0 24.49762938 0 31257
0.17150000 0.17149500 8278.23472299 0 78.21379529 0 2309.00047303 0 276.93877390 0 -87.40736803 0 32608
0.17250000 0.17250900 8162.58429025 0 16.19249998 0 1924.11539001 0 335.10723233 0 -54.14355764 0 32361
0.17350000 0.17350400 8256.82084679 0 18.83701404 0 2108.41423662 0 144.07309054 0 -87.07885215 0 32508
0.17450000 0.17449800 8220.45933208 0 47.04741539 0 2012.81578413 0 -39.33199801 0 64.24428596 0 32791
0.17550000 0.17549800 8126.54387297 0 59.09565492 0 2015.48421441 0 -100.18139845 0 303.82680749 0 33633
0.17650000 0.17650100 8000.19757446 0 193.19878130 0 2121.44636293 0 191.51246623 0 361.01425794 0 33984
0.17750000 0.17750300 7982.22719128 0 183.25804807 0 1907.21902234 0 24.12881024 0 262.86806352 0 34069
0.17850000 0.17849800 7758.24513253 0 82.96592638 0 2018.13050005 0 255.85928191 0 413.65651906 0 34536
