### header ###
fiducial parameters:
Omega_m = 0.31
Omega_nu = 0
Omega_de = 0.69
Omega_k = 0
H_0 = 100
w_de = -1
zeff = 0
beta = 0
fgrowth = 0
b_1 = 2
gamma = 0.55
Lx = 3500 Ly = 3500 Lz = 3500
nx = 700 ny = 700 nz = 700
xoffset = -685.467585 yoffset = -31.7331281 zoffset = 572.489161
bins = 400 dk = 0.001
kx_ny = 0.628318531 ky_ny = 0.628318531 kz_ny = 0.628318531
############################
A(data) = 8.04423178 (not used)
A(ran) = 8.04260652 (used)
Ngal = 478013
weighted Ngal = 0
Nran = 23820508
weighted Nran = 0
SN(data) = 3488.83147
SN(ran) = 70.0540196
SN(data+ran) = 3558.88549
############################
13 columns: k_central k_mean P_0(k) sigma^{lin}_{P_0(k)} P^img_1(k) sigma^{lin}_{P_1(k)} P_2(k) sigma^{lin}_{P_2(k)} P^img_3(k) sigma^{lin}_{P_3(k)} P_4(k) sigma^{lin}_{P_4(k)} N_modes
### header ###
0.00050000 0 0 0 0 0 0 0 0 0 0 0 0
0.00150000 0.00179520 17376.90657038 0 -12318.40425374 0 37274.76005548 0 -23622.47283084 0 -63001.08532510 0 3
0.00250000 0.00253879 37957.59032704 0 -13649.85131318 0 6937.43154907 0 14587.89867181 0 59991.07382316 0 6
0.00350000 0.00331552 39349.38155675 0 -10642.45287989 0 -7875.51212468 0 -11216.15431804 0 20460.77047887 0 7
0.00450000 0.00420575 36912.91648040 0 1114.50699927 0 -18423.90560523 0 -8224.56716459 0 25327.61085291 0 24
0.00550000 0.00557378 34461.83593530 0 -1309.50171165 0 -16902.23600541 0 -987.62590748 0 9880.41119657 0 45
0.00650000 0.00659388 27589.13319712 0 -9573.65243747 0 -27341.44529092 0 -10793.78941551 0 -4760.63463438 0 40
0.00750000 0.00754703 43252.92967156 0 -6080.69934390 0 -7950.03994304 0 -12778.12718021 0 -8581.59427837 0 57
0.00850000 0.00846663 52602.73291817 0 -17020.82060422 0 -2788.88610300 0 -44385.51777726 0 -5359.34845429 0 75
0.00950000 0.00948925 68207.07100834 0 -19627.91020601 0 19549.07525331 0 -37884.07009025 0 11342.15737448 0 112
0.01050000 0.01054430 91460.61397622 0 -4608.29051720 0 31793.29493076 0 -32144.73052050 0 6481.27391119 0 105
0.01150000 0.01145670 92251.06724502 0 7169.96144259 0 56059.18055681 0 -26892.57324278 0 1895.15018828 0 144
0.01250000 0.01249090 91931.63067400 0 14857.06688816 0 68876.83593662 0 -4028.42179412 0 5430.29991173 0 169
0.01350000 0.01339930 92331.67376970 0 8770.63208000 0 92748.87896887 0 4875.12247300 0 2534.30013844 0 180
0.01450000 0.01448870 82135.50201395 0 8622.96048389 0 72002.66395617 0 32444.90124633 0 5448.07099307 0 267
0.01550000 0.01550050 75771.46187794 0 7970.29122513 0 51768.76541283 0 38795.21169957 0 24111.53741808 0 238
0.01650000 0.01653350 83564.60697829 0 -5410.95656027 0 41236.65932208 0 41082.53256061 0 14546.04528400 0 315
0.01750000 0.01747870 84698.74520947 0 -13254.12642416 0 33446.39302618 0 33210.66323079 0 25228.18137604 0 297
0.01850000 0.01844180 74272.37982074 0 3075.53752023 0 12438.42825477 0 36997.39831877 0 3837.31346775 0 388
0.01950000 0.01947590 79587.42790344 0 5190.58407941 0 6977.42478632 0 16342.41926258 0 21537.66479073 0 399
0.02050000 0.02045430 73066.27147825 0 3032.17829624 0 5420.60055519 0 4398.85749325 0 21315.88612462 0 462
0.02150000 0.02154770 66426.53045425 0 532.31640968 0 -230.48151342 0 277.46028040 0 20946.95626166 0 571
0.02250000 0.02255340 66667.24279581 0 844.67776514 0 425.29463968 0 -5495.99201488 0 10951.13822351 0 510
0.02350000 0.02348930 68917.36064545 0 -4886.91449893 0 -5735.77428115 0 -5750.97658313 0 9952.89063483 0 555
0.02450000 0.02439640 69317.51446440 0 2497.09712705 0 12577.05376150 0 -5740.14784946 0 13775.30075337 0 592
0.02550000 0.02547300 69829.38804076 0 5509.04628584 0 10569.65234420 0 -10473.03523784 0 11057.18895062 0 837
0.02650000 0.02652900 67712.13808894 0 4471.28156989 0 16309.20228812 0 -10809.83321417 0 11968.74023596 0 723
0.02750000 0.02749970 64608.12254928 0 2044.98088773 0 18130.37827429 0 -6644.05923068 0 11359.09803145 0 826
0.02850000 0.02848090 62629.94099718 0 1479.98229688 0 26205.75693428 0 -1894.54121042 0 13219.47004748 0 831
0.02950000 0.02946900 65193.62708569 0 -2015.93817973 0 30546.88332592 0 4550.88051301 0 11100.11635394 0 996
0.03050000 0.03053250 65572.96493398 0 -2141.86372989 0 27892.84706689 0 9307.78377392 0 12735.83089940 0 1041
0.03150000 0.03150510 68880.15763406 0 -469.79763482 0 24503.71916315 0 6701.53566881 0 9442.93257066 0 1036
0.03250000 0.03246190 66007.55368311 0 1888.93861406 0 28054.17083950 0 -3393.45718274 0 425.81946788 0 1059
0.03350000 0.03345080 64574.01978884 0 6045.15718124 0 23155.55289324 0 -1460.83824727 0 5993.52693061 0 1302
0.03450000 0.03451200 59240.14875396 0 3965.75243564 0 23358.17643742 0 -958.79468088 0 6020.80913896 0 1339
0.03550000 0.03553350 57166.52376192 0 2929.67071306 0 22989.80019070 0 2824.19574684 0 3274.39647397 0 1365
0.03650000 0.03647120 54707.69258944 0 1804.87752404 0 26802.66596525 0 3062.17322417 0 -1391.80230203 0 1308
0.03750000 0.03744890 53342.47493930 0 1593.21896280 0 16753.42395985 0 6341.49688268 0 -3134.43121594 0 1579
0.03850000 0.03847530 49765.78185314 0 3270.17791821 0 17437.25074065 0 3397.83075105 0 -5643.69682796 0 1662
0.03950000 0.03950240 50005.49768546 0 3351.94703700 0 13725.58601494 0 -121.77675005 0 -1163.87849564 0 1683
0.04050000 0.04050350 45140.09671365 0 1487.30110359 0 11867.20701738 0 2977.53637326 0 -2061.24613289 0 1822
0.04150000 0.04152450 45711.76084404 0 -939.68163378 0 13062.13231181 0 2719.58442196 0 -2935.47261127 0 1887
0.04250000 0.04250150 46393.37315987 0 -155.09891159 0 13926.43798715 0 1002.74073809 0 -4738.89966076 0 1920
0.04350000 0.04349210 44428.81056730 0 1352.35160870 0 12258.50297647 0 -1640.19883701 0 -4057.66380396 0 2005
0.04450000 0.04448520 43799.12745486 0 2607.85359221 0 12349.62820973 0 986.97374754 0 -2803.98875405 0 2151
0.04550000 0.04548030 42214.56705007 0 762.31849144 0 15131.66054366 0 -1340.32706395 0 -5476.94761619 0 2274
0.04650000 0.04648670 42514.62705265 0 1218.76400976 0 14931.03001794 0 -304.22319672 0 -2275.41811186 0 2311
0.04750000 0.04749250 41031.37841995 0 173.74470659 0 14614.36152813 0 2195.86345803 0 -303.94085243 0 2568
0.04850000 0.04851840 42401.68933950 0 -1256.23275695 0 13333.18282337 0 5013.16114651 0 -3777.94366207 0 2493
0.04950000 0.04949480 41936.98386686 0 228.47963710 0 16162.16181453 0 251.90867641 0 -3868.34919422 0 2644
0.05050000 0.05050630 41014.88065597 0 3637.61301732 0 13395.85218184 0 -2401.54296387 0 -5130.28419845 0 2829
0.05150000 0.05149060 37866.68654028 0 2036.93130759 0 16929.91681745 0 -2273.61332291 0 1241.91624096 0 2784
0.05250000 0.05249300 37331.22891205 0 399.62456182 0 17562.14656460 0 -1454.21699703 0 -2533.43649710 0 3055
0.05350000 0.05348950 36667.88593217 0 17.58672713 0 18694.18105406 0 3383.53637971 0 -1063.33735735 0 3009
0.05450000 0.05448610 37750.64857618 0 446.07850060 0 16975.09190271 0 -1793.66125900 0 -6716.26186082 0 3336
0.05550000 0.05550870 34871.84412333 0 2176.22115381 0 16757.29927353 0 1138.52287180 0 -3109.02023048 0 3349
0.05650000 0.05647670 35785.20019762 0 2043.38647296 0 16579.25629045 0 1465.85401042 0 -5804.84344337 0 3324
0.05750000 0.05747970 32225.44776843 0 -19.37966868 0 12873.01700390 0 1580.44149996 0 -2988.39832390 0 3639
0.05850000 0.05849280 33679.13329387 0 -294.40425907 0 13033.89788352 0 2638.45749801 0 -5206.41750390 0 3846
0.05950000 0.05951020 31923.06257763 0 705.83966977 0 11752.94062525 0 3154.97037847 0 -4944.35772009 0 3787
0.06050000 0.06049470 32545.99157193 0 437.64471078 0 10292.93280234 0 3199.08252055 0 -2374.79222710 0 3930
0.06150000 0.06148310 31675.70684118 0 -202.96789348 0 10079.74626028 0 2974.79043670 0 -1757.34403359 0 4083
0.06250000 0.06249100 31803.59219284 0 267.75760216 0 8500.76630719 0 2798.30865142 0 1429.10496434 0 4303
0.06350000 0.06350600 31603.40456012 0 312.25616837 0 9079.49458081 0 1228.45229398 0 3420.51794460 0 4470
0.06450000 0.06451750 31708.92381564 0 187.43452900 0 8454.66114665 0 862.29272669 0 6495.16967884 0 4479
0.06550000 0.06550280 31326.48571640 0 490.94909692 0 8076.67412199 0 2394.85527967 0 4552.99532705 0 4636
0.06650000 0.06648880 30852.92238391 0 514.68483964 0 8686.27203720 0 1465.72114252 0 9067.28180654 0 4653
0.06750000 0.06749660 30876.61715902 0 128.21087801 0 7444.87619551 0 -236.52478831 0 7212.62311011 0 5220
0.06850000 0.06852730 30306.28170761 0 865.18924686 0 10133.88992864 0 597.25338028 0 9435.51411303 0 5029
0.06950000 0.06949320 29070.83170435 0 1435.06187510 0 8377.35417476 0 -424.50075399 0 6614.54041271 0 5040
0.07050000 0.07048030 28364.08521117 0 1403.52789401 0 9623.48897148 0 246.71132714 0 9502.21379774 0 5475
0.07150000 0.07148790 26798.90137481 0 1148.70941064 0 11700.90069860 0 -315.36084825 0 9523.46158907 0 5509
0.07250000 0.07249820 27013.59375304 0 503.71770190 0 12314.30749355 0 21.29529160 0 7878.90025608 0 5916
0.07350000 0.07351270 26760.36968444 0 -460.94198943 0 11915.48235359 0 -301.82271670 0 7676.86354511 0 5721
0.07450000 0.07449140 27024.66607786 0 -70.86498258 0 11064.76242080 0 100.97428763 0 6046.88446391 0 6028
0.07550000 0.07549160 27334.80189603 0 372.08547553 0 11078.74676704 0 739.31905833 0 3565.41038718 0 6183
0.07650000 0.07648840 26441.48672966 0 638.62512196 0 9963.95188733 0 253.46987421 0 3857.55367752 0 6330
0.07750000 0.07749960 26287.69213793 0 198.84455972 0 9013.20457212 0 1150.06023426 0 1546.98093436 0 6583
0.07850000 0.07848650 25481.73761438 0 734.81262212 0 7789.55766711 0 1028.20819240 0 1021.25366518 0 6549
0.07950000 0.07947320 25480.51965865 0 691.48218618 0 8373.08025738 0 29.12010355 0 776.39030905 0 6828
0.08050000 0.08048110 24454.22587121 0 615.11746914 0 8670.68220386 0 -623.84799726 0 1828.42835893 0 7147
0.08150000 0.08149960 24388.89915478 0 614.69672079 0 9608.93993667 0 -123.79966380 0 1400.81517443 0 7386
0.08250000 0.08250610 23605.97506686 0 162.88718487 0 9082.27373434 0 868.01822586 0 3204.15364532 0 7227
0.08350000 0.08350160 24054.62566851 0 -113.81353404 0 8538.74438132 0 1450.26417707 0 1145.60915969 0 7798
0.08450000 0.08449610 23749.47239651 0 286.85182631 0 8834.10971818 0 1151.53285346 0 1836.58866232 0 7371
0.08550000 0.08548940 22895.35326000 0 938.10604196 0 8088.92011324 0 485.65984736 0 2168.06085041 0 8256
0.08650000 0.08650700 21788.01005488 0 976.51372229 0 8065.00389163 0 -88.38283985 0 1718.93413880 0 8037
0.08750000 0.08749060 21360.50759364 0 661.88364747 0 7579.99177527 0 -695.91000887 0 1891.19736832 0 8155
0.08850000 0.08849210 20665.05487178 0 754.67083669 0 9210.46911109 0 153.99610804 0 686.04124576 0 8718
0.08950000 0.08949900 20399.09762963 0 295.15828439 0 8228.48676758 0 585.28641161 0 1195.29068115 0 8571
0.09050000 0.09049190 19786.02300442 0 470.50515638 0 7853.00208833 0 663.21564815 0 1231.04321799 0 8932
0.09150000 0.09150830 19791.44844359 0 468.12460654 0 7441.31090692 0 498.26679640 0 629.65100269 0 9285
0.09250000 0.09250820 19149.47505060 0 114.62402822 0 6214.60804026 0 468.12792824 0 603.20807656 0 9204
0.09350000 0.09350330 19025.57573588 0 286.46650941 0 6292.92259370 0 -208.67235523 0 -810.32587739 0 9349
0.09450000 0.09448040 18171.45659937 0 751.44989740 0 5721.25846332 0 544.24794690 0 -365.51072905 0 9564
0.09550000 0.09549270 18078.89196389 0 400.54135031 0 5283.35908906 0 369.29635691 0 -1048.83482631 0 10155
0.09650000 0.09649430 17649.61793067 0 -115.83534056 0 5080.12656702 0 1254.93729495 0 -217.86238483 0 9913
0.09750000 0.09749140 17745.39354035 0 -5.60099087 0 4974.47444360 0 1110.83098743 0 -1081.29777544 0 10476
0.09850000 0.09850240 17911.69985912 0 248.19391144 0 4901.23101492 0 424.25162668 0 682.99635644 0 10575
0.09950000 0.09950330 17580.08373081 0 426.04866500 0 5374.24073118 0 61.95142893 0 703.08155366 0 10882
0.10050000 0.10051200 17256.99329260 0 132.67523937 0 5527.53706829 0 -269.98424668 0 1674.05800631 0 10875
0.10150000 0.10150300 17273.15888683 0 210.33209672 0 5776.70866601 0 -103.65755483 0 1068.49816795 0 11118
0.10250000 0.10250800 16783.42996010 0 269.81484011 0 5413.79107543 0 -352.77534105 0 230.17148833 0 11575
0.10350000 0.10349800 16978.74576991 0 299.02031128 0 5789.67435837 0 -196.06319173 0 356.40927805 0 11364
0.10450000 0.10450100 16558.99393603 0 260.73996269 0 5534.73407942 0 -531.51698783 0 -434.40827024 0 12093
0.10550000 0.10551000 16179.54536450 0 564.47597711 0 5659.85134987 0 -389.38598306 0 -32.40791968 0 12067
0.10650000 0.10649700 16106.80019044 0 429.73574916 0 5349.84839960 0 615.51053667 0 -436.09237084 0 12054
0.10750000 0.10749900 15827.33471201 0 -195.83842353 0 5888.51700203 0 927.83978239 0 484.68326831 0 12807
0.10850000 0.10850100 15976.14675758 0 -101.41186591 0 5373.78676586 0 1216.83742524 0 153.29080095 0 12736
0.10950000 0.10950300 15989.32282411 0 90.79904257 0 5096.31430590 0 592.66833057 0 417.29156330 0 12933
0.11050000 0.11050200 15777.28780383 0 561.36022491 0 5040.85303089 0 254.49406426 0 813.63650251 0 13428
0.11150000 0.11150900 14984.62007007 0 653.15865552 0 5035.63796590 0 162.77646162 0 1415.08740112 0 13453
0.11250000 0.11250000 14727.74213427 0 273.77430347 0 5148.79712554 0 71.40531203 0 1687.34479609 0 13668
0.11350000 0.11349100 14429.67515016 0 277.45252977 0 4968.76112399 0 359.07992280 0 1030.75150541 0 13791
0.11450000 0.11448600 14339.43570288 0 -18.98737622 0 4696.53694600 0 238.61967217 0 727.58239402 0 14205
0.11550000 0.11549300 14467.32105454 0 -437.06562819 0 4322.63560920 0 425.87482950 0 536.91696064 0 14776
0.11650000 0.11649800 14682.56704901 0 -160.38705393 0 3935.86823096 0 359.39991299 0 52.76870707 0 14553
0.11750000 0.11747300 14721.87380212 0 110.47799619 0 3288.20366302 0 317.67607137 0 -751.19301946 0 14568
0.11850000 0.11849100 14585.35203711 0 477.83171371 0 3181.63253664 0 275.83597035 0 -425.36660979 0 16015
0.11950000 0.11950300 13979.25297653 0 648.34551592 0 2880.89712224 0 221.35348884 0 -300.34788303 0 15270
0.12050000 0.12050700 13597.58994003 0 285.06586032 0 2671.09871158 0 154.58404849 0 227.58610048 0 15999
0.12150000 0.12150000 13359.53495643 0 -66.14562557 0 2847.15974852 0 672.48982742 0 87.56393070 0 15670
0.12250000 0.12250700 13583.41736427 0 -80.33215247 0 2907.43748483 0 363.54206970 0 240.41228155 0 16887
0.12350000 0.12352200 13560.71909839 0 -114.39372386 0 3251.66499112 0 -34.02049307 0 548.14319077 0 16407
0.12450000 0.12449800 13712.63139490 0 115.44338026 0 3083.73104059 0 41.33066336 0 471.58360082 0 16306
0.12550000 0.12549900 13570.79491397 0 101.06153755 0 3206.05808519 0 -67.72797151 0 956.35434049 0 17523
0.12650000 0.12650100 13498.04973992 0 125.01540506 0 3593.58945384 0 100.45222751 0 874.65497735 0 17154
0.12750000 0.12750600 13491.40634502 0 275.16277300 0 3298.00267048 0 15.48431409 0 960.02481617 0 18007
0.12850000 0.12850300 13137.53484382 0 394.06736199 0 3018.83614483 0 -147.36710717 0 884.37758577 0 17496
0.12950000 0.12949900 12945.98362446 0 111.98217152 0 3292.16755530 0 -10.24779093 0 958.77585793 0 18405
0.13050000 0.13049000 12767.60847163 0 116.73773503 0 3454.23317367 0 -238.54880929 0 458.96115052 0 18100
0.13150000 0.13148800 12796.72868590 0 422.12906201 0 3584.55443679 0 -218.62526801 0 814.31412879 0 19059
0.13250000 0.13249300 12466.44123656 0 371.37795397 0 3861.51756980 0 -394.04632458 0 502.78098322 0 18957
0.13350000 0.13349100 12147.89045153 0 313.97348595 0 3981.59693246 0 -90.61347040 0 776.73133666 0 19468
0.13450000 0.13450700 12061.19414820 0 166.44915177 0 4174.26645663 0 179.61082428 0 132.11497974 0 19953
0.13550000 0.13551000 11970.06891494 0 83.84971934 0 3917.11171272 0 280.57049644 0 248.53161734 0 19956
0.13650000 0.13649900 11750.39399054 0 46.98651760 0 3636.59436344 0 342.33746044 0 258.38598643 0 19723
0.13750000 0.13749600 11820.48180664 0 -147.15562577 0 2951.18424019 0 685.70575432 0 57.39660667 0 20946
0.13850000 0.13851100 11774.08876565 0 -77.89812331 0 2571.49207751 0 647.97348580 0 35.14200885 0 20955
0.13950000 0.13949800 11902.41701030 0 169.03675408 0 2430.64103349 0 499.24448268 0 316.77367690 0 20506
0.14050000 0.14048300 11620.51562042 0 296.20461908 0 2601.65309031 0 -110.46382362 0 63.63674749 0 21447
0.14150000 0.14148400 11401.83720525 0 319.99793789 0 2638.15854524 0 -167.41022956 0 610.15263869 0 21771
0.14250000 0.14249400 11149.38819938 0 211.19020189 0 2718.30003228 0 185.54780485 0 797.14095299 0 22470
0.14350000 0.14350900 10890.38437723 0 234.00804888 0 2656.58289374 0 198.42824031 0 738.67243456 0 22519
0.14450000 0.14449900 10901.57849762 0 120.10704347 0 2540.94353333 0 375.03735733 0 854.48230876 0 22218
0.14550000 0.14550500 10708.85361182 0 86.16793199 0 2468.78519249 0 495.73455571 0 918.31204688 0 23559
0.14650000 0.14650700 10545.03856613 0 136.75871277 0 1986.71831453 0 44.59268097 0 464.94463485 0 23044
0.14750000 0.14750500 10423.43122265 0 208.07887862 0 2294.75039099 0 -164.53806850 0 260.61373819 0 23649
0.14850000 0.14849900 10321.00114575 0 289.44939371 0 2303.69682944 0 -632.30614619 0 81.84042456 0 23640
0.14950000 0.14949500 10025.01575870 0 225.50007449 0 2569.84230111 0 -592.87649027 0 184.36749502 0 24457
0.15050000 0.15050000 10062.05268522 0 46.68911496 0 2924.05704438 0 -438.14407263 0 115.95381443 0 24591
0.15150000 0.15149900 10122.25291526 0 110.59857381 0 3201.85060176 0 -312.45547022 0 -196.97998022 0 25020
0.15250000 0.15250500 10127.16902748 0 153.25536951 0 3447.54548948 0 -15.60256652 0 -151.16380735 0 25297
0.15350000 0.15350100 9970.57313757 0 102.04885675 0 3544.71621209 0 -11.81295263 0 89.71151882 0 25452
0.15450000 0.15450400 9918.88752531 0 294.46072792 0 3511.88676900 0 193.94173429 0 203.15723024 0 26061
0.15550000 0.15549900 9645.94364621 0 117.02561547 0 3426.54128930 0 515.82861079 0 592.02724296 0 26128
0.15650000 0.15649500 9655.75372600 0 2.35010094 0 3314.52257911 0 863.90928612 0 460.03627326 0 26331
0.15750000 0.15749700 9551.89531920 0 -54.48635682 0 2914.65664061 0 617.46812370 0 225.50561065 0 27345
0.15850000 0.15849900 9474.90944474 0 248.34006612 0 2599.21717885 0 209.03663472 0 174.39243759 0 26980
0.15950000 0.15949700 9154.79746190 0 371.87177966 0 2541.79610234 0 30.79545702 0 564.00097438 0 27777
0.16050000 0.16050000 8973.43278137 0 267.37560695 0 2439.90856936 0 -16.92526644 0 844.72316167 0 28224
0.16150000 0.16150500 8710.89688760 0 115.13114070 0 2090.79816783 0 143.06329452 0 819.26456521 0 28075
0.16250000 0.16249700 8741.60044432 0 -3.79366636 0 2324.24706431 0 305.56184079 0 604.72387783 0 28590
0.16350000 0.16349900 8681.57737148 0 -18.90809837 0 2095.84714795 0 156.86605464 0 298.12456021 0 29163
0.16450000 0.16449100 8771.30749181 0 41.29999302 0 2063.61561040 0 171.93770318 0 966.43126331 0 28996
0.16550000 0.16550500 8724.59335340 0 16.55257199 0 2030.00003225 0 5.54002665 0 1095.86120428 0 30777
0.16650000 0.16650700 8796.89563447 0 -33.51902748 0 2002.97248737 0 225.76248859 0 1240.23324759 0 29211
0.16750000 0.16749900 8710.63115180 0 138.96985603 0 2285.89253113 0 201.77761857 0 993.00262841 0 30922
0.16850000 0.16850800 8554.13491282 0 256.34978590 0 2118.39040128 0 32.74341112 0 1135.50012713 0 30867
0.16950000 0.16949900 8518.90277524 0 69.00195321 0 2025.10606468 0 -58.09803845 0 1386.15541637 0 30852
0.17050000 0.17049200 8385.92415417 0 33.62133576 0 2140.87829298 0 -118.30114729 0 1155.48567342 0 31257
0.17150000 0.17149500 8357.67865356 0 89.71705499 0 2285.47178279 0 73.04966299 0 778.51398095 0 32608
0.17250000 0.17250900 8264.43860626 0 214.08893653 0 2231.40562070 0 -174.17320556 0 483.33908808 0 32361
0.17350000 0.17350400 8104.39922333 0 231.95966879 0 2154.94014550 0 -277.80795140 0 619.04039382 0 32508
0.17450000 0.17449800 7945.20133709 0 245.54430411 0 2265.75197229 0 -22.89070288 0 455.95279987 0 32791
0.17550000 0.17549800 7832.07539442 0 -19.54265330 0 2087.52075968 0 197.31768613 0 558.02081175 0 33633
0.17650000 0.17650100 7957.10408627 0 -127.56093254 0 2043.44183458 0 488.37588864 0 467.88212263 0 33984
0.17750000 0.17750300 7946.55216072 0 -57.58992946 0 1876.02828332 0 446.86463566 0 204.12052250 0 34069
0.17850000 0.17849800 7963.23815422 0 96.99146167 0 1804.27961850 0 42.79929652 0 122.25728895 0 34536
