### header ###
fiducial parameters:
Omega_m = 0.31
Omega_nu = 0
Omega_de = 0.69
Omega_k = 0
H_0 = 100
w_de = -1
zeff = 0
beta = 0
fgrowth = 0
b_1 = 2
gamma = 0.55
Lx = 3500 Ly = 3500 Lz = 3500
nx = 700 ny = 700 nz = 700
xoffset = -685.467585 yoffset = -31.7331281 zoffset = 572.489161
bins = 400 dk = 0.001
kx_ny = 0.628318531 ky_ny = 0.628318531 kz_ny = 0.628318531
############################
A(data) = 8.02406954 (not used)
A(ran) = 8.02194152 (used)
Ngal = 476749
weighted Ngal = 0
Nran = 23820508
weighted Nran = 0
SN(data) = 3494.03175
SN(ran) = 69.87402
SN(data+ran) = 3563.90577
############################
13 columns: k_central k_mean P_0(k) sigma^{lin}_{P_0(k)} P^img_1(k) sigma^{lin}_{P_1(k)} P_2(k) sigma^{lin}_{P_2(k)} P^img_3(k) sigma^{lin}_{P_3(k)} P_4(k) sigma^{lin}_{P_4(k)} N_modes
### header ###
0.00050000 0 0 0 0 0 0 0 0 0 0 0 0
0.00150000 0.00179520 12541.73304533 0 -16266.46311432 0 3317.40138356 0 1352.49554892 0 36270.16802468 0 3
0.00250000 0.00253879 17783.59306097 0 -8954.43267199 0 571.60987600 0 -26742.32179499 0 -22660.95214359 0 6
0.00350000 0.00331552 25089.66659256 0 -8186.84375393 0 -17137.85507755 0 12810.34764543 0 7063.88857083 0 7
0.00450000 0.00420575 27396.14257553 0 -7252.56098574 0 -6734.65299234 0 -16258.38031720 0 4460.38640227 0 24
0.00550000 0.00557378 32057.81277067 0 -1970.02124871 0 -14399.66914990 0 1461.27006794 0 23844.47294345 0 45
0.00650000 0.00659388 42594.23706810 0 -22950.93633059 0 -1837.56302690 0 13956.00109441 0 14747.56159570 0 40
0.00750000 0.00754703 58905.65382118 0 -26419.45280328 0 -28412.58199388 0 21257.53497282 0 2163.83122233 0 57
0.00850000 0.00846663 85197.66416580 0 -22041.67701648 0 -12359.59330206 0 9377.11867194 0 -19024.57922665 0 75
0.00950000 0.00948925 88514.60051172 0 2433.88522466 0 -20182.52295618 0 -15096.22910424 0 -19099.98175866 0 112
0.01050000 0.01054430 91199.97144999 0 9166.43447529 0 10410.16657752 0 -29647.58910415 0 17977.69091504 0 105
0.01150000 0.01145670 78681.37956353 0 11784.82892073 0 15277.92595451 0 -21788.34222463 0 -6923.27004563 0 144
0.01250000 0.01249090 71293.92444453 0 9920.54837404 0 37050.87764764 0 -10049.07592053 0 6963.92762236 0 169
0.01350000 0.01339930 76237.16385981 0 443.77545703 0 40963.28362231 0 5302.52528332 0 -25199.50405476 0 180
0.01450000 0.01448870 74422.07765229 0 -1818.65149611 0 34099.99236023 0 1940.21455030 0 -10863.73329139 0 267
0.01550000 0.01550050 83618.75064666 0 -6703.68369983 0 38493.71229476 0 -5041.30699620 0 -10392.87160615 0 238
0.01650000 0.01653350 85493.07379196 0 -6241.31448772 0 18085.97825177 0 -8802.52037547 0 -26320.57694265 0 315
0.01750000 0.01747870 90376.52265322 0 -3040.91436052 0 29588.68433612 0 -4847.48595025 0 -26415.02387335 0 297
0.01850000 0.01844180 95602.88141412 0 461.24204944 0 27333.80538680 0 -11395.63670335 0 -55952.00045256 0 388
0.01950000 0.01947590 87375.92262737 0 8069.96429315 0 33439.52818479 0 -1103.76684420 0 -24636.47633773 0 399
0.02050000 0.02045430 81431.74504848 0 12169.59220817 0 32480.11123926 0 3697.51429459 0 -13962.75521255 0 462
0.02150000 0.02154770 78090.56031120 0 3619.36582602 0 31947.86458523 0 22544.58200974 0 -16990.15026447 0 571
0.02250000 0.02255340 72421.53000406 0 2083.25791463 0 24947.16577214 0 10003.43579763 0 -8618.19938422 0 510
0.02350000 0.02348930 73413.49958456 0 7930.82945948 0 26394.42934919 0 9944.15457055 0 -7403.58749626 0 555
0.02450000 0.02439640 66285.80120580 0 6134.27832370 0 25903.48246673 0 1802.62984210 0 8089.89447782 0 592
0.02550000 0.02547300 64933.20600596 0 -1783.23112902 0 21929.51436607 0 3612.78886508 0 2355.49316494 0 837
0.02650000 0.02652900 62868.43887378 0 -3734.90553550 0 18178.87505700 0 6534.29927475 0 1337.70292296 0 723
0.02750000 0.02749970 69206.56976972 0 -2484.04285609 0 16738.58704459 0 7456.61285982 0 -16838.79158420 0 826
0.02850000 0.02848090 66713.08222056 0 3122.26273096 0 11676.43086075 0 4125.48179348 0 -16067.16126759 0 831
0.02950000 0.02946900 61866.94709393 0 5773.65270436 0 10489.37798927 0 -2375.58943449 0 -7497.83512512 0 996
0.03050000 0.03053250 57396.60667165 0 5539.58375769 0 7181.08912903 0 1985.06853814 0 -2575.90993511 0 1041
0.03150000 0.03150510 57916.56304513 0 278.32392173 0 11955.12127644 0 1118.50410853 0 5340.44799583 0 1036
0.03250000 0.03246190 57581.29304963 0 -1831.14107851 0 15837.18908110 0 -8994.27089668 0 -5421.35347328 0 1059
0.03350000 0.03345080 59648.93898626 0 626.77773440 0 22214.95889989 0 1392.27841200 0 6191.44473674 0 1302
0.03450000 0.03451200 55820.90412671 0 2262.80673389 0 21409.44726933 0 1599.79592375 0 5340.11582608 0 1339
0.03550000 0.03553350 55270.83102972 0 3062.95935923 0 20804.01254825 0 6196.71516335 0 9543.23676119 0 1365
0.03650000 0.03647120 52546.37478484 0 663.62643140 0 18139.67902714 0 7080.62992595 0 1985.87681785 0 1308
0.03750000 0.03744890 51009.86826976 0 1084.87192189 0 12580.15401245 0 9428.66034397 0 -171.80040635 0 1579
0.03850000 0.03847530 50848.98739014 0 755.16134068 0 9642.55551481 0 945.92421051 0 -5499.47979720 0 1662
0.03950000 0.03950240 49330.63948776 0 1434.86257325 0 6867.12228647 0 -6100.52987765 0 -9271.05687250 0 1683
0.04050000 0.04050350 47030.36400669 0 4294.86621855 0 10754.18370963 0 -6841.37913127 0 -4697.11270689 0 1822
0.04150000 0.04152450 44189.64835122 0 3693.80506577 0 12977.98264318 0 -8403.10840229 0 -4468.04845104 0 1887
0.04250000 0.04250150 43071.34354453 0 1419.97029637 0 15879.92825490 0 -5029.29352378 0 -6865.66073960 0 1920
0.04350000 0.04349210 41805.99826426 0 1215.75233741 0 19478.10165122 0 -1316.14510654 0 -12119.65602324 0 2005
0.04450000 0.04448520 40855.43917858 0 2232.47963621 0 19486.95951107 0 3031.52502907 0 -13002.00958804 0 2151
0.04550000 0.04548030 38929.40827637 0 1232.81478996 0 18311.74295482 0 3326.61355781 0 -12114.00913758 0 2274
0.04650000 0.04648670 37794.82715221 0 294.64674298 0 16834.47337752 0 4432.04125073 0 -11507.24573752 0 2311
0.04750000 0.04749250 37214.08371547 0 897.25802124 0 14512.27469330 0 2592.60700094 0 -11828.89677350 0 2568
0.04850000 0.04851840 37343.74063910 0 984.53562162 0 13412.23922257 0 1671.31206975 0 -8662.30045397 0 2493
0.04950000 0.04949480 35185.41236220 0 456.24289478 0 13265.19874898 0 1478.06678469 0 -4191.89359774 0 2644
0.05050000 0.05050630 37119.30461502 0 -714.19041715 0 12019.00859064 0 3855.09562141 0 -2672.32773963 0 2829
0.05150000 0.05149060 36833.41718821 0 9.58667349 0 12752.77155637 0 1815.26336472 0 -2209.39383896 0 2784
0.05250000 0.05249300 37189.28170788 0 1115.45921920 0 10950.29672682 0 1441.38417257 0 535.21403708 0 3055
0.05350000 0.05348950 35107.24174898 0 550.36319190 0 13085.38419392 0 -1572.83481281 0 223.70192894 0 3009
0.05450000 0.05448610 36303.16355264 0 477.64016249 0 12119.76674649 0 -712.92152873 0 -110.19509829 0 3336
0.05550000 0.05550870 35803.24808708 0 -547.02820767 0 14446.50508388 0 945.95299856 0 -237.69291858 0 3349
0.05650000 0.05647670 36262.97101355 0 -195.44867770 0 13447.11704575 0 -1015.79500905 0 -3061.85212675 0 3324
0.05750000 0.05747970 35949.29205144 0 1255.10337982 0 13878.93771368 0 130.89923847 0 -2069.72753370 0 3639
0.05850000 0.05849280 34652.94426167 0 299.42334391 0 14032.73230541 0 502.21850912 0 -638.56090248 0 3846
0.05950000 0.05951020 35318.16953677 0 -536.01567340 0 11687.94607856 0 2355.00598265 0 -272.11345474 0 3787
0.06050000 0.06049470 35088.08662704 0 246.83755165 0 12014.46893746 0 2857.95526521 0 -2308.26969959 0 3930
0.06150000 0.06148310 34481.32322698 0 1213.06176248 0 10881.15005833 0 2154.13186579 0 -953.13007950 0 4083
0.06250000 0.06249100 32789.13982495 0 2107.59488458 0 12314.19677031 0 30.13299982 0 -285.24301751 0 4303
0.06350000 0.06350600 32111.29209955 0 1942.70582338 0 13996.30435675 0 -792.11743922 0 3360.28449759 0 4470
0.06450000 0.06451750 30552.64093483 0 467.96627230 0 13703.21991880 0 1629.18187382 0 4884.58931072 0 4479
0.06550000 0.06550280 29745.91134854 0 417.13655075 0 13409.02824837 0 1012.44452356 0 5376.11195407 0 4636
0.06650000 0.06648880 30696.69188072 0 -107.24842049 0 12578.82533347 0 4005.54637104 0 5672.35200459 0 4653
0.06750000 0.06749660 29520.58953848 0 291.37819270 0 10828.05826082 0 1842.29090960 0 4309.68098916 0 5220
0.06850000 0.06852730 29869.14632377 0 -93.73951987 0 10597.62103670 0 2159.56837728 0 3620.35126293 0 5029
0.06950000 0.06949320 29900.48100301 0 -259.48768275 0 10247.49198128 0 -1086.15852604 0 2923.16018607 0 5040
0.07050000 0.07048030 28828.67996056 0 663.52456601 0 9332.48613059 0 544.25016137 0 2265.32015162 0 5475
0.07150000 0.07148790 28860.67897929 0 754.59665211 0 8972.73522491 0 -1592.37746612 0 1687.57731491 0 5509
0.07250000 0.07249820 28286.46821420 0 805.99992008 0 8798.44575994 0 68.64077397 0 693.80626716 0 5916
0.07350000 0.07351270 28024.27556249 0 140.78018114 0 8711.41728687 0 440.41057752 0 9.55612495 0 5721
0.07450000 0.07449140 27671.62201702 0 304.54097244 0 7266.85535708 0 1368.15181622 0 -464.37551736 0 6028
0.07550000 0.07549160 26940.51640924 0 793.51808831 0 6810.62021292 0 1655.46757294 0 -1377.09825467 0 6183
0.07650000 0.07648840 26205.42476453 0 -74.90804199 0 5511.84758402 0 1705.40375787 0 -1575.42573682 0 6330
0.07750000 0.07749960 26263.44374658 0 329.70836675 0 4640.26739127 0 1134.65863044 0 -1014.05665405 0 6583
0.07850000 0.07848650 25474.42988000 0 470.01797409 0 4158.58804469 0 298.52980730 0 -697.27301206 0 6549
0.07950000 0.07947320 25190.64619490 0 1077.94839718 0 4531.76968037 0 35.55644597 0 -1598.73298056 0 6828
0.08050000 0.08048110 24171.54941859 0 1145.90811246 0 5929.25208503 0 -1568.66054636 0 208.11209559 0 7147
0.08150000 0.08149960 23432.91462994 0 872.08287630 0 6473.18004175 0 -1036.57997720 0 159.86444020 0 7386
0.08250000 0.08250610 23246.01378700 0 -216.51377567 0 7377.68932851 0 -153.45688582 0 2110.63977390 0 7227
0.08350000 0.08350160 23786.01106841 0 -384.00815490 0 7827.35858405 0 1060.05773474 0 236.99204042 0 7798
0.08450000 0.08449610 23724.89183541 0 -174.88958498 0 8081.80060838 0 290.08715962 0 550.94006002 0 7371
0.08550000 0.08548940 23893.30189590 0 1101.75721724 0 8341.49091467 0 -1038.89409308 0 -931.97972464 0 8256
0.08650000 0.08650700 22538.71367759 0 1373.46653213 0 8687.26854644 0 -1216.66026805 0 155.95812400 0 8037
0.08750000 0.08749060 21660.23542648 0 1180.35411497 0 9091.80700601 0 -1110.57632396 0 -768.66071910 0 8155
0.08850000 0.08849210 21024.90542838 0 740.82600173 0 9188.18052123 0 180.04596664 0 -1712.76685387 0 8718
0.08950000 0.08949900 20599.61743210 0 -134.06149444 0 8457.14134741 0 1190.56279845 0 -2290.76435405 0 8571
0.09050000 0.09049190 20732.81749967 0 -599.01166546 0 7745.46766969 0 1861.83356291 0 -3367.59223197 0 8932
0.09150000 0.09150830 20845.53376632 0 -85.81339615 0 6152.79125080 0 1409.54016639 0 -3017.36352563 0 9285
0.09250000 0.09250820 20339.63924536 0 694.71641226 0 5753.81109828 0 938.95418204 0 -2921.00108273 0 9204
0.09350000 0.09350330 19703.75563102 0 941.49195889 0 5182.08053395 0 253.45326573 0 -2458.78688318 0 9349
0.09450000 0.09448040 18722.74765209 0 858.41519854 0 4309.89136333 0 268.30236054 0 -1778.72469282 0 9564
0.09550000 0.09549270 18301.88858573 0 164.99424829 0 5426.18100690 0 -192.00297022 0 -1751.08817007 0 10155
0.09650000 0.09649430 18156.84113061 0 99.66963560 0 5981.12592681 0 -261.58035214 0 -703.31296525 0 9913
0.09750000 0.09749140 18469.19141374 0 5.33196660 0 6426.74271146 0 55.76598540 0 -1185.48060136 0 10476
0.09850000 0.09850240 18441.17843195 0 199.46682438 0 6255.97424578 0 -149.12760682 0 131.55139840 0 10575
0.09950000 0.09950330 18371.53350884 0 358.12105947 0 6405.83816220 0 48.06728723 0 -574.09450568 0 10882
0.10050000 0.10051200 18051.43259834 0 294.72092756 0 6606.91158091 0 454.05057447 0 -927.70027109 0 10875
0.10150000 0.10150300 17977.35874530 0 228.82841533 0 6532.20660536 0 3.63452384 0 -774.55451760 0 11118
0.10250000 0.10250800 17724.24539994 0 483.34462424 0 6383.59386164 0 -342.87446819 0 -1228.29728143 0 11575
0.10350000 0.10349800 17471.79639408 0 643.87672562 0 6409.64704194 0 -134.00945451 0 -862.69243762 0 11364
0.10450000 0.10450100 16638.38250498 0 483.81076911 0 5968.94636951 0 -371.15982918 0 -1252.31315396 0 12093
0.10550000 0.10551000 16585.01389935 0 271.55430234 0 6371.94577593 0 738.57610533 0 -1347.23619463 0 12067
0.10650000 0.10649700 16299.90153527 0 177.54805016 0 6055.36586472 0 632.16774213 0 -1971.42743396 0 12054
0.10750000 0.10749900 16073.80466248 0 304.22873288 0 6039.42171698 0 256.01429446 0 -1779.12329651 0 12807
0.10850000 0.10850100 15971.38565790 0 -14.04125800 0 5920.91462445 0 99.80095337 0 -1545.44188121 0 12736
0.10950000 0.10950300 16057.08545200 0 -75.79272074 0 5809.12843308 0 344.15221448 0 -1251.65988680 0 12933
0.11050000 0.11050200 16022.87196831 0 30.26088518 0 5827.13203323 0 318.50649573 0 -1072.04241913 0 13428
0.11150000 0.11150900 15889.78262399 0 310.75697559 0 5981.05949286 0 431.20172497 0 -915.55060907 0 13453
0.11250000 0.11250000 15614.30318250 0 100.81196735 0 5690.30024312 0 632.51762759 0 -383.12790507 0 13668
0.11350000 0.11349100 15640.43386908 0 174.71132055 0 5601.73271690 0 -300.78634709 0 -997.00305937 0 13791
0.11450000 0.11448600 15241.27655936 0 498.50042245 0 5920.27242961 0 -104.34935368 0 -531.54466864 0 14205
0.11550000 0.11549300 15220.68203520 0 296.62647466 0 6274.96328285 0 -228.16629031 0 -268.50719855 0 14776
0.11650000 0.11649800 14757.63741128 0 73.30919828 0 5864.93295016 0 13.08903806 0 162.42879062 0 14553
0.11750000 0.11747300 14725.08477632 0 312.95040314 0 5670.32576915 0 1051.82103231 0 -756.39036873 0 14568
0.11850000 0.11849100 14448.83027209 0 257.65078406 0 4993.92851830 0 838.75739306 0 -146.76366547 0 16015
0.11950000 0.11950300 14259.82568744 0 112.68747861 0 4635.50629160 0 972.55425893 0 -618.11364023 0 15270
0.12050000 0.12050700 13997.41158924 0 145.00095136 0 4197.27474760 0 602.05323308 0 -5.87984737 0 15999
0.12150000 0.12150000 13877.16614171 0 120.20115823 0 4077.98152001 0 568.55945051 0 318.98149847 0 15670
0.12250000 0.12250700 13911.82251839 0 -64.27229894 0 4418.03475984 0 118.42515733 0 353.48064814 0 16887
0.12350000 0.12352200 13847.27086470 0 36.52726741 0 4093.68207660 0 282.51479668 0 340.13960396 0 16407
0.12450000 0.12449800 13971.05945617 0 118.77725726 0 4504.80856944 0 -344.81101780 0 154.41132022 0 16306
0.12550000 0.12549900 13904.18261426 0 4.89405615 0 4361.36660142 0 -260.68570830 0 1171.00907282 0 17523
0.12650000 0.12650100 13943.26792087 0 73.97375922 0 4485.43200101 0 291.55867159 0 585.14800755 0 17154
0.12750000 0.12750600 13969.84150044 0 252.99376425 0 4303.39190866 0 127.10364552 0 807.36181603 0 18007
0.12850000 0.12850300 13559.16897291 0 486.79586788 0 4390.02177805 0 354.74289317 0 974.64582109 0 17496
0.12950000 0.12949900 13168.53735331 0 410.47765461 0 4281.63479040 0 400.33208338 0 1133.08636032 0 18405
0.13050000 0.13049000 12823.85588171 0 305.41679333 0 4043.92304886 0 317.47898399 0 1567.63082015 0 18100
0.13150000 0.13148800 12519.58839569 0 260.70231678 0 4141.65846004 0 515.63263064 0 904.18265318 0 19059
0.13250000 0.13249300 12409.41876375 0 56.78430711 0 3794.29748583 0 182.42540925 0 1679.83775986 0 18957
0.13350000 0.13349100 12463.00881587 0 29.30833307 0 3974.12311321 0 -21.81403002 0 938.21233628 0 19468
0.13450000 0.13450700 12320.84016520 0 378.48970821 0 3947.01806205 0 -89.75857621 0 1268.03585521 0 19953
0.13550000 0.13551000 11863.66387343 0 301.69095603 0 3800.45369843 0 -409.77234752 0 919.04392755 0 19956
0.13650000 0.13649900 11720.72016003 0 444.67674427 0 3793.27883194 0 -31.22683479 0 824.09320607 0 19723
0.13750000 0.13749600 11565.15399632 0 140.99719871 0 3753.27452238 0 410.01040250 0 869.96363333 0 20946
0.13850000 0.13851100 11330.97432641 0 -5.78431535 0 3513.23759263 0 438.71429736 0 343.73810953 0 20955
0.13950000 0.13949800 11439.37238638 0 -129.38675890 0 3512.96078451 0 446.81481020 0 531.43615986 0 20506
0.14050000 0.14048300 11418.99930872 0 -86.52191421 0 3156.77516742 0 321.43401842 0 438.36551913 0 21447
0.14150000 0.14148400 11539.46620275 0 226.01493759 0 3143.84269203 0 244.69062786 0 853.40940049 0 21771
0.14250000 0.14249400 11263.76531476 0 239.54088959 0 3101.31389240 0 122.10449087 0 914.84087305 0 22470
0.14350000 0.14350900 11049.67084207 0 183.82827280 0 2740.66612841 0 285.85642431 0 1228.12012423 0 22519
0.14450000 0.14449900 10865.94775635 0 218.14140741 0 3089.80974692 0 165.85235346 0 714.06972881 0 22218
0.14550000 0.14550500 10587.55629344 0 295.29668845 0 2455.55376433 0 242.77733014 0 482.48541183 0 23559
0.14650000 0.14650700 10384.46771161 0 163.02226723 0 2747.29845098 0 -141.07470498 0 468.32612285 0 23044
0.14750000 0.14750500 10195.91709228 0 254.40327120 0 2439.48782102 0 -239.47445564 0 91.78957275 0 23649
0.14850000 0.14849900 10069.71473399 0 122.29604209 0 2857.00304528 0 -24.30906769 0 336.31300851 0 23640
0.14950000 0.14949500 10044.68020758 0 27.62179656 0 2515.28895673 0 -25.75566693 0 74.24458829 0 24457
0.15050000 0.15050000 10060.49148742 0 -114.48230246 0 2656.77112326 0 68.99519909 0 -176.59693746 0 24591
0.15150000 0.15149900 10103.41889074 0 163.36550930 0 2701.43688158 0 225.87099737 0 34.46870078 0 25020
0.15250000 0.15250500 9923.51575709 0 268.62677966 0 2625.25928683 0 -154.92064717 0 -113.69948910 0 25297
0.15350000 0.15350100 9853.12898822 0 243.42063221 0 2714.08147652 0 -136.83732627 0 269.22800690 0 25452
0.15450000 0.15450400 9526.41789979 0 201.41887524 0 2954.91561365 0 -76.09743112 0 128.35481823 0 26061
0.15550000 0.15549900 9493.25628696 0 23.51706430 0 2885.29283519 0 86.08854342 0 211.97965865 0 26128
0.15650000 0.15649500 9482.87044628 0 86.17911504 0 2853.32703344 0 295.74843930 0 258.85213131 0 26331
0.15750000 0.15749700 9451.39182682 0 115.31161959 0 2898.73463752 0 19.32375344 0 -158.81146211 0 27345
0.15850000 0.15849900 9419.06063835 0 94.64091783 0 2637.93709874 0 41.93310855 0 31.76428544 0 26980
0.15950000 0.15949700 9329.99485751 0 -9.48405519 0 2812.40372091 0 -101.97566869 0 -42.12964232 0 27777
0.16050000 0.16050000 9275.71832125 0 30.40427178 0 2650.99136970 0 107.77402375 0 -217.67969147 0 28224
0.16150000 0.16150500 9350.13541635 0 24.85936224 0 2648.84333869 0 80.47642486 0 -478.10852183 0 28075
0.16250000 0.16249700 9246.45416675 0 117.43639872 0 2245.73320902 0 111.40308893 0 -654.40097036 0 28590
0.16350000 0.16349900 9034.50772507 0 168.70015540 0 2158.73795292 0 108.65416285 0 -593.74123884 0 29163
0.16450000 0.16449100 8966.26898722 0 232.18332975 0 2309.97483761 0 14.89249833 0 -555.52621696 0 28996
0.16550000 0.16550500 8804.64626184 0 254.99564057 0 2217.70915490 0 111.71754296 0 -606.69585888 0 30777
0.16650000 0.16650700 8414.74541567 0 334.88578584 0 2440.57290885 0 46.45559963 0 -0.90641816 0 29211
0.16750000 0.16749900 8377.27666849 0 194.32262226 0 2294.81682494 0 342.23227335 0 97.45849233 0 30922
0.16850000 0.16850800 8172.72653979 0 -71.61147872 0 2359.96638417 0 257.34629513 0 333.49178014 0 30867
0.16950000 0.16949900 8351.61101956 0 -122.47762821 0 2370.83940714 0 313.52505680 0 290.27649638 0 30852
0.17050000 0.17049200 8462.83252236 0 -98.34162096 0 2445.63296129 0 111.17832074 0 327.77403161 0 31257
0.17150000 0.17149500 8473.19621839 0 191.85460106 0 2356.79969927 0 -249.56134355 0 246.00712729 0 32608
0.17250000 0.17250900 8389.85482948 0 241.09212230 0 2400.65717788 0 -296.27105303 0 492.57451421 0 32361
0.17350000 0.17350400 8334.95824303 0 -71.16094582 0 2211.67473787 0 64.22358071 0 613.35143333 0 32508
0.17450000 0.17449800 8310.26695869 0 -60.38026604 0 2267.00314499 0 194.00263208 0 247.36348708 0 32791
0.17550000 0.17549800 8456.26663374 0 46.95595798 0 2301.30520728 0 168.60936234 0 -134.80112574 0 33633
0.17650000 0.17650100 8255.79112058 0 197.84805049 0 2258.37780396 0 145.47816856 0 -78.09432490 0 33984
0.17750000 0.17750300 8043.61216008 0 231.46030694 0 2162.46932638 0 -21.73021252 0 337.02606622 0 34069
