### header ###
fiducial parameters:
Omega_m = 0.31
Omega_nu = 0
Omega_de = 0.69
Omega_k = 0
H_0 = 100
w_de = -1
zeff = 0
beta = 0
fgrowth = 0
b_1 = 2
gamma = 0.55
Lx = 3500 Ly = 3500 Lz = 3500
nx = 700 ny = 700 nz = 700
xoffset = -685.467585 yoffset = -31.7331281 zoffset = 572.489161
bins = 400 dk = 0.001
kx_ny = 0.628318531 ky_ny = 0.628318531 kz_ny = 0.628318531
############################
A(data) = 8.06605832 (not used)
A(ran) = 8.05950933 (used)
Ngal = 478596
weighted Ngal = 0
Nran = 23820508
weighted Nran = 0
SN(data) = 3494.64157
SN(ran) = 70.2012492
SN(data+ran) = 3564.84282
############################
13 columns: k_central k_mean P_0(k) sigma^{lin}_{P_0(k)} P^img_1(k) sigma^{lin}_{P_1(k)} P_2(k) sigma^{lin}_{P_2(k)} P^img_3(k) sigma^{lin}_{P_3(k)} P_4(k) sigma^{lin}_{P_4(k)} N_modes
### header ###
0.00050000 0 0 0 0 0 0 0 0 0 0 0 0
0.00150000 0.00179520 40458.71778033 0 -51722.37237184 0 15091.24655807 0 -123463.06512280 0 54410.73283781 0 3
0.00250000 0.00253879 57696.00233475 0 -32098.22675626 0 -17937.60909920 0 -24990.56928543 0 3508.32148041 0 6
0.00350000 0.00331552 70335.06111523 0 -1300.17881415 0 14388.92899482 0 -9744.71985592 0 -2113.39678278 0 7
0.00450000 0.00420575 66248.93036416 0 18094.50394188 0 12528.77842529 0 -1738.00068213 0 33278.64730518 0 24
0.00550000 0.00557378 56169.35018875 0 -3542.50174713 0 21137.28952529 0 35587.78064611 0 -19203.95088871 0 45
0.00650000 0.00659388 53787.58239701 0 -11849.93419066 0 7085.74534002 0 19998.72236419 0 -5156.99064591 0 40
0.00750000 0.00754703 56436.19321688 0 6412.86908846 0 17326.52749246 0 -4821.76493970 0 -22036.80519356 0 57
0.00850000 0.00846663 52076.02242655 0 10731.20863563 0 13663.24882621 0 -4536.51970772 0 24659.17460361 0 75
0.00950000 0.00948925 48865.15895239 0 -2985.20949436 0 14206.78925156 0 5267.75818339 0 28079.96935633 0 112
0.01050000 0.01054430 54909.31962439 0 -7304.19123636 0 12388.15990009 0 8062.29117205 0 31355.49520743 0 105
0.01150000 0.01145670 64930.65937125 0 -9965.13662608 0 17940.48790365 0 3741.10603740 0 21368.14749776 0 144
0.01250000 0.01249090 74053.36923583 0 -6276.95630131 0 11757.03738543 0 7440.70192905 0 24769.56568205 0 169
0.01350000 0.01339930 76969.37670007 0 -9305.03783737 0 16232.58180038 0 -753.72304568 0 24618.64989477 0 180
0.01450000 0.01448870 99608.62708701 0 -14083.55427633 0 24015.42963865 0 -2869.65871255 0 11276.27704181 0 267
0.01550000 0.01550050 90337.21590012 0 1779.90943157 0 27600.31624518 0 -10957.01762798 0 12350.95688870 0 238
0.01650000 0.01653350 101464.45944986 0 15326.31201397 0 32463.61347528 0 -1191.34893351 0 13631.91414697 0 315
0.01750000 0.01747870 82770.61056555 0 7710.52341256 0 27421.83036911 0 2618.66018123 0 13904.62550726 0 297
0.01850000 0.01844180 82187.43121735 0 3790.48860609 0 21528.58548438 0 1538.77634167 0 -11563.16097786 0 388
0.01950000 0.01947590 76643.85035040 0 6352.39205030 0 25211.68361206 0 -10852.92670236 0 -19047.16676928 0 399
0.02050000 0.02045430 71816.64889921 0 7550.01899199 0 18782.20603637 0 -7277.65087377 0 -19982.44604671 0 462
0.02150000 0.02154770 65377.42767768 0 1522.67718139 0 19046.61315304 0 -7653.55630137 0 -18882.07840623 0 571
0.02250000 0.02255340 66844.95360915 0 -1710.16485754 0 17875.38263372 0 4230.77960250 0 -26852.82359668 0 510
0.02350000 0.02348930 68714.73710127 0 -7118.97338680 0 19021.70042219 0 9685.19503769 0 -25282.65721415 0 555
0.02450000 0.02439640 72241.38327926 0 3270.94190863 0 13897.98211236 0 7302.18714557 0 -22898.45351095 0 592
0.02550000 0.02547300 68987.44846155 0 4644.48594703 0 11645.20690476 0 4015.51146338 0 -7590.07866318 0 837
0.02650000 0.02652900 64266.54132863 0 2954.42843136 0 19855.22503454 0 1905.82390941 0 -3739.10194661 0 723
0.02750000 0.02749970 62928.56159754 0 2630.95046178 0 15053.71137694 0 1686.96833704 0 2601.23234197 0 826
0.02850000 0.02848090 60007.57158714 0 4621.45551141 0 25277.01032849 0 8627.48906474 0 6512.11033581 0 831
0.02950000 0.02946900 59120.01402967 0 -511.30335164 0 15554.84479823 0 2305.92236673 0 8768.94908662 0 996
0.03050000 0.03053250 60637.47614607 0 -3863.45522665 0 16240.22170450 0 5129.52020803 0 5440.51966754 0 1041
0.03150000 0.03150510 63454.16485668 0 -3425.31226125 0 19062.44657753 0 4687.31369943 0 4313.61166447 0 1036
0.03250000 0.03246190 64623.95597377 0 -1336.10850819 0 13546.98941561 0 3627.51505708 0 4656.53263643 0 1059
0.03350000 0.03345080 65373.77381049 0 3386.51483508 0 17640.98151731 0 -431.11203914 0 6655.35300199 0 1302
0.03450000 0.03451200 60421.56581210 0 7309.04091464 0 13315.90999665 0 2149.99081631 0 7198.56125759 0 1339
0.03550000 0.03553350 55191.77463051 0 5759.05938025 0 13829.55514499 0 1911.75867551 0 13828.89080550 0 1365
0.03650000 0.03647120 52060.96406479 0 1026.59716914 0 13793.12719633 0 6088.49426058 0 13001.12380205 0 1308
0.03750000 0.03744890 50081.12166397 0 100.59373183 0 9390.02900268 0 6846.67170253 0 12571.62832234 0 1579
0.03850000 0.03847530 51247.14819062 0 -441.55545591 0 12333.68406199 0 7020.50720219 0 13723.81444297 0 1662
0.03950000 0.03950240 49602.57578531 0 524.89241589 0 8444.62962036 0 1034.36551223 0 13652.17650139 0 1683
0.04050000 0.04050350 49607.55833148 0 2135.77395124 0 10488.59185421 0 -560.95608505 0 13725.58601494 0 1822
0.04150000 0.04152450 46583.70642351 0 2994.86456160 0 10103.58497561 0 -3786.45827986 0 12159.40566934 0 1887
0.04250000 0.04250150 45400.29634689 0 2341.67490357 0 12344.20277056 0 -3974.89817595 0 11814.94564423 0 1920
0.04350000 0.04349210 44368.90929003 0 1407.36999072 0 16036.04803485 0 -955.52723783 0 6836.99449064 0 2005
0.04450000 0.04448520 44408.32676639 0 1006.01150284 0 15398.83574153 0 -4353.99243309 0 3495.80975337 0 2151
0.04550000 0.04548030 42439.33524389 0 2943.45575746 0 18390.35646103 0 -3413.30986114 0 -4337.97077907 0 2274
0.04650000 0.04648670 40009.73500893 0 2039.92083529 0 16049.77771762 0 -1543.62601994 0 -1307.44225924 0 2311
0.04750000 0.04749250 37795.38076845 0 1625.31763245 0 16946.41458143 0 2413.50107467 0 -3127.96497824 0 2568
0.04850000 0.04851840 38082.15398125 0 -698.96043436 0 16143.44958559 0 4285.80905685 0 -1620.70047300 0 2493
0.04950000 0.04949480 37236.22836511 0 -1615.29717849 0 14842.89431239 0 7323.99962547 0 -4622.40773134 0 2644
0.05050000 0.05050630 38953.43522123 0 -445.48502399 0 12304.01023147 0 4410.04054132 0 319.04461072 0 2829
0.05150000 0.05149060 38387.08580676 0 1023.68182602 0 11383.34642280 0 925.26103794 0 1704.40724863 0 2784
0.05250000 0.05249300 37574.37716507 0 2539.13874439 0 12568.97096438 0 -1266.31964486 0 1254.26188313 0 3055
0.05350000 0.05348950 36231.52561106 0 694.30673624 0 14106.58471195 0 -1464.84642886 0 5634.82789578 0 3009
0.05450000 0.05448610 36421.74815145 0 108.46759417 0 13669.22788161 0 455.33164245 0 2254.70179212 0 3336
0.05550000 0.05550870 35781.32488394 0 -198.57550223 0 15921.33874972 0 -129.22953189 0 -111.39201661 0 3349
0.05650000 0.05647670 35928.36535753 0 752.22717460 0 13097.67447447 0 915.72887350 0 -1525.25703307 0 3324
0.05750000 0.05747970 34647.74026900 0 1646.77579795 0 13985.78564818 0 71.11145253 0 -1216.13986878 0 3639
0.05850000 0.05849280 34249.46874528 0 499.34191914 0 10853.90106695 0 1266.70717623 0 -721.89896969 0 3846
0.05950000 0.05951020 33659.42455569 0 -12.78388479 0 11400.28707977 0 2854.68892939 0 -181.60384275 0 3787
0.06050000 0.06049470 34344.02639923 0 -610.51802541 0 11229.33038457 0 2268.76364464 0 -2275.61741370 0 3930
0.06150000 0.06148310 33185.08616046 0 1031.19329117 0 11722.38100875 0 2862.73850954 0 3322.30642346 0 4083
0.06250000 0.06249100 33084.88162085 0 1064.45787663 0 10760.56136873 0 2077.23456993 0 4573.76700841 0 4303
0.06350000 0.06350600 31994.70051921 0 -30.01297582 0 10421.17246839 0 1365.09585457 0 5526.61806533 0 4470
0.06450000 0.06451750 32688.93528534 0 506.33519949 0 11455.87015036 0 868.98373258 0 5590.89291090 0 4479
0.06550000 0.06550280 32260.10414511 0 685.33150974 0 8658.23691076 0 130.27475935 0 5667.72377282 0 4636
0.06650000 0.06648880 31085.99482134 0 173.73917043 0 9845.37836084 0 -1077.05818227 0 4083.27409127 0 4653
0.06750000 0.06749660 31224.28815833 0 443.71898818 0 8714.39574224 0 -729.19341728 0 1027.28476051 0 5220
0.06850000 0.06852730 30914.15234016 0 422.61070814 0 9968.89014419 0 -1503.98709709 0 -823.48754990 0 5029
0.06950000 0.06949320 30175.96044450 0 1436.60092824 0 11733.34261032 0 -1942.30721969 0 -186.15235378 0 5040
0.07050000 0.07048030 29018.23816146 0 1093.83718330 0 10334.84155178 0 63.72344380 0 -857.11087868 0 5475
0.07150000 0.07148790 28932.87053711 0 264.59313173 0 11309.16184652 0 1004.50234496 0 -2414.78546435 0 5509
0.07250000 0.07249820 28623.62050492 0 329.55556867 0 10670.34406611 0 -146.99618429 0 -1373.86513582 0 5916
0.07350000 0.07351270 28264.10211806 0 1096.69384310 0 11852.03793238 0 -77.03060666 0 389.42030727 0 5721
0.07450000 0.07449140 27186.21129697 0 1105.65467558 0 11193.56677541 0 592.40923817 0 661.18387655 0 6028
0.07550000 0.07549160 26882.16525745 0 379.38656652 0 9981.32436497 0 2408.47423920 0 1222.17428581 0 6183
0.07650000 0.07648840 26208.19284574 0 -712.76983788 0 9052.09057689 0 3279.27936921 0 1690.65542121 0 6330
0.07750000 0.07749960 26433.07176280 0 54.46897327 0 6981.68763137 0 2041.76991353 0 -49.11118601 0 6583
0.07850000 0.07848650 25977.77776626 0 389.27415258 0 6835.04576147 0 942.78077750 0 -368.38510458 0 6549
0.07950000 0.07947320 25437.11614537 0 874.81663329 0 6180.64922004 0 -609.82379064 0 238.05166190 0 6828
0.08050000 0.08048110 24613.00300911 0 752.03673061 0 6170.34088564 0 -496.54283542 0 929.36776321 0 7147
0.08150000 0.08149960 24880.28893024 0 57.19431530 0 6907.08230674 0 -603.13389199 0 -821.74476597 0 7386
0.08250000 0.08250610 24269.42876999 0 -182.83729973 0 6761.08263169 0 25.33414352 0 -1245.78048232 0 7227
0.08350000 0.08350160 24995.33038510 0 517.22150925 0 8107.67663148 0 -685.94602377 0 -1756.05964391 0 7798
0.08450000 0.08449610 24242.96591367 0 156.75865308 0 7530.21060289 0 -762.47128952 0 -2176.75262540 0 7371
0.08550000 0.08548940 24143.09354381 0 516.26596762 0 7956.29580656 0 -254.83952079 0 -1842.24662030 0 8256
0.08650000 0.08650700 23330.05273238 0 952.80455315 0 8351.35635609 0 2.95521457 0 -2058.66628121 0 8037
0.08750000 0.08749060 22918.38369562 0 901.13112046 0 7723.98735954 0 906.87987150 0 -2268.25431770 0 8155
0.08850000 0.08849210 21593.91220081 0 655.32993841 0 6904.52459971 0 904.30444875 0 -2552.10443675 0 8718
0.08950000 0.08949900 21365.82230955 0 884.78836903 0 7009.65632386 0 155.05130060 0 -2677.38779207 0 8571
0.09050000 0.09049190 20439.29016872 0 542.24939227 0 6507.59282729 0 617.70396422 0 -2993.98984794 0 8932
0.09150000 0.09150830 20029.17125744 0 329.01191752 0 5526.65128230 0 596.49160433 0 -2639.81939396 0 9285
0.09250000 0.09250820 19824.11180180 0 199.90307397 0 5350.24700329 0 -114.85765427 0 -2084.40943641 0 9204
0.09350000 0.09350330 19652.15859737 0 335.23788577 0 5225.70549373 0 127.37270302 0 -3771.49956903 0 9349
0.09450000 0.09448040 19240.04666762 0 570.54139665 0 5639.01323456 0 549.33789462 0 -2773.09696780 0 9564
0.09550000 0.09549270 18718.76161516 0 587.86737053 0 4565.16381203 0 -199.71152275 0 -2378.39073267 0 10155
0.09650000 0.09649430 18481.59241754 0 22.80002054 0 5127.07322425 0 1269.48632976 0 -2696.00037009 0 9913
0.09750000 0.09749140 18132.59273926 0 -47.89500185 0 4524.65017552 0 701.88352811 0 -2528.47609559 0 10476
0.09850000 0.09850240 18104.13686447 0 387.11837094 0 4282.18840664 0 967.81419668 0 -2065.35396540 0 10575
0.09950000 0.09950330 17778.72123805 0 297.37164212 0 3936.67651067 0 132.82803745 0 -2094.78420476 0 10882
0.10050000 0.10051200 17548.30615858 0 255.08754087 0 3597.56441845 0 363.27633390 0 -1599.65198352 0 10875
0.10150000 0.10150300 17273.04816358 0 193.45012307 0 4400.83943939 0 -73.19094586 0 -1535.25534238 0 11118
0.10250000 0.10250800 17220.89751369 0 121.60070009 0 4379.76880526 0 487.71487084 0 -698.76223975 0 11575
0.10350000 0.10349800 17304.60428932 0 336.64074932 0 4031.72134691 0 -56.77268117 0 -543.33115841 0 11364
0.10450000 0.10450100 16783.31923686 0 477.81067629 0 4708.62792470 0 -222.85378886 0 334.13286775 0 12093
0.10550000 0.10551000 16740.46933981 0 405.96346778 0 5255.62291539 0 -141.21864520 0 369.89979861 0 12067
0.10650000 0.10649700 16084.98771054 0 616.78939019 0 5708.60279605 0 70.80818155 0 548.18858731 0 12054
0.10750000 0.10749900 15589.16900516 0 520.75025917 0 5753.37927762 0 -20.26479033 0 1256.07774440 0 12807
0.10850000 0.10850100 15630.57949999 0 73.39589459 0 5830.26550116 0 306.19960670 0 2028.08452006 0 12736
0.10950000 0.10950300 15596.25529305 0 -146.31523632 0 5606.73740772 0 629.53363605 0 1160.77824469 0 12933
0.11050000 0.11050200 15408.80083387 0 138.25126215 0 5238.32794403 0 1364.99620364 0 1014.96569192 0 13428
0.11150000 0.11150900 15434.93152044 0 210.72073532 0 4665.72266603 0 -37.60150436 0 901.52972415 0 13453
0.11250000 0.11250000 15079.28844727 0 181.42004215 0 4108.45255791 0 688.12948622 0 1220.77917288 0 13668
0.11350000 0.11349100 14975.65148696 0 236.18376071 0 4212.53241120 0 13.71772466 0 1296.59138091 0 13791
0.11450000 0.11448600 14567.52559415 0 339.05783783 0 4307.52188582 0 153.63404302 0 1111.79427969 0 14205
0.11550000 0.11549300 14435.32203581 0 387.84582268 0 4556.49418169 0 -317.06709351 0 710.23538272 0 14776
0.11650000 0.11649800 14125.40766414 0 367.26901423 0 4933.18574435 0 -677.83886754 0 957.48261039 0 14553
0.11750000 0.11747300 14277.87357689 0 189.80843544 0 5200.21700200 0 -527.72028765 0 976.16494406 0 14568
0.11850000 0.11849100 14311.97633733 0 -125.19920565 0 5651.00456234 0 78.88123503 0 1202.98594690 0 16015
0.11950000 0.11950300 14253.62518554 0 -265.13346118 0 5256.94052205 0 120.24544753 0 1146.58352427 0 15270
0.12050000 0.12050700 14611.03983069 0 93.99019730 0 5366.63404402 0 560.36703737 0 19.48906325 0 15999
0.12150000 0.12150000 14444.51206541 0 215.41429381 0 5215.38608700 0 337.44017117 0 592.23318820 0 15670
0.12250000 0.12250700 14051.77670410 0 249.54584230 0 4799.77530261 0 83.36630164 0 37.72551440 0 16887
0.12350000 0.12352200 13615.30565974 0 342.11601394 0 4980.34277575 0 92.92736484 0 152.30093511 0 16407
0.12450000 0.12449800 13612.31613204 0 221.79084567 0 4949.52849578 0 -120.87214112 0 -856.49304295 0 16306
0.12550000 0.12549900 13245.49001080 0 210.96764816 0 5152.24061856 0 -128.78774613 0 -184.66755502 0 17523
0.12650000 0.12650100 13177.17376667 0 265.98824465 0 5007.29281436 0 79.92458019 0 -245.39593496 0 17154
0.12750000 0.12750600 13035.33728574 0 79.56661193 0 4708.01894684 0 353.10972526 0 -225.79127663 0 18007
0.12850000 0.12850300 12866.59505551 0 235.68329162 0 4703.22463019 0 602.93791184 0 -551.06849899 0 17496
0.12950000 0.12949900 12670.39345972 0 282.19259203 0 4237.40085275 0 200.49655058 0 -399.37432728 0 18405
0.13050000 0.13049000 12496.11506708 0 -35.03947912 0 3914.57615033 0 362.90873272 0 -93.18734303 0 18100
0.13150000 0.13148800 12553.80187938 0 -41.19790619 0 3797.14307331 0 526.23991782 0 -286.19080852 0 19059
0.13250000 0.13249300 12454.04023277 0 12.02244101 0 3628.85480839 0 317.51884436 0 -422.49112704 0 18957
0.13350000 0.13349100 12454.70457225 0 136.01908147 0 3151.92548915 0 521.75894796 0 -307.98114376 0 19468
0.13450000 0.13450700 12250.19873285 0 277.86331302 0 3526.29186359 0 -180.49993196 0 -44.02677445 0 19953
0.13550000 0.13551000 12268.57879205 0 -10.08593569 0 3252.98259777 0 320.20941929 0 277.83673944 0 19956
0.13650000 0.13649900 12137.37174295 0 -1.07939887 0 3667.70759618 0 203.37314057 0 -125.10287643 0 19723
0.13750000 0.13749600 12066.95175711 0 258.29297890 0 3542.36887923 0 158.87789606 0 638.98940145 0 20946
0.13850000 0.13851100 12139.36476142 0 223.61335034 0 3813.28652289 0 -32.01806312 0 333.75308701 0 20955
0.13950000 0.13949800 11803.20897993 0 160.43577216 0 3321.57565002 0 162.81742923 0 1230.79962684 0 20506
0.14050000 0.14048300 11683.51714864 0 283.14591919 0 3335.13924792 0 363.44906217 0 962.39872261 0 21447
0.14150000 0.14148400 11522.19337603 0 63.34410595 0 3335.12817560 0 231.42930443 0 857.74532289 0 21771
0.14250000 0.14249400 11604.23930293 0 150.03443022 0 3563.08519897 0 231.21450133 0 811.75974345 0 22470
0.14350000 0.14350900 11153.81712931 0 377.95823661 0 3389.46007348 0 -273.30151520 0 788.63519307 0 22519
0.14450000 0.14449900 11047.09099038 0 269.62882505 0 3534.29715444 0 -304.52657842 0 1232.95873018 0 22218
0.14550000 0.14550500 10831.53497082 0 183.10746446 0 3573.23852082 0 28.28990063 0 890.12744405 0 23559
0.14650000 0.14650700 10661.20939813 0 117.76081784 0 3953.80539717 0 165.48253781 0 890.39539431 0 23044
0.14750000 0.14750500 10780.33654085 0 137.98995528 0 3556.36429780 0 91.11548961 0 872.12938006 0 23649
0.14850000 0.14849900 10489.51085717 0 117.09094219 0 3584.35513494 0 218.65184159 0 911.19032756 0 23640
0.14950000 0.14949500 10491.66996051 0 129.44322776 0 3331.23071726 0 -50.38782506 0 810.71451599 0 24457
0.15050000 0.15050000 10345.36026035 0 160.52545799 0 3635.53142025 0 -30.37437651 0 669.90222511 0 24591
0.15150000 0.15149900 10144.80724091 0 286.79092852 0 3696.75030418 0 -120.46578679 0 710.48118834 0 25020
0.15250000 0.15250500 10030.65157203 0 120.93746783 0 3494.42571276 0 82.09752394 0 213.39027283 0 25297
0.15350000 0.15350100 9815.91490450 0 138.96321264 0 3470.02230886 0 181.43775787 0 578.63637333 0 25452
0.15450000 0.15450400 9698.42646585 0 62.83732564 0 3331.98363535 0 113.57658629 0 146.01406908 0 26061
0.15550000 0.15549900 9702.61180463 0 49.84118439 0 3422.03485310 0 290.67067114 0 207.73674378 0 26128
0.15650000 0.15649500 9519.39804586 0 109.50042063 0 2965.25716503 0 165.60211892 0 137.67217956 0 26331
0.15750000 0.15749700 9602.77265174 0 22.20576887 0 2978.99792013 0 302.87237309 0 406.32664003 0 27345
0.15850000 0.15849900 9569.23457987 0 -10.29363036 0 2803.04760644 0 183.62011309 0 323.84778523 0 26980
0.15950000 0.15949700 9574.88146552 0 141.35151310 0 3098.15827983 0 117.50615437 0 209.67661509 0 27777
0.16050000 0.16050000 9311.58158134 0 437.90823211 0 2904.92406710 0 116.90049820 0 450.12654255 0 28224
0.16150000 0.16150500 9084.45498233 0 311.31169907 0 2993.27014682 0 -8.51569180 0 940.16438714 0 28075
0.16250000 0.16249700 8787.84954509 0 117.57701725 0 3085.31438304 0 80.18024017 0 1167.05625286 0 28590
0.16350000 0.16349900 8931.59046588 0 -34.57366642 0 3076.14649809 0 227.26278860 0 724.12561421 0 29163
0.16450000 0.16449100 8915.25878678 0 -120.09154222 0 3251.10030255 0 -34.92842370 0 933.58299727 0 28996
0.16550000 0.16550500 8878.01148609 0 98.15372361 0 3232.97490682 0 -69.45669359 0 952.67057802 0 30777
0.16650000 0.16650700 8937.09341132 0 166.52333634 0 3201.03124972 0 -65.29549247 0 1097.21313514 0 29211
0.16750000 0.16749900 8732.70936749 0 67.61237644 0 3043.43885058 0 257.85008591 0 1005.34051995 0 30922
0.16850000 0.16850800 8873.79293033 0 73.41892502 0 2937.13345999 0 254.05117127 0 1004.15356673 0 30867
0.16950000 0.16949900 8667.70374848 0 102.11097250 0 2793.01608015 0 282.60116081 0 942.20280214 0 30852
0.17050000 0.17049200 8605.70980182 0 26.36730215 0 2454.97800344 0 507.22098548 0 941.38123564 0 31257
0.17150000 0.17149500 8552.29690690 0 -44.75489053 0 2156.80029607 0 286.39121760 0 980.41671679 0 32608
0.17250000 0.17250900 8612.36426904 0 39.75617877 0 2117.79249574 0 204.65863748 0 686.85949057 0 32361
0.17350000 0.17350400 8564.25501770 0 74.01483755 0 1929.69584172 0 7.31952641 0 611.74483900 0 32508
0.17450000 0.17449800 8359.18448973 0 168.91495850 0 1837.64053318 0 -135.51418346 0 385.17296347 0 32791
0.17550000 0.17549800 8425.12018403 0 115.30054727 0 2122.87469283 0 -91.71948493 0 508.10455700 0 33633
0.17650000 0.17650100 8234.52118460 0 178.79147224 0 2187.65886534 0 -29.71690186 0 113.84010762 0 33984
0.17750000 0.17750300 8165.89491538 0 194.24954492 0 2046.12133719 0 -116.54175488 0 230.43279520 0 34069
0.17850000 0.17849800 7966.68164724 0 151.32767776 0 2263.62608592 0 83.28303776 0 104.02316299 0 34536
