### header ###
fiducial parameters:
Omega_m = 0.31
Omega_nu = 0
Omega_de = 0.69
Omega_k = 0
H_0 = 100
w_de = -1
zeff = 0
beta = 0
fgrowth = 0
b_1 = 2
gamma = 0.55
Lx = 3500 Ly = 3500 Lz = 3500
nx = 700 ny = 700 nz = 700
xoffset = -685.467585 yoffset = -31.7331281 zoffset = 572.489161
bins = 400 dk = 0.001
kx_ny = 0.628318531 ky_ny = 0.628318531 kz_ny = 0.628318531
############################
A(data) = 8.05399612 (not used)
A(ran) = 8.052687 (used)
Ngal = 478981
weighted Ngal = 0
Nran = 23820508
weighted Nran = 0
SN(data) = 3486.5008
SN(ran) = 70.1418242
SN(data+ran) = 3556.64263
############################
13 columns: k_central k_mean P_0(k) sigma^{lin}_{P_0(k)} P^img_1(k) sigma^{lin}_{P_1(k)} P_2(k) sigma^{lin}_{P_2(k)} P^img_3(k) sigma^{lin}_{P_3(k)} P_4(k) sigma^{lin}_{P_4(k)} N_modes
### header ###
0.00050000 0 0 0 0 0 0 0 0 0 0 0 0
0.00150000 0.00179520 10628.61247386 0 -7439.53933495 0 15697.78851164 0 -39612.23854794 0 -20600.94611108 0 3
0.00250000 0.00253879 19595.13612455 0 -2537.74363146 0 6701.04848652 0 22434.96599404 0 12763.29026495 0 6
0.00350000 0.00331552 29211.11805980 0 -2193.95901817 0 42488.60708933 0 -17987.98817712 0 7121.39822593 0 7
0.00450000 0.00420575 42434.90631396 0 -9199.80646229 0 39465.41952085 0 1235.42785861 0 21172.94241121 0 24
0.00550000 0.00557378 69769.04387050 0 -18517.68819645 0 55526.26956328 0 32181.15846915 0 -11325.54888725 0 45
0.00650000 0.00659388 79148.41022438 0 -9413.44696967 0 65310.10794279 0 6668.11939251 0 20315.05868426 0 40
0.00750000 0.00754703 102123.15205332 0 689.22786085 0 37125.50511692 0 27654.79208329 0 -23750.02601275 0 57
0.00850000 0.00846663 104179.72566514 0 -2713.14032891 0 58414.48549223 0 -22023.51840378 0 -14717.44487219 0 75
0.00950000 0.00948925 106876.39037472 0 15565.58495330 0 68217.58971691 0 -36909.15188996 0 -27553.14814146 0 112
0.01050000 0.01054430 87558.61598688 0 8625.80607137 0 70387.10104188 0 -26259.56843289 0 -23230.40180901 0 105
0.01150000 0.01145670 94611.57617311 0 8228.43140595 0 79226.91300734 0 11680.63834418 0 -34876.49449976 0 144
0.01250000 0.01249090 77902.22006604 0 13684.06479687 0 68280.92341488 0 2834.36014103 0 -31601.52226490 0 169
0.01350000 0.01339930 80367.03029392 0 15290.65912805 0 63399.46757208 0 30486.20698592 0 -37781.42963918 0 180
0.01450000 0.01448870 70272.94537300 0 -3117.76736708 0 49073.31865898 0 36169.29914558 0 -33667.72879931 0 267
0.01550000 0.01550050 57707.07465957 0 1037.37054119 0 29833.60416111 0 27408.65430257 0 -11111.52084850 0 238
0.01650000 0.01653350 72508.55847713 0 1927.11599004 0 37447.93121564 0 11949.69583728 0 -47648.19973157 0 315
0.01750000 0.01747870 59545.30202596 0 -530.92683291 0 20515.57848673 0 7421.62431339 0 -12949.52676840 0 297
0.01850000 0.01844180 60422.00870510 0 5574.19584508 0 28794.79864662 0 -2881.79398055 0 -10117.71326208 0 388
0.01950000 0.01947590 61723.89265727 0 -1865.74209357 0 18936.00062810 0 6967.71435745 0 -2732.08507668 0 399
0.02050000 0.02045430 62484.89354206 0 -1243.44422178 0 20816.74572179 0 5250.02031903 0 -9524.83455734 0 462
0.02150000 0.02154770 61942.79251894 0 -2206.64790241 0 1870.20424047 0 12562.43829274 0 -2588.85348282 0 571
0.02250000 0.02255340 68526.28613286 0 -9838.34743458 0 6442.21074923 0 9357.88604373 0 -10523.42538809 0 510
0.02350000 0.02348930 73960.36170735 0 -8198.59149057 0 -3554.33806236 0 8331.75834116 0 -16590.99295476 0 555
0.02450000 0.02439640 80957.84954624 0 1269.74099323 0 -335.85572149 0 -7683.45157838 0 -19427.27968030 0 592
0.02550000 0.02547300 75345.50954217 0 7810.48436102 0 6358.34896106 0 -13463.06119349 0 -4492.54043354 0 837
0.02650000 0.02652900 74748.37906470 0 1153.40407636 0 15639.76952959 0 -7246.78123218 0 1951.10971792 0 723
0.02750000 0.02749970 72370.48658664 0 1672.77361663 0 16318.17087122 0 468.73026271 0 -1506.88804619 0 826
0.02850000 0.02848090 74674.19448841 0 4197.19724133 0 25647.82248666 0 1730.59329683 0 -2089.10410213 0 831
0.02950000 0.02946900 66594.49762175 0 5870.63519744 0 16743.34814426 0 -1899.53482891 0 -2123.73833417 0 996
0.03050000 0.03053250 64708.54853539 0 4708.25146566 0 24760.15420595 0 1775.20369352 0 2835.54487978 0 1041
0.03150000 0.03150510 57530.69252520 0 3189.87034630 0 19912.35823061 0 4992.23445261 0 -5612.74968009 0 1036
0.03250000 0.03246190 53490.95481512 0 4168.85208979 0 19097.32440070 0 -4663.48605642 0 -10203.67879197 0 1059
0.03350000 0.03345080 52057.86381384 0 2786.05158784 0 22904.76473609 0 -1644.02986140 0 -11062.57010048 0 1302
0.03450000 0.03451200 48911.10910038 0 1136.25304521 0 21045.94284554 0 2726.19459987 0 -11263.10097527 0 1339
0.03550000 0.03553350 50313.30831542 0 305.55851909 0 21431.92408872 0 2294.47358287 0 -9109.57808734 0 1365
0.03650000 0.03647120 50251.08184994 0 -2574.91342588 0 18519.79193816 0 -1548.36497496 0 -12965.02802315 0 1308
0.03750000 0.03744890 52458.23907929 0 -1758.45126607 0 18569.39595335 0 3580.71234008 0 -11258.89349184 0 1579
0.03850000 0.03847530 54207.55567738 0 39.76437229 0 20255.37885349 0 1525.53384119 0 -9626.60029475 0 1662
0.03950000 0.03950240 52743.24072012 0 1452.04682137 0 18897.35821448 0 1872.47406706 0 -6690.31940377 0 1683
0.04050000 0.04050350 50005.49768546 0 1311.48365779 0 15836.74618811 0 3019.83265406 0 -9563.47697096 0 1822
0.04150000 0.04152450 48933.47519652 0 2340.19121204 0 15604.67025991 0 3412.68981095 0 -5950.37808079 0 1887
0.04250000 0.04250150 46368.79259878 0 3222.65550009 0 11775.52816788 0 702.86453609 0 -9941.34220005 0 1920
0.04350000 0.04349210 44355.73322350 0 2774.89068443 0 13909.16516043 0 1823.06935371 0 -5369.26925733 0 2005
0.04450000 0.04448520 42957.74149189 0 2890.20894741 0 12988.83352151 0 -773.15829744 0 -7833.50372432 0 2151
0.04550000 0.04548030 39035.37042489 0 2157.63072044 0 14074.36424673 0 -2447.17201444 0 -5750.79942593 0 2274
0.04650000 0.04648670 39247.18399867 0 2429.88811540 0 16583.24232738 0 892.03520562 0 -5271.96566683 0 2311
0.04750000 0.04749250 36473.78807810 0 703.80679093 0 14099.83059381 0 3517.76617348 0 -3340.88578450 0 2568
0.04850000 0.04851840 36562.25595340 0 -1711.01742655 0 11229.44110782 0 5662.01045321 0 -4691.13365149 0 2493
0.04950000 0.04949480 38023.80282946 0 -1997.97886888 0 10816.60947696 0 4965.50586049 0 -3367.20470060 0 2644
0.05050000 0.05050630 40125.66224978 0 -816.65481825 0 7408.71398265 0 1771.71591121 0 -6756.05579622 0 2829
0.05150000 0.05149060 37269.66678606 0 1681.07786024 0 8236.22632262 0 -1905.97892196 0 -1706.03488038 0 2784
0.05250000 0.05249300 38850.13043067 0 2245.16852045 0 8866.49626828 0 -4409.70837157 0 -386.20822584 0 3055
0.05350000 0.05348950 36221.00690249 0 735.65190435 0 10783.31499623 0 -1122.03618015 0 3095.97703184 0 3009
0.05450000 0.05448610 36683.60863341 0 101.86926365 0 12177.67500529 0 1822.02855518 0 2685.86919288 0 3336
0.05550000 0.05550870 35930.35837600 0 -242.86147980 0 14898.92027597 0 795.12911157 0 822.36260170 0 3349
0.05650000 0.05647670 36702.98520184 0 1224.62126959 0 14532.86921747 0 1325.24655754 0 2908.05753502 0 3324
0.05750000 0.05747970 34772.52536971 0 2424.72841204 0 16484.58791325 0 1334.56945504 0 6277.72029173 0 3639
0.05850000 0.05849280 32944.15237241 0 1133.99429095 0 13307.82719953 0 709.02628485 0 7276.82044941 0 3846
0.05950000 0.05951020 32712.85150695 0 -503.33127777 0 15063.01212978 0 4058.07347998 0 4220.17231533 0 3787
0.06050000 0.06049470 33569.96017116 0 -891.08187845 0 11787.92917168 0 1062.33863365 0 4931.09307496 0 3930
0.06150000 0.06148310 32995.74940606 0 696.43926600 0 11170.86850953 0 577.09399848 0 969.94008304 0 4083
0.06250000 0.06249100 32856.12739010 0 642.05975712 0 10106.22018892 0 -966.21203128 0 2997.35583468 0 4303
0.06350000 0.06350600 32869.30345663 0 -70.06257120 0 10270.54456155 0 1424.91962556 0 1907.08615444 0 4470
0.06450000 0.06451750 32633.57366124 0 -213.36702095 0 11129.45801471 0 1426.81299311 0 -206.83434931 0 4479
0.06550000 0.06550280 32533.36912164 0 822.58072650 0 10707.29241403 0 28.88791690 0 -503.39881895 0 4636
0.06650000 0.06648880 31813.33583868 0 1238.50596491 0 11153.04206657 0 -610.99634984 0 -501.40801495 0 4653
0.06750000 0.06749660 31227.83130227 0 984.61091343 0 12590.78344428 0 -1601.34604922 0 1462.06727533 0 5220
0.06850000 0.06852730 30922.01369078 0 340.61903563 0 12145.67598657 0 -1591.91242848 0 755.22998909 0 5029
0.06950000 0.06949320 31246.76497771 0 -70.52118690 0 13241.94686686 0 -549.22163521 0 -1216.17308576 0 5040
0.07050000 0.07048030 30422.98401120 0 1134.14930350 0 13307.93792278 0 502.83413038 0 306.58049467 0 5475
0.07150000 0.07148790 30434.94212201 0 425.20163215 0 13455.64273586 0 2129.10841170 0 -197.34758141 0 5509
0.07250000 0.07249820 29578.71924378 0 87.57898906 0 12311.76085885 0 2853.30488879 0 374.97092338 0 5916
0.07350000 0.07351270 28965.97678832 0 807.47586098 0 11856.02396931 0 3169.71871513 0 1746.98033756 0 5721
0.07450000 0.07449140 28955.34735649 0 717.54200987 0 11686.61739958 0 984.22891822 0 583.92119396 0 6028
0.07550000 0.07549160 27132.06762860 0 1193.33087965 0 10839.97208233 0 859.60547346 0 4459.55597791 0 6183
0.07650000 0.07648840 26951.25656432 0 620.29599546 0 10312.60832354 0 522.65691351 0 5016.94788160 0 6330
0.07750000 0.07749960 26291.78889812 0 -226.48661863 0 9855.31023620 0 1398.14674415 0 3025.63455227 0 6583
0.07850000 0.07848650 26599.59952807 0 181.80978799 0 9184.58201567 0 709.50460929 0 1979.47701410 0 6549
0.07950000 0.07947320 25777.70085679 0 615.50057158 0 8463.27541535 0 -959.89084104 0 -337.24308379 0 6828
0.08050000 0.08048110 24868.77371242 0 1677.75616280 0 8717.68422271 0 -883.10869735 0 320.38214756 0 7147
0.08150000 0.08149960 23911.79267835 0 475.74347325 0 8044.79689883 0 176.34116676 0 471.70318192 0 7386
0.08250000 0.08250610 23304.14349230 0 -224.19021846 0 7872.42294606 0 1718.40266720 0 -207.17426968 0 7227
0.08350000 0.08350160 23708.61551793 0 6.52165468 0 6666.23709729 0 1501.24116054 0 -2177.45018186 0 7798
0.08450000 0.08449610 23404.79092490 0 349.71605770 0 5738.52021771 0 1536.28506859 0 -1913.92885118 0 7371
0.08550000 0.08548940 22892.80662529 0 783.35590859 0 5234.28654547 0 -373.38536646 0 -428.21109004 0 8256
0.08650000 0.08650700 22382.70462089 0 930.22919008 0 5588.09161272 0 -337.94396195 0 480.91314171 0 8037
0.08750000 0.08749060 21453.73656861 0 569.24372018 0 5730.59243314 0 452.11402485 0 282.18816310 0 8155
0.08850000 0.08849210 20980.83757560 0 432.27352601 0 5318.71302221 0 642.66430605 0 290.93087077 0 8718
0.08950000 0.08949900 20768.24893909 0 648.17500212 0 5648.34720439 0 701.15386191 0 556.60355417 0 8571
0.09050000 0.09049190 19937.71385444 0 220.14660544 0 5359.02735687 0 288.10189178 0 -440.66413376 0 8932
0.09150000 0.09150830 19697.33368263 0 462.77445919 0 5615.04165133 0 612.95393687 0 834.91972527 0 9285
0.09250000 0.09250820 19665.11321740 0 76.23738531 0 4585.90227641 0 1100.02218394 0 1250.30906317 0 9204
0.09350000 0.09350330 19381.10808581 0 -263.75606397 0 4414.72413472 0 1409.72839591 0 1488.24225120 0 9349
0.09450000 0.09448040 19691.57607372 0 73.54681038 0 4553.67073887 0 196.49169070 0 1309.33562678 0 9564
0.09550000 0.09549270 19365.38538456 0 464.79294400 0 4779.41329727 0 -217.94874896 0 1719.32167016 0 10155
0.09650000 0.09649430 19083.81616443 0 877.96449524 0 5228.13033287 0 -724.10014786 0 2054.64702730 0 9913
0.09750000 0.09749140 18506.39442513 0 657.83449829 0 5179.62247784 0 -826.16151634 0 3375.60859514 0 10476
0.09850000 0.09850240 18223.05363302 0 174.71464224 0 5604.40114718 0 212.40815762 0 2847.56942453 0 10575
0.09950000 0.09950330 18026.07697450 0 283.63642318 0 6227.51837100 0 36.93007858 0 2139.44996308 0 10882
0.10050000 0.10051200 17666.78003414 0 583.84258045 0 5854.39209694 0 453.83134243 0 2087.55397666 0 10875
0.10150000 0.10150300 17151.14186733 0 261.93245207 0 5746.80231667 0 143.12529954 0 2052.64293650 0 11118
0.10250000 0.10250800 17151.14186733 0 128.37364118 0 5826.43447677 0 -76.64484686 0 2006.00630437 0 11575
0.10350000 0.10349800 16894.15320829 0 644.16349883 0 6649.56217611 0 -6.25707041 0 749.20332269 0 11364
0.10450000 0.10450100 16320.71750593 0 809.03262985 0 6206.46988152 0 -707.48280277 0 1862.79685516 0 12093
0.10550000 0.10551000 15927.64997487 0 356.45246012 0 6719.63891989 0 -250.05074031 0 1238.49489259 0 12067
0.10650000 0.10649700 15639.21591335 0 -74.87759310 0 6670.05704935 0 275.32885787 0 1274.91176892 0 12054
0.10750000 0.10749900 16237.01073030 0 -459.62659724 0 6908.18953923 0 939.80342935 0 632.39804648 0 12807
0.10850000 0.10850100 16286.39329900 0 -221.74766361 0 6097.80608575 0 408.04063591 0 -53.13741548 0 12736
0.10950000 0.10950300 16391.91255452 0 336.76033043 0 5990.11665456 0 717.23862817 0 610.96202563 0 12933
0.11050000 0.11050200 15787.36361942 0 547.46888619 0 5826.44554909 0 -525.38291988 0 931.78485172 0 13428
0.11150000 0.11150900 15444.78588953 0 359.55381830 0 5602.60743056 0 691.14890920 0 809.09906380 0 13453
0.11250000 0.11250000 15027.80213686 0 151.85914935 0 5766.23424673 0 304.90193023 0 423.26840424 0 13668
0.11350000 0.11349100 15044.29990084 0 267.34792614 0 5712.46703741 0 340.17835710 0 395.94412105 0 13791
0.11450000 0.11448600 14736.82144063 0 332.08005873 0 5719.24330020 0 -186.46791504 0 616.47272170 0 14205
0.11550000 0.11549300 14376.41726778 0 207.78878371 0 5154.06755216 0 83.62229379 0 1718.01513584 0 14776
0.11650000 0.11649800 14651.89670927 0 -77.78064594 0 5333.14026145 0 590.76942686 0 1500.15607270 0 14553
0.11750000 0.11747300 14442.29760045 0 -40.74825907 0 5130.58315122 0 691.72134840 0 1262.71006697 0 14568
0.11850000 0.11849100 14562.21087824 0 47.32488785 0 5021.65361965 0 284.81451854 0 1071.83536665 0 16015
0.11950000 0.11950300 14281.74889058 0 170.32114376 0 5086.26063497 0 35.06505619 0 1322.02451102 0 15270
0.12050000 0.12050700 14264.14389412 0 228.45417075 0 4867.05074821 0 89.34834657 0 1108.81582431 0 15999
0.12150000 0.12150000 14003.27992139 0 157.99543177 0 5121.65885741 0 45.97716447 0 1304.92884150 0 15670
0.12250000 0.12250700 13736.54761651 0 268.25917847 0 4731.81337287 0 224.39284201 0 695.55680171 0 16887
0.12350000 0.12352200 13579.65277383 0 377.31382731 0 4832.85940917 0 329.01081029 0 933.81773055 0 16407
0.12450000 0.12449800 13388.32300096 0 459.19477658 0 4710.05625460 0 307.89810132 0 935.83621537 0 16306
0.12550000 0.12549900 12877.22448733 0 317.31954251 0 4750.39273392 0 280.90930958 0 1203.89387753 0 17523
0.12650000 0.12650100 12797.61447189 0 189.69992665 0 4430.45790828 0 359.51063623 0 1375.13845318 0 17154
0.12750000 0.12750600 12664.41440432 0 -14.30068257 0 4457.99478011 0 172.08607233 0 1476.63845479 0 18007
0.12850000 0.12850300 12640.05528972 0 15.02448044 0 4051.07577070 0 493.03955185 0 1332.38820705 0 17496
0.12950000 0.12949900 12666.18597629 0 -110.03787128 0 4024.92293948 0 194.46545525 0 1011.77132621 0 18405
0.13050000 0.13049000 12773.36608053 0 153.08374848 0 3873.82999500 0 91.44168030 0 940.53088109 0 18100
0.13150000 0.13148800 12667.84682501 0 208.67235523 0 3718.77315824 0 -72.98854376 0 938.43156831 0 19059
0.13250000 0.13249300 12256.62068125 0 280.44205747 0 3616.86348061 0 -86.11124169 0 437.45094510 0 18957
0.13350000 0.13349100 12262.48901340 0 172.90099544 0 3877.05204152 0 -11.15891040 0 761.68293999 0 19468
0.13450000 0.13450700 12094.85401565 0 192.31188808 0 3955.31123334 0 9.94738769 0 -152.21789268 0 19953
0.13550000 0.13551000 11923.01153446 0 261.29579340 0 3635.46498630 0 272.71911091 0 -16.12661965 0 19956
0.13650000 0.13649900 11733.23188707 0 67.86305388 0 3622.66537881 0 -68.62848369 0 34.35055907 0 19723
0.13750000 0.13749600 11722.15956225 0 130.73204637 0 3551.22673908 0 137.41862332 0 168.46652935 0 20946
0.13850000 0.13851100 11646.75703024 0 123.19732933 0 3659.80195626 0 105.03417697 0 -398.88714499 0 20955
0.13950000 0.13949800 11511.01032796 0 231.79247668 0 3663.58869134 0 125.75725083 0 307.51942782 0 20506
0.14050000 0.14048300 11518.20733909 0 60.20742705 0 3656.51347578 0 159.70942765 0 -196.46622435 0 21447
0.14150000 0.14148400 11278.82367651 0 116.92485732 0 3568.85388020 0 198.90435027 0 402.49007948 0 21771
0.14250000 0.14249400 11295.09999400 0 76.93782057 0 3573.36031640 0 429.25410303 0 667.03670744 0 22470
0.14350000 0.14350900 11238.96330717 0 -3.15439462 0 3504.35758813 0 260.81857620 0 750.81656042 0 22519
0.14450000 0.14449900 11170.86850953 0 263.66416367 0 3517.74402883 0 237.53458433 0 845.97433437 0 22218
0.14550000 0.14550500 10788.64078447 0 377.02483963 0 3475.28166315 0 -103.44053726 0 1221.02276403 0 23559
0.14650000 0.14650700 10721.08853075 0 218.88546764 0 3539.73366592 0 -100.52187244 0 1407.87931767 0 23044
0.14750000 0.14750500 10540.52105761 0 -117.32124655 0 3577.06954521 0 -83.15858483 0 1065.58946822 0 23649
0.14850000 0.14849900 10744.08574940 0 -112.18700953 0 3579.74904782 0 105.74645963 0 929.10534911 0 23640
0.14950000 0.14949500 10751.55956865 0 -14.36556639 0 3129.52617604 0 275.09966075 0 292.05803344 0 24457
0.15050000 0.15050000 10677.20890749 0 158.83360676 0 3260.06888565 0 83.06812393 0 226.67041922 0 24591
0.15150000 0.15149900 10490.52951105 0 403.93501787 0 2798.77368906 0 93.54032875 0 3.51041415 0 25020
0.15250000 0.15250500 10220.77446149 0 276.47484349 0 2956.44359448 0 270.87113990 0 -246.90177113 0 25297
0.15350000 0.15350100 9883.54466449 0 252.63391369 0 2644.45869806 0 -27.78256671 0 -112.18147337 0 25452
0.15450000 0.15450400 9798.45384826 0 220.47434625 0 2770.76070727 0 260.06787257 0 -80.91721411 0 26061
0.15550000 0.15549900 9586.90601028 0 92.61224648 0 2636.54198582 0 62.53206165 0 269.06524372 0 26128
0.15650000 0.15649500 9518.12472850 0 121.81439596 0 2765.53456995 0 212.15017246 0 203.52815312 0 26331
0.15750000 0.15749700 9441.38244518 0 40.52526245 0 2650.39346416 0 210.58343849 0 528.67693651 0 27345
0.15850000 0.15849900 9347.86558977 0 107.85806269 0 2449.71864915 0 312.84300159 0 258.28412104 0 26980
0.15950000 0.15949700 9285.89378776 0 112.69744370 0 2249.68602898 0 8.37347886 0 299.82637653 0 27777
0.16050000 0.16050000 9171.04056241 0 155.09891159 0 2134.88816526 0 228.56378677 0 260.02469051 0 28224
0.16150000 0.16150500 9067.92400138 0 170.87918893 0 2244.72562746 0 -32.43980798 0 332.17085179 0 28075
0.16250000 0.16249700 8905.94696160 0 140.09591147 0 2108.61353846 0 -78.47587721 0 271.45243695 0 28590
0.16350000 0.16349900 8794.81403740 0 284.67943618 0 2501.79179277 0 -24.73612726 0 -224.64418378 0 29163
0.16450000 0.16449100 8616.38352295 0 266.60497315 0 2332.75060977 0 -237.75603083 0 146.49682244 0 28996
0.16550000 0.16550500 8405.14571006 0 171.68525417 0 2474.11098073 0 -101.19174809 0 95.00597238 0 30777
0.16650000 0.16650700 8496.04949682 0 9.93631536 0 2452.05490969 0 136.08994435 0 236.49489303 0 29211
0.16750000 0.16749900 8390.84026639 0 -57.31478219 0 2662.98269748 0 -68.83752918 0 121.10687440 0 30922
0.16850000 0.16850800 8436.69076347 0 64.84573464 0 2666.39297353 0 60.95658055 0 -38.76598076 0 30867
0.16950000 0.16949900 8486.56051445 0 -60.28039367 0 2660.34748418 0 11.95755719 0 -287.85608617 0 30852
0.17050000 0.17049200 8505.94815521 0 -59.58870554 0 2697.78301439 0 56.94241991 0 -56.26268989 0 31257
0.17150000 0.17149500 8407.18301782 0 32.37968525 0 2502.79937433 0 259.34484976 0 111.58467506 0 32608
0.17250000 0.17250900 8524.38357603 0 57.53788954 0 2505.05812859 0 308.82706938 0 115.16214321 0 32361
0.17350000 0.17350400 8455.97875330 0 55.86641138 0 2255.04503419 0 347.55695436 0 -123.33351892 0 32508
0.17450000 0.17449800 8301.53089440 0 145.63096664 0 2285.12854072 0 283.97966525 0 -28.71795671 0 32791
0.17550000 0.17549800 8143.65061482 0 123.14750387 0 2204.90954741 0 -101.51472780 0 56.87764681 0 33633
0.17650000 0.17650100 8098.47552956 0 146.65958562 0 2270.13661292 0 -104.44058964 0 -137.88698266 0 33984
0.17750000 0.17750300 8128.69190399 0 103.20469674 0 2361.60508824 0 -360.02328487 0 124.18940963 0 34069
0.17850000 0.17849800 7984.70739204 0 114.21213774 0 2500.47418612 0 -12.37863770 0 205.34955055 0 34536
