### header ###
fiducial parameters:
Omega_m = 0.31
Omega_nu = 0
Omega_de = 0.69
Omega_k = 0
H_0 = 100
w_de = -1
zeff = 0
beta = 0
fgrowth = 0
b_1 = 2
gamma = 0.55
Lx = 3500 Ly = 3500 Lz = 3500
nx = 700 ny = 700 nz = 700
xoffset = -685.467585 yoffset = -31.7331281 zoffset = 572.489161
bins = 400 dk = 0.001
kx_ny = 0.628318531 ky_ny = 0.628318531 kz_ny = 0.628318531
############################
A(data) = 8.05792888 (not used)
A(ran) = 8.05396506 (used)
Ngal = 478543
weighted Ngal = 0
Nran = 23820508
weighted Nran = 0
SN(data) = 3490.96192
SN(ran) = 70.1529566
SN(data+ran) = 3561.11487
############################
13 columns: k_central k_mean P_0(k) sigma^{lin}_{P_0(k)} P^img_1(k) sigma^{lin}_{P_1(k)} P_2(k) sigma^{lin}_{P_2(k)} P^img_3(k) sigma^{lin}_{P_3(k)} P_4(k) sigma^{lin}_{P_4(k)} N_modes
### header ###
0.00050000 0 0 0 0 0 0 0 0 0 0 0 0
0.00150000 0.00179520 22961.34431592 0 -20395.88665544 0 36152.24776536 0 -80995.27400413 0 38238.82737744 0 3
0.00250000 0.00253879 37288.15756851 0 -9561.15178275 0 -6543.56681062 0 20196.47408545 0 4552.14275804 0 6
0.00350000 0.00331552 50729.29555885 0 -18660.18901686 0 -4332.04708530 0 -21497.25080515 0 3742.23541453 0 7
0.00450000 0.00420575 51368.27942414 0 -19738.19056121 0 -23693.22498643 0 -19015.38919705 0 13428.51554005 0 24
0.00550000 0.00557378 70401.16289440 0 -8919.76522298 0 -12603.84878756 0 -21301.27065586 0 -17362.29110162 0 45
0.00650000 0.00659388 75663.61743421 0 -22351.59138815 0 -33177.22480984 0 -18795.93571914 0 -1457.99265979 0 40
0.00750000 0.00754703 94139.00934985 0 -6455.09893532 0 -7849.20428091 0 -36593.36918614 0 -44752.67606825 0 57
0.00850000 0.00846663 85379.69318582 0 2982.08709876 0 -2490.49802146 0 -60191.15073263 0 -22019.53236684 0 75
0.00950000 0.00948925 88552.68930909 0 5410.81262005 0 993.29936671 0 -24059.05459844 0 -29484.27231308 0 112
0.01050000 0.01054430 82892.84903155 0 8884.40021751 0 -67.29426855 0 -24685.52673668 0 -36252.78447472 0 105
0.01150000 0.01145670 82153.54990341 0 1020.23944023 0 17518.85377456 0 -16500.42133774 0 -31299.46924385 0 144
0.01250000 0.01249090 77175.10049520 0 2598.46426076 0 6912.59632450 0 8585.85712342 0 -31495.67083963 0 169
0.01350000 0.01339930 72275.15386995 0 916.10533254 0 11387.11101324 0 14046.90488118 0 14774.13517526 0 180
0.01450000 0.01448870 78035.97374985 0 -2281.67397538 0 5692.82473318 0 10630.70514325 0 -14212.21469072 0 267
0.01550000 0.01550050 67658.76948332 0 4282.00017712 0 8155.76373817 0 10122.76224220 0 19503.67872155 0 238
0.01650000 0.01653350 72256.66308751 0 6566.84083739 0 12973.11082026 0 -2787.65707494 0 22225.14543872 0 315
0.01750000 0.01747870 69404.65366072 0 3906.15011115 0 16164.15483300 0 2337.58921571 0 37325.58202639 0 297
0.01850000 0.01844180 70435.37637809 0 -10744.24076195 0 6917.46814742 0 20587.54859805 0 33837.79970852 0 388
0.01950000 0.01947590 79155.27506577 0 -6035.95607931 0 15868.19159059 0 2066.43905323 0 25173.81626118 0 399
0.02050000 0.02045430 82563.11519845 0 -5066.27508867 0 10838.25587198 0 2237.46218238 0 9407.82222866 0 462
0.02150000 0.02154770 80827.63900637 0 5246.37752417 0 15329.08009517 0 -10232.23431768 0 13432.16940724 0 571
0.02250000 0.02255340 80623.35461347 0 6790.06997806 0 17962.41110679 0 -10686.41000942 0 7969.62688564 0 510
0.02350000 0.02348930 71179.32588265 0 8478.89846567 0 26788.16121974 0 -7357.13909365 0 5307.07600883 0 555
0.02450000 0.02439640 67761.85282738 0 10255.53048910 0 24794.69985939 0 -702.89443137 0 13074.20114586 0 592
0.02550000 0.02547300 60285.70838658 0 4608.40124044 0 25883.44155880 0 9788.59947917 0 8758.14249760 0 837
0.02650000 0.02652900 58325.68544718 0 177.94001046 0 16552.90415738 0 15928.64648410 0 12774.80548276 0 723
0.02750000 0.02749970 59827.20341584 0 -1760.21176572 0 14637.72413350 0 16696.29076378 0 11483.66168566 0 826
0.02850000 0.02848090 59038.52171901 0 1043.15361644 0 8532.12313108 0 7385.79427028 0 9261.51252851 0 831
0.02950000 0.02946900 57567.45264360 0 3344.72788122 0 6248.52257118 0 5252.75518327 0 14564.42534320 0 996
0.03050000 0.03053250 53640.76336992 0 3219.88741889 0 6569.61999092 0 -2770.69427332 0 14191.17727356 0 1041
0.03150000 0.03150510 54763.49710653 0 -841.74138460 0 7887.37058456 0 967.69793727 0 12445.95743565 0 1036
0.03250000 0.03246190 52389.70138866 0 -695.25563448 0 10786.12736673 0 -7035.35518977 0 774.26331545 0 1059
0.03350000 0.03345080 52597.52892550 0 5660.50461704 0 17748.16162155 0 -3686.32017420 0 1077.94728995 0 1302
0.03450000 0.03451200 48219.53169221 0 3229.33211196 0 16689.31519915 0 -4679.04267279 0 3464.60794203 0 1339
0.03550000 0.03553350 46381.74721881 0 -397.62157826 0 17552.84581175 0 2098.50450590 0 8231.58701852 0 1365
0.03650000 0.03647120 48177.67830440 0 -1913.27558401 0 18128.05308608 0 1940.71280491 0 22.66139504 0 1308
0.03750000 0.03744890 51025.70169425 0 -2257.01590801 0 19496.81388016 0 3736.27850378 0 -4409.55335903 0 1579
0.03850000 0.03847530 51562.59872471 0 1462.11156463 0 17051.26949747 0 1348.93026033 0 1360.95480508 0 1662
0.03950000 0.03950240 49004.89169160 0 1705.48126414 0 19706.41298898 0 -4866.72965079 0 3602.15943325 0 1683
0.04050000 0.04050350 48821.31254611 0 2568.92329815 0 21799.85744244 0 -297.97397659 0 2439.21101290 0 1822
0.04150000 0.04152450 46756.54541392 0 2202.07503226 0 20600.50321808 0 403.36700761 0 -1661.54627926 0 1887
0.04250000 0.04250150 43194.02490352 0 2570.94953359 0 21911.24503012 0 3648.22030450 0 5037.52026112 0 1920
0.04350000 0.04349210 42737.29150476 0 1641.89290271 0 19612.63039776 0 4490.50312578 0 -1366.87849886 0 2005
0.04450000 0.04448520 40514.85446716 0 452.40744146 0 19635.99300313 0 2902.96426560 0 161.34038109 0 2151
0.04550000 0.04548030 40814.80374649 0 1363.43500584 0 16374.19683481 0 1122.31298827 0 367.58568272 0 2274
0.04650000 0.04648670 39269.66081805 0 647.75314654 0 16983.61759283 0 1148.98621876 0 3523.95560306 0 2311
0.04750000 0.04749250 39425.33770500 0 721.20252046 0 17313.35142592 0 1003.65199042 0 3281.62670208 0 2568
0.04850000 0.04851840 37858.82518966 0 982.74411946 0 12894.60803730 0 2227.35314982 0 -27.40610767 0 2493
0.04950000 0.04949480 37560.64748229 0 507.69155928 0 14944.20608448 0 3843.77970544 0 2987.05857260 0 2644
0.05050000 0.05050630 37819.96132955 0 -1426.80192078 0 11037.41377849 0 4232.47366820 0 932.55548553 0 2829
0.05150000 0.05149060 38284.00246270 0 -1168.66173996 0 11970.06891494 0 3461.72913758 0 -1520.57343967 0 2784
0.05250000 0.05249300 37898.90700550 0 925.88330259 0 10739.53502390 0 -274.71766554 0 -1535.55429515 0 3055
0.05350000 0.05348950 37809.77479071 0 1964.13077190 0 10322.47376495 0 -1101.64095783 0 -3024.93699580 0 3009
0.05450000 0.05448610 35212.53955800 0 2119.86302048 0 10109.92941773 0 -3418.23704569 0 736.93629402 0 3336
0.05550000 0.05550870 33575.05344057 0 2143.65744651 0 12370.55490363 0 -2453.85969863 0 -1167.48807353 0 3349
0.05650000 0.05647670 33938.77931087 0 653.73330917 0 12631.86176935 0 710.27635033 0 -2579.59701927 0 3324
0.05750000 0.05747970 32740.53231899 0 -384.29603534 0 11191.24158720 0 -331.16548470 0 -1588.12569339 0 3639
0.05850000 0.05849280 33347.62788880 0 50.30290033 0 11814.39202799 0 1329.25473913 0 -4743.31751836 0 3846
0.05950000 0.05951020 32972.49752394 0 171.04527380 0 10540.60963621 0 -930.16386336 0 -5277.16965949 0 3787
0.06050000 0.06049470 33276.98645646 0 1249.00252884 0 11990.77416235 0 216.97881331 0 -5451.50341376 0 3930
0.06150000 0.06148310 31314.52760560 0 -247.77094863 0 10303.29649837 0 372.78303199 0 -7022.03518301 0 4083
0.06250000 0.06249100 31560.33321657 0 201.79533428 0 9548.60683873 0 1072.49306275 0 -8312.27104948 0 4303
0.06350000 0.06350600 32356.32264779 0 63.12409885 0 10092.73409729 0 594.96915966 0 -8322.29150344 0 4470
0.06450000 0.06451750 31508.07184343 0 -212.16899541 0 9016.79200536 0 -273.84516634 0 -7172.87346402 0 4479
0.06550000 0.06550280 31937.01370690 0 811.41760861 0 8491.18874622 0 1545.48617051 0 -7963.53710699 0 4636
0.06650000 0.06648880 31690.76520294 0 -315.43171113 0 8392.58969371 0 730.78893929 0 -7086.63112600 0 4653
0.06750000 0.06749660 31065.95391342 0 3.11275160 0 7285.74474322 0 1777.09706107 0 -4980.16561855 0 5220
0.06850000 0.06852730 31837.69495328 0 540.06371535 0 6863.55699788 0 1606.20679982 0 -6163.77499702 0 5029
0.06950000 0.06949320 30575.78209370 0 1113.94231070 0 8263.40888005 0 360.24916030 0 -2220.51045308 0 5040
0.07050000 0.07048030 29326.71313091 0 1749.60447854 0 8047.12208705 0 -301.82160946 0 -3991.53988015 0 5475
0.07150000 0.07148790 28255.46570470 0 1702.41423017 0 8513.34446818 0 -176.82059842 0 2102.71198933 0 5509
0.07250000 0.07249820 27555.25188317 0 621.17624528 0 8550.82428770 0 1759.56957088 0 61.12255470 0 5916
0.07350000 0.07351270 27465.23388240 0 -358.24396227 0 9052.65526545 0 -258.92742312 0 2301.86989585 0 5721
0.07450000 0.07449140 26867.54978869 0 89.65726443 0 8684.57797151 0 417.93707984 0 1534.30312244 0 6028
0.07550000 0.07549160 27809.58318426 0 702.23009188 0 11205.96777921 0 -516.75868608 0 1396.87342680 0 6183
0.07650000 0.07648840 26400.07623484 0 572.95848516 0 9838.26992831 0 302.99859759 0 2942.75820100 0 6330
0.07750000 0.07749960 27083.46012265 0 328.45719405 0 11515.88215088 0 645.42906556 0 2428.06118181 0 6583
0.07850000 0.07848650 26261.22928162 0 248.82503395 0 9898.45908602 0 431.54718150 0 3081.87089002 0 6549
0.07950000 0.07947320 26269.42280198 0 1057.41034188 0 11126.68993351 0 1806.31692626 0 2375.98803818 0 6828
0.08050000 0.08048110 24949.93385334 0 378.67350880 0 10607.53076741 0 -352.47638828 0 3519.85884287 0 7147
0.08150000 0.08149960 25064.53241522 0 475.72354307 0 10477.38666149 0 636.41840762 0 1155.70711992 0 7386
0.08250000 0.08250610 24287.47665945 0 446.08403676 0 11209.84309289 0 -1318.07169106 0 1202.17766718 0 7227
0.08350000 0.08350160 24213.51352966 0 719.99342259 0 10554.02929389 0 -302.05744998 0 113.73049161 0 7798
0.08450000 0.08449610 23420.84579589 0 349.54554390 0 9032.42612801 0 688.80379081 0 -926.26972673 0 7371
0.08550000 0.08548940 23243.46715230 0 181.33146355 0 8620.50242778 0 1307.01043857 0 -1100.00225376 0 8256
0.08650000 0.08650700 22399.64527787 0 315.56900796 0 7653.97704971 0 1477.25850498 0 -1602.30934148 0 8037
0.08750000 0.08749060 21872.60261650 0 935.78860437 0 7527.07713496 0 1591.66883733 0 -1623.18067376 0 8155
0.08850000 0.08849210 21091.00720755 0 969.26467123 0 6767.91425610 0 510.68883761 0 -2317.65903104 0 8718
0.08950000 0.08949900 20121.84661617 0 777.88285844 0 7194.99596900 0 481.28074289 0 515.28385241 0 8571
0.09050000 0.09049190 19686.59352755 0 394.62429993 0 6716.59403056 0 489.87286695 0 822.30391838 0 8932
0.09150000 0.09150830 19662.45585945 0 -311.33716541 0 6478.71620416 0 1171.08657909 0 1173.74393705 0 9285
0.09250000 0.09250820 19637.21095886 0 -379.73423752 0 6571.52443079 0 418.87158405 0 344.21532673 0 9204
0.09350000 0.09350330 19951.77570696 0 501.10352601 0 5441.74869559 0 -70.29021820 0 -606.39136995 0 9349
0.09450000 0.09448040 19080.38374373 0 799.16497397 0 5434.91707118 0 -351.86962488 0 -276.38183596 0 9564
0.09550000 0.09549270 18658.08527515 0 595.66560890 0 5502.19251678 0 -720.34995145 0 -613.34257547 0 10155
0.09650000 0.09649430 18404.41831355 0 293.62698187 0 6628.42510803 0 -358.23067549 0 -1064.47448511 0 9913
0.09750000 0.09749140 17688.92468377 0 600.80095315 0 6035.84535606 0 -259.80656571 0 -1567.65296480 0 10476
0.09850000 0.09850240 17598.90668300 0 619.99261376 0 6727.82136793 0 141.91509443 0 -632.85644073 0 10575
0.09950000 0.09950330 17162.98925489 0 202.04889052 0 7027.74850262 0 411.44316133 0 -131.86917413 0 10882
0.10050000 0.10051200 16996.90438261 0 640.96027526 0 7269.83381245 0 1103.36824050 0 464.02784636 0 10875
0.10150000 0.10150300 16768.70376810 0 632.47555276 0 7052.04118327 0 697.35384003 0 809.53974233 0 11118
0.10250000 0.10250800 15971.60710440 0 222.38653675 0 6536.00441277 0 903.18282225 0 1654.08353233 0 11575
0.10350000 0.10349800 16160.16879606 0 -45.76656885 0 6402.95935775 0 1072.67797057 0 2704.40426463 0 11364
0.10450000 0.10450100 16021.87545908 0 -90.63162902 0 6230.59647730 0 1671.21241883 0 2424.59554414 0 12093
0.10550000 0.10551000 16008.69939254 0 288.85038094 0 6077.05654904 0 515.20745337 0 2246.54148873 0 12067
0.10650000 0.10649700 15635.78349265 0 481.93179559 0 5531.91063659 0 -48.04481041 0 2538.99480416 0 12054
0.10750000 0.10749900 15224.55734889 0 249.27899927 0 5708.31491560 0 -239.90627631 0 3519.39380523 0 12807
0.10850000 0.10850100 15067.44105971 0 168.06128226 0 5344.13507999 0 -271.02615245 0 1707.65143981 0 12736
0.10950000 0.10950300 15255.67058163 0 -21.31256443 0 5554.96321687 0 131.24026608 0 1596.99462557 0 12933
0.11050000 0.11050200 14699.50770599 0 218.11594107 0 4899.88019129 0 -419.56581882 0 1412.37468154 0 13428
0.11150000 0.11150900 14926.82253451 0 327.34996157 0 5219.69322136 0 210.23576749 0 903.94127650 0 13453
0.11250000 0.11250000 14310.42621186 0 62.01664493 0 5078.55429689 0 439.74623803 0 928.24060054 0 13668
0.11350000 0.11349100 14332.68158474 0 233.05915064 0 5311.34992621 0 730.30064976 0 469.82420840 0 13791
0.11450000 0.11448600 14265.58329634 0 41.55875325 0 4836.41362543 0 453.87673897 0 1169.21535620 0 14205
0.11550000 0.11549300 14275.10549569 0 -165.28766489 0 5194.51475472 0 469.02257209 0 1172.31560715 0 14776
0.11650000 0.11649800 14446.94797687 0 12.09861861 0 4961.13229219 0 578.21673221 0 2051.84572912 0 14553
0.11750000 0.11747300 14578.81936546 0 5.72765827 0 4583.36671403 0 414.91544239 0 2104.31747643 0 14568
0.11850000 0.11849100 14515.48566750 0 93.78524857 0 4297.29105769 0 440.65859760 0 1539.78392323 0 16015
0.11950000 0.11950300 14449.05171859 0 124.82274661 0 3957.73607248 0 15.92244598 0 1355.57365522 0 15270
0.12050000 0.12050700 14077.13232793 0 309.12934384 0 4043.09262450 0 -457.01795752 0 1350.36966256 0 15999
0.12150000 0.12150000 14076.91088143 0 149.47306335 0 4248.80534731 0 102.52075924 0 1239.80142692 0 15670
0.12250000 0.12250700 13783.49427374 0 171.75168812 0 4047.75407325 0 78.29838785 0 1197.54943541 0 16887
0.12350000 0.12352200 13712.85284140 0 329.74269096 0 4145.09088073 0 -501.92509252 0 711.96155816 0 16407
0.12450000 0.12449800 13549.31460383 0 365.84179157 0 4726.02254699 0 -701.37198671 0 97.07306470 0 16306
0.12550000 0.12549900 13399.94894202 0 353.33449345 0 4775.75943008 0 -423.54299789 0 752.02897999 0 17523
0.12650000 0.12650100 13101.32834166 0 154.67041262 0 4731.76908357 0 -21.08491743 0 -370.67264688 0 17154
0.12750000 0.12750600 13065.12183951 0 -91.66301607 0 4533.30873352 0 522.45539720 0 -500.18673752 0 18007
0.12850000 0.12850300 13097.78519772 0 -147.13791005 0 3856.20285389 0 582.92800642 0 -1310.37642531 0 17496
0.12950000 0.12949900 13220.13438697 0 -103.67582416 0 3896.52826088 0 754.28662702 0 -1047.52054135 0 18405
0.13050000 0.13049000 13033.12282078 0 125.04640757 0 3263.63417424 0 258.70154769 0 -747.16712216 0 18100
0.13150000 0.13148800 13043.75225261 0 230.21356316 0 3332.86942134 0 414.70506822 0 -797.81082865 0 19059
0.13250000 0.13249300 12810.23692218 0 248.52165225 0 3292.28935088 0 196.94565601 0 -15.99818068 0 18957
0.13350000 0.13349100 12653.12063300 0 218.15801590 0 2954.67202251 0 25.49613164 0 65.85398054 0 19468
0.13450000 0.13450700 12503.97641770 0 158.03861383 0 3225.58966617 0 62.86467428 0 -96.78573787 0 19953
0.13550000 0.13551000 12542.84027781 0 309.70953366 0 3439.47376469 0 -185.77589474 0 -136.55055306 0 19956
0.13650000 0.13649900 12022.10884159 0 308.44175247 0 3406.42287511 0 13.98999313 0 227.47537724 0 19723
0.13750000 0.13749600 11801.76957770 0 258.90638570 0 3365.54385188 0 -76.08303710 0 -34.78503710 0 20946
0.13850000 0.13851100 11621.84429940 0 240.50750355 0 3482.95478425 0 13.37381826 0 -104.48919714 0 20955
0.13950000 0.13949800 11348.02570663 0 328.44169279 0 3677.59518224 0 418.97898560 0 -341.26898110 0 20506
0.14050000 0.14048300 11102.55226540 0 272.46555467 0 3342.88987530 0 -349.24437666 0 -34.27216701 0 21447
0.14150000 0.14148400 11028.40090609 0 335.44161654 0 3937.28548854 0 -385.57045993 0 -238.77247025 0 21771
0.14250000 0.14249400 10833.39512138 0 130.34119330 0 4037.54538977 0 -319.36238644 0 -205.44145085 0 22470
0.14350000 0.14350900 10940.55308098 0 13.15203959 0 4463.44236392 0 154.90071698 0 192.61969871 0 22519
0.14450000 0.14449900 10998.77136488 0 -174.70246269 0 4326.09017454 0 -74.45950211 0 356.94517857 0 22218
0.14550000 0.14550500 11049.75942067 0 -91.26507672 0 4132.21376697 0 631.74588655 0 16.83879158 0 23559
0.14650000 0.14650700 11120.15726186 0 162.02907970 0 4072.23498343 0 474.06047988 0 367.38638088 0 23044
0.14750000 0.14750500 10864.72980062 0 209.93238579 0 3849.03905973 0 558.51574466 0 186.54763578 0 23649
0.14850000 0.14849900 10523.61361761 0 286.51965656 0 3691.00376760 0 496.85507498 0 381.27882683 0 23640
0.14950000 0.14949500 10418.54832740 0 219.26303392 0 3324.33265890 0 289.55125910 0 809.48548793 0 24457
0.15050000 0.15050000 10252.60739535 0 -67.05554923 0 3112.89554416 0 237.97526286 0 923.19272766 0 24591
0.15150000 0.15149900 10251.85447726 0 -13.63656452 0 3172.06604799 0 121.82657551 0 523.73092901 0 25020
0.15250000 0.15250500 10256.54914298 0 131.66655058 0 2976.99382934 0 135.88067741 0 438.13300031 0 25297
0.15350000 0.15350100 10055.09926523 0 313.44755052 0 2768.07013234 0 84.42326577 0 635.23699057 0 25452
0.15450000 0.15450400 9829.68887657 0 298.65824626 0 2845.55426142 0 -17.81813871 0 441.97841872 0 26061
0.15550000 0.15549900 9662.15352974 0 187.38359630 0 2632.00233264 0 -43.86478634 0 585.25208740 0 26128
0.15650000 0.15649500 9439.88768133 0 137.14845860 0 2690.99567927 0 261.55377856 0 502.33809023 0 26331
0.15750000 0.15749700 9473.69148901 0 93.51973422 0 2554.99431353 0 60.44249251 0 125.45719082 0 27345
0.15850000 0.15849900 9282.00740174 0 71.95472079 0 2550.63181755 0 35.99103472 0 138.14496783 0 26980
0.15950000 0.15949700 9143.66977546 0 203.24580884 0 2343.97794713 0 135.46767969 0 336.00076895 0 27777
0.16050000 0.16050000 9076.22824499 0 61.89761743 0 2504.99169465 0 190.07195677 0 128.80767631 0 28224
0.16150000 0.16150500 9038.87022105 0 66.42066212 0 2316.36356904 0 301.68984880 0 218.50900860 0 28075
0.16250000 0.16249700 8945.36443796 0 113.87221736 0 2256.82767849 0 19.21236586 0 167.41465849 0 28590
0.16350000 0.16349900 8807.55828327 0 106.95511460 0 2115.03548686 0 40.21069770 0 181.43554341 0 29163
0.16450000 0.16449100 8806.31818289 0 130.74090423 0 2268.55327047 0 -17.40547317 0 373.06205458 0 28996
0.16550000 0.16550500 8617.81185285 0 149.76758719 0 2297.68455707 0 54.79693553 0 181.43111448 0 30777
0.16650000 0.16650700 8509.50237147 0 153.29522988 0 2138.66382802 0 103.47929040 0 281.57364907 0 29211
0.16750000 0.16749900 8465.36808475 0 34.62327043 0 2034.08572011 0 240.90057108 0 351.70243277 0 30922
0.16850000 0.16850800 8496.37059424 0 -15.37735543 0 2018.71733326 0 33.97044616 0 310.59089072 0 30867
0.16950000 0.16949900 8348.61041953 0 138.38966621 0 1867.77940133 0 144.50823291 0 256.14273342 0 30852
0.17050000 0.17049200 8358.30977607 0 133.03841163 0 1912.00226666 0 -31.42137554 0 300.06332428 0 31257
0.17150000 0.17149500 8187.60774435 0 97.50377814 0 1971.27242141 0 7.76978249 0 323.05057784 0 32608
0.17250000 0.17250900 8240.56667395 0 34.91834789 0 1986.93976103 0 -67.09197718 0 198.88331286 0 32361
0.17350000 0.17350400 8092.81757157 0 140.42586674 0 2119.94052675 0 23.72455967 0 462.34596022 0 32508
0.17450000 0.17449800 8096.94754873 0 141.45337849 0 2052.21111584 0 140.71928335 0 489.41557994 0 32791
0.17550000 0.17549800 7889.89507462 0 64.30606953 0 2086.23637000 0 54.82605574 0 614.37673061 0 33633
0.17650000 0.17650100 7920.52112507 0 77.55299894 0 1959.61326338 0 361.43279182 0 277.21226032 0 33984
0.17750000 0.17750300 7830.87958334 0 35.09628015 0 1972.21356902 0 126.91763047 0 461.43802958 0 34069
0.17850000 0.17849800 7824.30262240 0 148.64706792 0 1800.90255943 0 84.55070823 0 528.78101636 0 34536
