### header ###
fiducial parameters:
Omega_m = 0.31
Omega_nu = 0
Omega_de = 0.69
Omega_k = 0
H_0 = 100
w_de = -1
zeff = 0
beta = 0
fgrowth = 0
b_1 = 2
gamma = 0.55
Lx = 3500 Ly = 3500 Lz = 3500
nx = 700 ny = 700 nz = 700
xoffset = -685.467585 yoffset = -31.7331281 zoffset = 572.489161
bins = 400 dk = 0.001
kx_ny = 0.628318531 ky_ny = 0.628318531 kz_ny = 0.628318531
############################
A(data) = 8.03721998 (not used)
A(ran) = 8.03202201 (used)
Ngal = 477054
weighted Ngal = 0
Nran = 23820508
weighted Nran = 0
SN(data) = 3494.49177
SN(ran) = 69.9618247
SN(data+ran) = 3564.45359
############################
13 columns: k_central k_mean P_0(k) sigma^{lin}_{P_0(k)} P^img_1(k) sigma^{lin}_{P_1(k)} P_2(k) sigma^{lin}_{P_2(k)} P^img_3(k) sigma^{lin}_{P_3(k)} P_4(k) sigma^{lin}_{P_4(k)} N_modes
### header ###
0.00050000 0 0 0 0 0 0 0 0 0 0 0 0
0.00150000 0.00179520 104890.12602550 0 -65650.69265421 0 115426.77176942 0 48888.85372750 0 -274403.21151555 0 3
0.00250000 0.00253879 184691.91413743 0 -49723.26412583 0 44974.34401111 0 44052.35152347 0 237364.07053221 0 6
0.00350000 0.00331552 168882.84876137 0 -486.56777799 0 47281.15216383 0 -141446.73509324 0 32324.65579880 0 7
0.00450000 0.00420575 134476.70661991 0 51541.67203080 0 -10875.20421990 0 -34207.39391097 0 85712.08437687 0 24
0.00550000 0.00557378 101605.85303780 0 21178.70002011 0 31756.42408911 0 -9123.97210961 0 16776.12222572 0 45
0.00650000 0.00659388 68444.12948270 0 19656.36608080 0 -816.18092275 0 -6065.09843823 0 -7960.55865161 0 40
0.00750000 0.00754703 71912.53523214 0 17441.56894732 0 51920.45626284 0 13743.74462764 0 -4600.69490237 0 57
0.00850000 0.00846663 51401.49639859 0 3245.56414014 0 14774.02445202 0 13271.06708113 0 6934.55274462 0 75
0.00950000 0.00948925 58302.32284182 0 2876.82250671 0 21603.21295366 0 18544.04032952 0 -3757.06125746 0 112
0.01050000 0.01054430 48311.21054171 0 5896.88767959 0 13275.38528781 0 406.55805162 0 9814.28727275 0 105
0.01150000 0.01145670 54244.64796553 0 1974.56090188 0 16822.18309697 0 13507.90410900 0 12338.44516166 0 144
0.01250000 0.01249090 52231.36714375 0 -7525.94775783 0 15871.07039505 0 9709.04482535 0 20575.59048724 0 169
0.01350000 0.01339930 59825.43184387 0 -11455.98087361 0 20524.65779308 0 6631.86860105 0 14630.74856886 0 180
0.01450000 0.01448870 61674.95298158 0 3986.60162328 0 20805.56267373 0 6264.65494844 0 1524.88057402 0 267
0.01550000 0.01550050 68967.40755363 0 8617.25823661 0 29313.31561788 0 11804.09476591 0 29096.51949793 0 238
0.01650000 0.01653350 59448.97280003 0 -3318.88507509 0 27825.41660875 0 -7161.13679971 0 12760.96507674 0 315
0.01750000 0.01747870 56735.92104972 0 -3074.24205822 0 17927.31183712 0 6148.03015113 0 14780.11423067 0 297
0.01850000 0.01844180 67723.87475325 0 -2374.90295035 0 20646.89625907 0 11728.80295714 0 -8871.22415097 0 388
0.01950000 0.01947590 66019.29034742 0 -4240.34609115 0 9014.50003413 0 3117.64557151 0 -4998.97749842 0 399
0.02050000 0.02045430 75704.25286629 0 -3528.08558021 0 10268.20830102 0 729.83671935 0 -11336.51048882 0 462
0.02150000 0.02154770 75606.48423814 0 -8265.85586384 0 -3529.99002008 0 -3329.14912020 0 -11277.82716728 0 571
0.02250000 0.02255340 74948.89886716 0 2268.81900626 0 -6126.57198563 0 4180.41159690 0 -11529.61183366 0 510
0.02350000 0.02348930 77304.20380258 0 5417.65531679 0 2920.90143181 0 -1514.69403519 0 -8600.99299145 0 555
0.02450000 0.02439640 75112.32638148 0 211.96415740 0 -3848.15327375 0 1907.46261348 0 596.73076654 0 592
0.02550000 0.02547300 70118.26499528 0 3586.04920064 0 6414.06489954 0 -3209.24691474 0 5517.00728739 0 837
0.02650000 0.02652900 69198.37624935 0 5885.70463152 0 11720.72016003 0 -7960.09361397 0 8443.89884692 0 723
0.02750000 0.02749970 65932.26187435 0 7283.13167456 0 22114.64363703 0 -8013.09683288 0 13018.39662877 0 826
0.02850000 0.02848090 60956.13765435 0 528.81866227 0 27583.48631146 0 -4579.03743502 0 13401.72051399 0 831
0.02950000 0.02946900 62435.51097337 0 101.87313896 0 37282.06778986 0 -2698.42520923 0 8245.94782381 0 996
0.03050000 0.03053250 61839.70917488 0 2556.43371575 0 37655.20513625 0 7638.39828869 0 9418.10841842 0 1041
0.03150000 0.03150510 59423.17428321 0 4007.99335483 0 29648.25344364 0 9489.55813047 0 6631.10461064 0 1036
0.03250000 0.03246190 55520.84412412 0 2176.53117890 0 29368.23434898 0 8414.52396918 0 4412.72004392 0 1059
0.03350000 0.03345080 54626.08955553 0 2654.71167084 0 26273.96245516 0 8485.96260891 0 4252.42599752 0 1302
0.03450000 0.03451200 51977.70018216 0 1869.20773123 0 24286.59087346 0 -465.19929833 0 2823.56462433 0 1339
0.03550000 0.03553350 50431.45002123 0 980.68909598 0 24278.28662985 0 127.02613925 0 6260.17065689 0 1365
0.03650000 0.03647120 49263.43047611 0 -2135.17604570 0 21683.48730860 0 -3392.37209491 0 -984.75817535 0 1308
0.03750000 0.03744890 52078.23689151 0 234.33800416 0 23736.96066946 0 -1334.83519084 0 -1543.89175574 0 1579
0.03850000 0.03847530 52281.41405193 0 2335.10901495 0 20235.00577582 0 -1223.02685482 0 -4939.64090972 0 1662
0.03950000 0.03950240 49673.88155714 0 1704.05293424 0 21298.17040491 0 434.45366677 0 -6816.35567718 0 1683
0.04050000 0.04050350 48383.40209953 0 1479.89371829 0 16236.01422107 0 1301.29711896 0 -6950.91764070 0 1822
0.04150000 0.04152450 45891.79684559 0 1389.31102894 0 16174.78426482 0 2261.41162096 0 -14695.52166905 0 1887
0.04250000 0.04250150 45590.96178027 0 1826.45748511 0 15540.89366896 0 2311.67997564 0 -7240.54751331 0 1920
0.04350000 0.04349210 43099.02435658 0 1683.41412078 0 12457.36193021 0 1468.33421118 0 -7673.80758346 0 2005
0.04450000 0.04448520 42449.74322922 0 1123.66381190 0 13072.09740414 0 1744.77694492 0 -3457.52165414 0 2151
0.04550000 0.04548030 41156.60641365 0 254.68672271 0 13977.92429756 0 2363.16628604 0 -7297.25996103 0 2274
0.04650000 0.04648670 42046.26771282 0 802.48113525 0 14540.39839834 0 2266.53810735 0 -2712.22132595 0 2311
0.04750000 0.04749250 40709.61666072 0 695.42725551 0 13723.15010348 0 1943.31480125 0 -511.63109245 0 2568
0.04850000 0.04851840 40778.70796759 0 405.73648512 0 13985.01058544 0 2912.45324797 0 -887.98937813 0 2493
0.04950000 0.04949480 41671.46951771 0 -1609.20739984 0 9071.17926487 0 1981.60290047 0 -3907.23519898 0 2644
0.05050000 0.05050630 40705.40917729 0 1168.96069273 0 11687.17101583 0 -403.74900281 0 -2893.71887438 0 2829
0.05150000 0.05149060 40265.83788199 0 3307.14841078 0 11440.92251186 0 -2263.86967707 0 -6040.26321367 0 2784
0.05250000 0.05249300 37068.48264411 0 2050.21809737 0 11603.68568669 0 -2725.46382643 0 -3512.17464945 0 3055
0.05350000 0.05348950 35403.86933087 0 2037.76173195 0 13449.66368046 0 -1714.13982215 0 -166.24320652 0 3009
0.05450000 0.05448610 34917.79427133 0 -524.45395182 0 15512.21634768 0 2708.09134879 0 1336.45175026 0 3336
0.05550000 0.05550870 36302.94210614 0 -783.79990882 0 17185.02318128 0 1992.69736994 0 1576.78763277 0 3349
0.05650000 0.05647670 36623.15373990 0 -261.55156410 0 17015.06299531 0 3018.91365110 0 1289.68225023 0 3324
0.05750000 0.05747970 35801.80868485 0 1207.10485173 0 16266.79528407 0 1947.27869353 0 5034.70789061 0 3639
0.05850000 0.05849280 35149.64875303 0 765.26594431 0 16328.24668681 0 667.75087240 0 6430.09762588 0 3846
0.05950000 0.05951020 35567.29684519 0 364.55961635 0 15943.15122962 0 2265.37551325 0 5221.45372100 0 3787
0.06050000 0.06049470 33927.04264656 0 663.38726918 0 15024.70188591 0 1569.54633234 0 4997.62667479 0 3930
0.06150000 0.06148310 33242.21935653 0 1346.85973559 0 13689.93312902 0 287.51284410 0 1770.57546175 0 4083
0.06250000 0.06249100 32384.44635282 0 714.91676166 0 14460.56693640 0 -1566.02533305 0 2136.67080955 0 4303
0.06350000 0.06350600 31951.51845242 0 292.52196385 0 14892.94122057 0 -705.02917559 0 1390.89437139 0 4470
0.06450000 0.06451750 32755.59068075 0 -250.31204718 0 14745.90074698 0 -988.77521479 0 1143.58292424 0 4479
0.06550000 0.06550280 32358.31566625 0 -206.06039380 0 14639.38498222 0 1118.31587901 0 -1028.69094576 0 4636
0.06650000 0.06648880 34094.78836756 0 -171.94213211 0 17017.27746027 0 -423.26508254 0 -551.35195051 0 4653
0.06750000 0.06749660 33187.74351842 0 460.08831319 0 15380.67712883 0 868.49101412 0 -200.38250564 0 5220
0.06850000 0.06852730 32168.64674211 0 1215.19872117 0 15369.38335751 0 976.23248524 0 256.50147675 0 5029
0.06950000 0.06949320 31010.03867309 0 1594.43691853 0 15424.19136537 0 2190.94734581 0 1428.08631046 0 5040
0.07050000 0.07048030 29936.24461217 0 1349.68317842 0 13892.88884295 0 1937.23609492 0 2222.32631435 0 5475
0.07150000 0.07148790 29169.37539523 0 1274.10348921 0 12762.95809521 0 2546.92258873 0 3295.62212065 0 5509
0.07250000 0.07249820 27795.29988524 0 177.60451902 0 11642.88171655 0 1520.50700572 0 3679.03458447 0 5916
0.07350000 0.07351270 28308.39141734 0 -263.62208884 0 10464.86386212 0 3371.54505193 0 4051.59616996 0 5721
0.07450000 0.07449140 27783.89539068 0 -60.36243960 0 10871.78287153 0 2320.85893291 0 4343.83911123 0 6028
0.07550000 0.07549160 28318.57795617 0 362.05284201 0 9875.15184228 0 466.19027140 0 4024.20323836 0 6183
0.07650000 0.07648840 27532.99651029 0 1103.22430028 0 10921.22080185 0 -590.45054391 0 5282.80547282 0 6330
0.07750000 0.07749960 26724.93824502 0 1089.42154016 0 11258.89349184 0 -571.05293806 0 5275.95170376 0 6583
0.07850000 0.07848650 26017.74885886 0 628.86597486 0 11661.48322225 0 -1303.26799278 0 6466.04946457 0 6549
0.07950000 0.07947320 26254.36444023 0 114.07484091 0 12007.71481933 0 1349.55031052 0 4855.81233852 0 6828
0.08050000 0.08048110 25460.92164373 0 220.56846101 0 11829.67183624 0 4.80645191 0 4371.98496092 0 7147
0.08150000 0.08149960 25308.45573097 0 750.09907377 0 11304.51147009 0 400.42951983 0 4144.78085564 0 7386
0.08250000 0.08250610 23912.78918758 0 877.23815073 0 10401.97305715 0 956.45177695 0 3395.37269494 0 7227
0.08350000 0.08350160 23328.61333015 0 1070.11029845 0 9418.08627377 0 1855.37839754 0 2873.76654506 0 7798
0.08450000 0.08449610 22437.06973575 0 514.03489417 0 8863.82783799 0 1200.40609521 0 2644.15974529 0 7371
0.08550000 0.08548940 21941.69392337 0 334.68316229 0 7938.54686987 0 1586.38733839 0 3818.32443068 0 8256
0.08650000 0.08650700 21704.63544900 0 5.49200598 0 7821.53454119 0 1498.09662029 0 3053.66967871 0 8037
0.08750000 0.08749060 21651.70973637 0 -528.43777429 0 5815.10748848 0 1464.28174029 0 3202.28242242 0 8155
0.08850000 0.08849210 22139.11347488 0 -199.93186202 0 6518.65407978 0 388.53119958 0 1925.22262249 0 8718
0.08950000 0.08949900 21752.91078521 0 779.59242539 0 6388.49890154 0 -1170.85406027 0 1453.23156012 0 8571
0.09050000 0.09049190 20789.17563299 0 1858.24612966 0 7208.93602595 0 -440.24227818 0 2047.87076451 0 8932
0.09150000 0.09150830 19503.23582856 0 1127.32875141 0 6395.28623665 0 -479.37519579 0 2710.98122557 0 9285
0.09250000 0.09250820 19252.77984116 0 74.27536935 0 7211.06191231 0 850.77750888 0 3004.10995282 0 9204
0.09350000 0.09350330 18895.80808901 0 -436.00932841 0 5859.39678775 0 1937.86721743 0 1559.44837211 0 9349
0.09450000 0.09448040 19089.57377333 0 186.81669327 0 5841.84715292 0 1068.12835230 0 1585.71192658 0 9564
0.09550000 0.09549270 19247.79729499 0 109.98361689 0 5280.48028461 0 402.19334118 0 1214.83333445 0 10155
0.09650000 0.09649430 18589.21541478 0 182.63910512 0 5824.70719410 0 -541.93272378 0 2306.59777855 0 9913
0.09750000 0.09749140 18372.19784833 0 578.06947029 0 5306.93206860 0 -172.30641160 0 1664.17042024 0 10476
0.09850000 0.09850240 18066.93385308 0 868.75785715 0 5898.12777997 0 -178.85901342 0 1437.60850980 0 10575
0.09950000 0.09950330 17433.92904320 0 368.28766812 0 5888.48378505 0 -453.49806546 0 1564.38662898 0 10882
0.10050000 0.10051200 17002.99416126 0 412.36991492 0 5721.85636886 0 408.81902035 0 445.32890421 0 10875
0.10150000 0.10150300 17015.39516505 0 157.88803022 0 5785.98727421 0 -48.90059039 0 1205.01218234 0 11118
0.10250000 0.10250800 16668.05633549 0 403.51205506 0 5408.37670859 0 258.80673478 0 -690.59529296 0 11575
0.10350000 0.10349800 16230.47805866 0 687.54265301 0 5113.03351638 0 142.26165820 0 -224.22675713 0 11364
0.10450000 0.10450100 15506.79090851 0 366.71982692 0 4932.27781371 0 376.73474472 0 420.00649735 0 12093
0.10550000 0.10551000 15368.60829478 0 -109.03460793 0 4181.80670983 0 1028.42631720 0 -1005.29290896 0 12067
0.10650000 0.10649700 15516.53455435 0 -262.39859695 0 4362.75064202 0 666.34468714 0 -482.88844446 0 12054
0.10750000 0.10749900 15557.28070969 0 80.33536344 0 4654.42889472 0 -137.39869314 0 -373.39422432 0 12807
0.10850000 0.10850100 15630.35805349 0 474.65063479 0 5089.93664681 0 -674.50831223 0 1127.77164440 0 12736
0.10950000 0.10950300 15465.93402993 0 163.80175890 0 5410.09291894 0 -524.13063994 0 1829.65738698 0 12933
0.11050000 0.11050200 15363.73647186 0 100.55907545 0 5913.72868564 0 554.20085968 0 2593.14954485 0 13428
0.11150000 0.11150900 15656.82090981 0 151.61666544 0 6070.05883975 0 656.38623820 0 2751.36199419 0 13453
0.11250000 0.11250000 15033.00612952 0 435.59411623 0 6063.16078139 0 671.69594173 0 3091.64775284 0 13668
0.11350000 0.11349100 14918.96118389 0 275.47611979 0 5711.69197467 0 398.33463598 0 2200.31453261 0 13791
0.11450000 0.11448600 14556.23182283 0 163.50059167 0 5344.50046671 0 315.10397032 0 2433.26517447 0 14205
0.11550000 0.11549300 14400.55493588 0 93.08780283 0 5222.10698817 0 224.44156024 0 1817.14565994 0 14776
0.11650000 0.11649800 14317.06960675 0 84.03518078 0 4954.42246335 0 177.84257400 0 2306.01094533 0 14553
0.11750000 0.11747300 14232.80921488 0 -174.04919552 0 4372.67144505 0 256.68527734 0 754.66530052 0 14568
0.11850000 0.11849100 14412.51304669 0 51.09324288 0 4283.42850702 0 252.82103598 0 1164.35460560 0 16015
0.11950000 0.11950300 14393.57937125 0 156.33679751 0 4427.43516361 0 -761.33748346 0 51.44999318 0 15270
0.12050000 0.12050700 14048.89789964 0 447.46918459 0 4291.14591742 0 -49.84638838 0 -16.01512134 0 15999
0.12150000 0.12150000 13847.27086470 0 439.96657730 0 4171.83054517 0 -545.38839636 0 185.99512677 0 15670
0.12250000 0.12250700 13352.44866855 0 391.63587946 0 4087.30441750 0 412.39870296 0 23.07461420 0 16887
0.12350000 0.12352200 13252.35485219 0 217.56232483 0 4996.22048954 0 -151.80378773 0 -351.86187425 0 16407
0.12450000 0.12449800 12843.23245014 0 270.63087045 0 4403.27535085 0 585.31187796 0 113.00968326 0 16306
0.12550000 0.12549900 12850.31873802 0 121.12680459 0 4220.50448507 0 191.56450615 0 -54.77678390 0 17523
0.12650000 0.12650100 12829.61349061 0 -220.23296957 0 4337.48359678 0 458.60905059 0 88.88175880 0 17154
0.12750000 0.12750600 13027.03304213 0 109.84576644 0 4584.89469485 0 78.62402492 0 -307.77519852 0 18007
0.12850000 0.12850300 12706.15706889 0 397.01702932 0 4019.19854754 0 -285.95053907 0 287.28918314 0 17496
0.12950000 0.12949900 12618.02136333 0 388.27764335 0 4442.18350027 0 -150.40756757 0 193.46230263 0 18405
0.13050000 0.13049000 12152.98372095 0 361.88343544 0 4308.26373158 0 -102.72814388 0 909.02236636 0 18100
0.13150000 0.13148800 12210.78125650 0 -85.52374413 0 4170.22505807 0 523.23599609 0 -134.97385400 0 19059
0.13250000 0.13249300 11959.55020636 0 -48.02953060 0 4318.23989625 0 473.74713309 0 846.18581578 0 18957
0.13350000 0.13349100 12159.07349960 0 50.07713563 0 4024.91186715 0 696.63081722 0 -51.37071534 0 19468
0.13450000 0.13450700 12220.30345584 0 -183.21154431 0 3953.88290344 0 592.05160208 0 573.79223122 0 19953
0.13550000 0.13551000 12256.06706501 0 194.76883695 0 4048.31876182 0 -205.12699682 0 501.15667317 0 19956
0.13650000 0.13649900 12135.60017098 0 312.90389937 0 4323.02314057 0 -233.50204364 0 1162.17335761 0 19723
0.13750000 0.13749600 11863.66387343 0 377.94827152 0 4643.05761713 0 -278.01389664 0 1527.21683456 0 20946
0.13850000 0.13851100 11752.05483926 0 232.17004296 0 4637.87576911 0 -192.47243679 0 938.77591761 0 20955
0.13950000 0.13949800 11512.33900694 0 11.40704120 0 4694.77644635 0 280.10324433 0 1294.19975875 0 20506
0.14050000 0.14048300 11528.50460117 0 34.31424185 0 5153.90146728 0 271.13355400 0 1079.22946517 0 21447
0.14150000 0.14148400 11495.95196621 0 55.97237353 0 4577.17728446 0 727.55803490 0 1012.96049389 0 21771
0.14250000 0.14249400 11386.77884350 0 90.60151229 0 4206.56442813 0 808.29853471 0 1175.06154370 0 22470
0.14350000 0.14350900 11213.82912983 0 192.60973362 0 3667.65223455 0 434.42377149 0 1395.67761572 0 22519
0.14450000 0.14449900 11313.36932995 0 119.20132730 0 3510.81275350 0 122.17424651 0 1252.40173256 0 22218
0.14550000 0.14550500 11006.52199225 0 34.80607451 0 3418.44741986 0 -133.74039702 0 1592.83143144 0 23559
0.14650000 0.14650700 11066.30147394 0 119.25890339 0 3304.14781076 0 -1.26577710 0 1451.50427745 0 23044
0.14750000 0.14750500 10941.29492674 0 194.56067725 0 3643.68065132 0 -118.04980552 0 894.49658343 0 23649
0.14850000 0.14849900 10658.95064387 0 282.78053247 0 3299.65244688 0 -108.12435211 0 461.93074804 0 23640
0.14950000 0.14949500 10360.64006860 0 412.91799500 0 3564.25886540 0 -187.30387556 0 825.68540638 0 24457
0.15050000 0.15050000 10238.96629117 0 132.82803745 0 3706.16178027 0 93.19431860 0 816.19531677 0 24591
0.15150000 0.15149900 10135.48434342 0 -74.97901559 0 3609.76612040 0 305.07133680 0 718.41672353 0 25020
0.15250000 0.15250500 10173.08595850 0 -29.09519082 0 3389.70366463 0 609.30228414 0 549.50065780 0 25297
0.15350000 0.15350100 10271.44141986 0 114.48451693 0 3463.76644534 0 252.94836771 0 1025.56412123 0 25452
0.15450000 0.15450400 10073.63433698 0 216.19157101 0 3049.20753181 0 194.55071216 0 887.50883923 0 26061
0.15550000 0.15549900 10022.66842584 0 221.31252124 0 3283.44256335 0 -67.39868057 0 1334.48087644 0 26128
0.15650000 0.15649500 9803.58033465 0 261.23046668 0 3310.61404845 0 -65.84567629 0 1368.04109297 0 26331
0.15750000 0.15749700 9538.37601060 0 179.36280420 0 3511.15599557 0 125.30328551 0 992.39365054 0 27345
0.15850000 0.15849900 9472.66176280 0 150.44299901 0 3237.63635557 0 31.79296276 0 1180.36518729 0 26980
0.15950000 0.15949700 9225.53854517 0 151.16270012 0 3206.96601582 0 295.60007015 0 859.57447095 0 27777
0.16050000 0.16050000 9239.03570912 0 -54.77811258 0 2959.56599008 0 325.32815505 0 700.49062965 0 28224
0.16150000 0.16150500 9228.41734962 0 26.17353647 0 2755.69127319 0 203.98986906 0 481.20766555 0 28075
0.16250000 0.16249700 9057.00668911 0 224.88888216 0 2533.59150965 0 232.75244725 0 610.32868865 0 28590
0.16350000 0.16349900 8918.08222961 0 224.07838798 0 2416.90027839 0 143.14633695 0 488.14226258 0 29163
0.16450000 0.16449100 8741.97690337 0 182.92587833 0 2214.56461465 0 101.34509979 0 492.27002527 0 28996
0.16550000 0.16550500 8521.99195387 0 272.02598338 0 2301.49343680 0 -119.60214546 0 203.80828294 0 30777
0.16650000 0.16650700 8350.09411106 0 194.89838316 0 2435.90038778 0 -236.49710750 0 394.31648930 0 29211
0.16750000 0.16749900 8198.14859757 0 30.88425706 0 2301.33842426 0 -29.90956031 0 -10.25513189 0 30922
0.16850000 0.16850800 8276.28599382 0 149.71333280 0 2505.34600904 0 -208.78086401 0 -194.91720611 0 30867
0.16950000 0.16949900 8205.30131941 0 33.85961219 0 2534.57694656 0 -180.64165772 0 -256.90229491 0 30852
0.17050000 0.17049200 8123.01180135 0 99.43401652 0 2425.41489617 0 276.93545220 0 -66.06512977 0 31257
0.17150000 0.17149500 8048.43969370 0 30.23752257 0 2277.80973402 0 248.24927306 0 -112.80152355 0 32608
0.17250000 0.17250900 8133.90696897 0 -85.26409811 0 2291.79408026 0 310.02620215 0 -368.65194760 0 32361
0.17350000 0.17350400 8089.93876712 0 125.48487163 0 2216.42476522 0 179.01070427 0 118.72078840 0 32508
0.17450000 0.17449800 7941.69141012 0 158.51250934 0 2176.58654052 0 -19.23583918 0 375.55222043 0 32791
0.17550000 0.17549800 7850.37794734 0 126.97742102 0 2035.39225444 0 378.43545381 0 525.92546379 0 33633
0.17650000 0.17650100 7852.28238721 0 25.27446369 0 1996.49517735 0 266.20858392 0 550.48388024 0 33984
0.17750000 0.17750300 7677.39501670 0 164.27676164 0 2096.82151253 0 141.07359775 0 378.95142415 0 34069
