### header ###
fiducial parameters:
Omega_m = 0.31
Omega_nu = 0
Omega_de = 0.69
Omega_k = 0
H_0 = 100
w_de = -1
zeff = 0
beta = 0
fgrowth = 0
b_1 = 2
gamma = 0.55
Lx = 3500 Ly = 3500 Lz = 3500
nx = 700 ny = 700 nz = 700
xoffset = -685.467585 yoffset = -31.7331281 zoffset = 572.489161
bins = 400 dk = 0.001
kx_ny = 0.628318531 ky_ny = 0.628318531 kz_ny = 0.628318531
############################
A(data) = 7.95862372 (not used)
A(ran) = 7.95359224 (used)
Ngal = 472707
weighted Ngal = 0
Nran = 23820508
weighted Nran = 0
SN(data) = 3492.64928
SN(ran) = 69.2786729
SN(data+ran) = 3561.92796
############################
13 columns: k_central k_mean P_0(k) sigma^{lin}_{P_0(k)} P^img_1(k) sigma^{lin}_{P_1(k)} P_2(k) sigma^{lin}_{P_2(k)} P^img_3(k) sigma^{lin}_{P_3(k)} P_4(k) sigma^{lin}_{P_4(k)} N_modes
### header ###
0.00050000 0 0 0 0 0 0 0 0 0 0 0 0
0.00150000 0.00179520 14375.53148179 0 -13877.83048119 0 29157.86017742 0 -64171.87295143 0 36242.59793588 0 3
0.00250000 0.00253879 29683.35271332 0 -14544.71660502 0 -5889.02632897 0 -2230.51983472 0 -12906.12325511 0 6
0.00350000 0.00331552 37698.27647979 0 -12669.61839698 0 -3076.06899182 0 -2219.63573942 0 -543.93349288 0 7
0.00450000 0.00420575 48485.37821111 0 -7968.96254615 0 1374.45196904 0 -9336.45002288 0 2343.67899436 0 24
0.00550000 0.00557378 58894.80294286 0 -2006.71493316 0 19679.50723967 0 -5772.65619512 0 -7035.55449161 0 45
0.00650000 0.00659388 59990.74165341 0 6022.86859138 0 33692.08791391 0 -651.06487889 0 -3811.66996347 0 40
0.00750000 0.00754703 52564.97629054 0 6186.16323780 0 30530.93917818 0 9556.81143142 0 2566.74205016 0 57
0.00850000 0.00846663 55324.75325159 0 4496.10572213 0 50803.14796539 0 12067.06248035 0 -10705.17759998 0 75
0.00950000 0.00948925 50855.40933854 0 7265.82563087 0 47282.70228931 0 5138.54415276 0 -10583.13843583 0 112
0.01050000 0.01054430 54732.82676678 0 3369.85098623 0 63250.98769626 0 -16740.02644681 0 7905.65099284 0 105
0.01150000 0.01145670 59791.66125317 0 2122.35429356 0 58391.23361011 0 17806.62349660 0 22610.79451216 0 144
0.01250000 0.01249090 71550.58093382 0 -9496.53369511 0 76424.83976549 0 -1938.66442482 0 13697.24086340 0 169
0.01350000 0.01339930 84818.21559426 0 -10483.39893387 0 79300.10107439 0 15668.44685087 0 -17424.07467411 0 180
0.01450000 0.01448870 91202.85025444 0 -5329.81856400 0 76335.15393446 0 17868.62851558 0 -20327.12751831 0 267
0.01550000 0.01550050 85829.89391294 0 8455.97875330 0 65685.68120063 0 1695.41652088 0 -7762.53012223 0 238
0.01650000 0.01653350 86910.66353849 0 11437.93298416 0 66833.65983783 0 14680.68475379 0 -17911.47841263 0 315
0.01750000 0.01747870 64371.72841441 0 7535.51424648 0 41189.26977186 0 12284.08004680 0 -495.58729379 0 297
0.01850000 0.01844180 78631.55410184 0 3479.74381006 0 59884.89022814 0 20054.41615803 0 -31447.17405693 0 388
0.01950000 0.01947590 64031.58659598 0 -2542.12827209 0 28918.91940784 0 18818.52326177 0 -21416.31211072 0 399
0.02050000 0.02045430 67057.21007592 0 -956.23475938 0 25852.21760282 0 15803.75066015 0 -18755.74318005 0 462
0.02150000 0.02154770 68426.96737923 0 -700.71650508 0 17651.38950264 0 5525.96479817 0 -17193.21670164 0 571
0.02250000 0.02255340 72006.09637686 0 -2746.42373732 0 14217.30796013 0 7445.78412615 0 -13521.85523828 0 510
0.02350000 0.02348930 71446.72252702 0 41.10478793 0 7736.76482238 0 3835.51975113 0 -4399.58826669 0 555
0.02450000 0.02439640 69331.02270068 0 2289.03707138 0 7435.34292384 0 -305.08240912 0 -1635.73669011 0 592
0.02550000 0.02547300 70754.70222586 0 3901.42222845 0 5779.84213393 0 1533.40626413 0 -7520.90985004 0 837
0.02650000 0.02652900 67004.50580978 0 1258.97869350 0 8064.97067465 0 318.24408163 0 -1624.86366714 0 723
0.02750000 0.02749970 65221.86151398 0 950.36421276 0 9579.46540800 0 -4875.48785972 0 -15346.46364514 0 826
0.02850000 0.02848090 64156.70386643 0 2242.45580087 0 7195.17312620 0 4049.27098175 0 -12443.07863119 0 831
0.02950000 0.02946900 60612.23124548 0 3756.58514750 0 8147.42627758 0 -1658.01420764 0 -10139.39287408 0 996
0.03050000 0.03053250 55132.98058573 0 5401.26827606 0 4442.91427370 0 1294.68694104 0 -9274.17926810 0 1041
0.03150000 0.03150510 51871.51658715 0 4059.87826893 0 4772.08341824 0 -271.01618735 0 -8776.95437747 0 1036
0.03250000 0.03246190 47857.46667064 0 -102.10034306 0 6393.21571191 0 2596.90306297 0 -4269.38879915 0 1059
0.03350000 0.03345080 49107.42141942 0 -359.27479572 0 5100.92039303 0 -590.69302782 0 -6676.23540660 0 1302
0.03450000 0.03451200 50036.38947170 0 -2894.75967291 0 3568.24490233 0 -405.10979153 0 -2834.32692405 0 1339
0.03550000 0.03553350 52175.56262667 0 -2270.46878266 0 8376.03656811 0 2125.63170171 0 -2319.57454323 0 1365
0.03650000 0.03647120 54689.20180700 0 916.52940258 0 4964.53149591 0 -28.13444519 0 -3621.79066515 0 1308
0.03750000 0.03744890 52599.52194397 0 1886.02659263 0 7104.20290549 0 -2185.43332805 0 322.40395407 0 1579
0.03850000 0.03847530 50139.47281577 0 4483.05145117 0 10316.25111841 0 -2493.60934473 0 -115.02041745 0 1662
0.03950000 0.03950240 47049.85129837 0 3595.52711068 0 12141.46850313 0 -3075.42679698 0 -4251.04195692 0 1683
0.04050000 0.04050350 45619.74982479 0 1634.69589158 0 13664.35605869 0 1259.32193557 0 3015.84661713 0 1822
0.04150000 0.04152450 43642.12188894 0 1585.88908377 0 10791.96248191 0 2198.69797319 0 -2390.85817042 0 1887
0.04250000 0.04250150 43371.62499362 0 -145.74944052 0 10666.08122105 0 695.52137027 0 -2772.16689252 0 1920
0.04350000 0.04349210 42632.87948172 0 1597.81397760 0 11088.26896639 0 174.47326556 0 -4985.94537211 0 2005
0.04450000 0.04448520 40948.55743030 0 1888.54001037 0 12119.76674649 0 -366.63899895 0 -3956.67312929 0 2151
0.04550000 0.04548030 39084.64227033 0 1145.19948367 0 8445.39361077 0 4555.46445549 0 -2935.69405777 0 2274
0.04650000 0.04648670 39002.59634343 0 -238.38493888 0 9188.60126957 0 1496.76794131 0 -3549.45516711 0 2311
0.04750000 0.04749250 38762.32689486 0 -56.76249463 0 7317.61089404 0 3476.99787350 0 -796.31495756 0 2568
0.04850000 0.04851840 38584.72680477 0 1486.53711318 0 6140.19094515 0 2986.91463238 0 705.32148497 0 2493
0.04950000 0.04949480 37135.13803951 0 604.61426181 0 5451.04944844 0 1725.27858092 0 1094.50484449 0 2644
0.05050000 0.05050630 36916.57034759 0 699.39889842 0 6286.12418626 0 -943.98987537 0 -3549.64339664 0 2829
0.05150000 0.05149060 35266.90467286 0 803.69687652 0 7081.09496359 0 -2053.87196456 0 -79.61975909 0 2784
0.05250000 0.05249300 36090.35346963 0 -87.27383579 0 8208.97733125 0 -3305.74222553 0 294.08094718 0 3055
0.05350000 0.05348950 36421.74815145 0 -656.97971481 0 9816.92248606 0 -797.55395071 0 506.86999278 0 3009
0.05450000 0.05448610 37201.12909543 0 713.00789286 0 11313.36932995 0 -261.63239207 0 -1935.91848827 0 3336
0.05550000 0.05550870 35937.77683362 0 3144.69526104 0 12248.31643763 0 -183.48281627 0 2395.58605311 0 3349
0.05650000 0.05647670 33757.52535359 0 1927.44815978 0 14017.12032741 0 -650.09383601 0 198.73494370 0 3324
0.05750000 0.05747970 32206.40336974 0 802.38480603 0 12584.58294238 0 3189.44959796 0 4124.76209237 0 3639
0.05850000 0.05849280 32652.72878318 0 -141.38362284 0 13776.29726261 0 517.85706070 0 1534.90102798 0 3846
0.05950000 0.05951020 32740.64304224 0 -777.39899784 0 10585.29753917 0 4092.74092899 0 1474.21361565 0 3787
0.06050000 0.06049470 32893.55184799 0 -217.55125250 0 10787.95430033 0 810.74551850 0 296.15257916 0 3930
0.06150000 0.06148310 33152.97641849 0 -643.94869573 0 7861.11810242 0 425.63234559 0 -1521.70281680 0 4083
0.06250000 0.06249100 33242.66224952 0 351.79211860 0 8806.45105078 0 796.68366598 0 -1451.19425236 0 4303
0.06350000 0.06350600 32579.20854638 0 1845.46866682 0 6770.04014246 0 -934.21522702 0 59.41320919 0 4470
0.06450000 0.06451750 31492.01697244 0 1106.91802784 0 7846.44727203 0 1352.47340427 0 230.79928915 0 4479
0.06550000 0.06550280 29462.12766344 0 670.92752239 0 7591.51806541 0 644.11035168 0 1580.74045273 0 4636
0.06650000 0.06648880 30972.50349195 0 -331.13558942 0 8234.59869088 0 1200.31751661 0 1067.81832721 0 4653
0.06750000 0.06749660 29730.96371004 0 -434.68618559 0 7416.11029563 0 618.11696193 0 796.92614989 0 5220
0.06850000 0.06852730 31129.28761138 0 282.59562465 0 8194.83797245 0 -1067.21045658 0 512.17806530 0 5029
0.06950000 0.06949320 30842.18222884 0 -211.20791761 0 8772.52544754 0 -484.87371230 0 1971.21705979 0 5040
0.07050000 0.07048030 29956.72841309 0 1073.33013050 0 9979.06561070 0 -1208.64390488 0 628.27692718 0 5475
0.07150000 0.07148790 29032.30001398 0 1722.48835506 0 10786.52597043 0 -977.15813159 0 799.32662991 0 5509
0.07250000 0.07249820 28586.74966328 0 854.22875253 0 11284.13839243 0 428.46353904 0 -487.00956375 0 5916
0.07350000 0.07351270 26590.74166822 0 1294.94160452 0 10473.26775666 0 -45.72515836 0 776.42131156 0 5721
0.07450000 0.07449140 26779.96769937 0 947.53966270 0 10904.16942163 0 1162.11799599 0 1001.84277254 0 6028
0.07550000 0.07549160 25368.57845474 0 297.77799644 0 9923.23894897 0 1621.43124644 0 165.16697655 0 6183
0.07650000 0.07648840 25718.46391901 0 400.81926567 0 9320.94876813 0 740.22698896 0 -543.24590151 0 6330
0.07750000 0.07749960 24919.70640659 0 603.12946306 0 9563.90879163 0 -137.26139631 0 -78.49259643 0 6583
0.07850000 0.07848650 24803.88988899 0 425.40979186 0 10292.27953517 0 -6.69279960 0 1368.88258965 0 6549
0.07950000 0.07947320 23979.55530624 0 261.01455634 0 9530.20463488 0 1492.00684164 0 1240.78686383 0 6828
0.08050000 0.08048110 24155.05165461 0 230.54130398 0 10079.42516286 0 2012.41718044 0 3210.97419741 0 7147
0.08150000 0.08149960 24216.39233411 0 437.54173816 0 8400.94929895 0 1630.82057789 0 2053.63944574 0 7386
0.08250000 0.08250610 23525.70071192 0 151.64545348 0 8555.10927740 0 705.05132024 0 2726.16138290 0 7227
0.08350000 0.08350160 24046.65359464 0 178.28103807 0 8493.56929606 0 -541.22963116 0 1607.70156367 0 7798
0.08450000 0.08449610 23123.99676750 0 59.14869135 0 8447.72987131 0 -530.66884775 0 1599.13158426 0 7371
0.08550000 0.08548940 22860.58616007 0 764.68796895 0 7927.24202623 0 -131.80274018 0 1273.85989806 0 8256
0.08650000 0.08650700 22597.83989212 0 238.68278442 0 7660.42114275 0 505.23903933 0 1213.67074035 0 8037
0.08750000 0.08749060 22575.36307274 0 313.27039333 0 8530.07475099 0 618.97728157 0 892.73054762 0 8155
0.08850000 0.08849210 21477.32062047 0 1299.06050935 0 7793.90909077 0 870.40320462 0 5.26387180 0 8718
0.08950000 0.08949900 20895.02705826 0 815.76238887 0 7394.79607036 0 398.46971834 0 309.00422657 0 8571
0.09050000 0.09049190 19749.48433252 0 940.98041748 0 7174.42358949 0 -268.87922866 0 1241.80551771 0 8932
0.09150000 0.09150830 19850.24248837 0 -63.44242819 0 7227.03927703 0 810.92821186 0 677.60191979 0 9285
0.09250000 0.09250820 19310.24520697 0 -37.39168381 0 6632.71009774 0 429.27956938 0 -123.27483560 0 9204
0.09350000 0.09350330 19428.94052902 0 70.69358299 0 6080.92079040 0 337.40252527 0 -939.92743939 0 9349
0.09450000 0.09448040 19086.36279913 0 71.51293503 0 5457.65962636 0 561.32368624 0 -259.30609663 0 9564
0.09550000 0.09549270 18882.07840623 0 251.21665611 0 5408.45421486 0 403.31386045 0 -400.25457710 0 10155
0.09650000 0.09649430 19039.85903490 0 61.23527096 0 5360.99823069 0 448.16231213 0 113.74267116 0 9913
0.09750000 0.09749140 18539.83284609 0 200.80436121 0 5560.43294533 0 734.72625799 0 -1111.01921695 0 10476
0.09850000 0.09850240 18180.86807547 0 952.77576511 0 5612.83825869 0 -569.25811420 0 -537.66102087 0 10575
0.09950000 0.09950330 17858.88486974 0 839.28554295 0 5810.72284785 0 -111.24918362 0 448.91412298 0 10882
0.10050000 0.10051200 17020.04554148 0 402.90086273 0 6103.01007841 0 -93.72069692 0 1364.96298667 0 10875
0.10150000 0.10150300 16935.12081012 0 105.12043038 0 5663.46092776 0 1360.74443091 0 464.12306835 0 11118
0.10250000 0.10250800 16708.58104433 0 -6.53902716 0 5496.12488278 0 1072.35465869 0 173.58415788 0 11575
0.10350000 0.10349800 16744.12320700 0 92.15307717 0 5079.32935963 0 296.15147192 0 604.71501997 0 11364
0.10450000 0.10450100 16508.06124186 0 290.85779343 0 4844.10889118 0 147.83878821 0 463.37347196 0 12093
0.10550000 0.10551000 16624.32065246 0 285.28730681 0 5043.32215932 0 -423.95045945 0 753.88137993 0 12067
0.10650000 0.10649700 16123.96229391 0 425.99441061 0 4780.11085373 0 -335.34085839 0 827.73046477 0 12054
0.10750000 0.10749900 16163.04760052 0 220.71793740 0 5792.19884843 0 -439.64105095 0 984.54780118 0 12807
0.10850000 0.10850100 15939.94025542 0 288.51156780 0 5423.73402311 0 36.55151580 0 1172.43740272 0 12736
0.10950000 0.10950300 15718.16158930 0 200.32603678 0 5566.97668929 0 793.45608329 0 1516.36595624 0 12933
0.11050000 0.11050200 15625.48623057 0 -183.07424748 0 5379.97619543 0 668.76288288 0 1282.99456604 0 13428
0.11150000 0.11150900 15638.44085061 0 -48.70892845 0 5057.22899929 0 1066.79081546 0 1045.57070495 0 13453
0.11250000 0.11250000 15689.04137503 0 95.42273469 0 4484.74551687 0 674.68989836 0 1400.50514934 0 13668
0.11350000 0.11349100 15133.09994588 0 399.41308042 0 4209.68682372 0 -77.83401455 0 814.56214886 0 13791
0.11450000 0.11448600 15214.48153330 0 303.71276254 0 4541.52439854 0 -320.67002800 0 886.45586114 0 14205
0.11550000 0.11549300 14746.01147022 0 562.79409097 0 4822.81681056 0 -176.75084278 0 978.01955846 0 14776
0.11650000 0.11649800 14427.79285494 0 344.56853389 0 4473.24137138 0 -79.63858204 0 1137.11668655 0 14553
0.11750000 0.11747300 14226.83015948 0 -118.24246397 0 4483.61613974 0 409.30841711 0 489.09669698 0 14568
0.11850000 0.11849100 14494.66969684 0 -141.83094476 0 4675.96456649 0 287.37333281 0 267.63802105 0 16015
0.11950000 0.11950300 14358.36937832 0 124.11190336 0 4179.04970095 0 78.60531269 0 255.04546604 0 15270
0.12050000 0.12050700 14444.51206541 0 110.75757239 0 4348.51163230 0 -193.01608794 0 323.21776994 0 15999
0.12150000 0.12150000 14085.43657154 0 396.62174733 0 4216.82847323 0 110.86275948 0 196.49390516 0 15670
0.12250000 0.12250700 13937.28886547 0 385.24382635 0 4158.15622402 0 -58.47892642 0 292.47213839 0 16887
0.12350000 0.12352200 13607.11213938 0 267.53947736 0 4541.54654319 0 553.38704381 0 -26.58708780 0 16407
0.12450000 0.12449800 13531.59888412 0 114.34168394 0 4323.31102101 0 -40.37633968 0 294.00122644 0 16306
0.12550000 0.12549900 13379.02224811 0 130.12417573 0 4204.43854176 0 313.05891192 0 128.89071875 0 17523
0.12650000 0.12650100 13096.01362575 0 272.41462198 0 4102.76138295 0 -158.02532704 0 471.22264303 0 17154
0.12750000 0.12750600 13115.50091743 0 235.04552572 0 4696.14941463 0 179.60750258 0 256.02204508 0 18007
0.12850000 0.12850300 12792.41047922 0 103.55923258 0 4246.10370005 0 159.10709318 0 537.71638249 0 17496
0.12950000 0.12949900 12741.58850831 0 227.06127229 0 4192.82367303 0 702.02857557 0 505.59224650 0 18405
0.13050000 0.13049000 12633.85478782 0 78.58460744 0 3950.10724068 0 196.46622435 0 1232.58227114 0 18100
0.13150000 0.13148800 12736.49523889 0 154.17990863 0 4182.54855559 0 220.32265540 0 224.93427869 0 19059
0.13250000 0.13249300 12052.00411860 0 464.89148770 0 3783.59054773 0 -66.18194280 0 1087.73079616 0 18957
0.13350000 0.13349100 11975.71580060 0 310.24211249 0 3917.91999243 0 232.14568385 0 558.85677227 0 19468
0.13450000 0.13450700 11799.66583598 0 -187.78219999 0 3772.48500594 0 274.12308170 0 606.02376876 0 19953
0.13550000 0.13551000 11983.35570472 0 -208.07666415 0 3486.86331491 0 542.15859921 0 277.04949715 0 19956
0.13650000 0.13649900 12142.68645886 0 -97.89894941 0 3385.25259005 0 437.63806739 0 59.20427442 0 19723
0.13750000 0.13749600 12004.50384513 0 233.41789397 0 2939.28149101 0 60.91461644 0 -55.06078903 0 20946
0.13850000 0.13851100 11697.24683141 0 421.24327603 0 3030.05240987 0 133.55106027 0 475.36812144 0 20955
0.13950000 0.13949800 11346.91847415 0 377.43562288 0 2996.13787895 0 -167.95720241 0 386.58247042 0 20506
0.14050000 0.14048300 11082.95425047 0 251.06607250 0 3281.87029322 0 155.60602407 0 252.00057671 0 21447
0.14150000 0.14148400 10897.58138836 0 107.26967935 0 2828.61360445 0 509.57274727 0 478.65106575 0 21771
0.14250000 0.14249400 10976.28347317 0 15.35332849 0 2594.32321128 0 324.07255342 0 491.57800497 0 22470
0.14350000 0.14350900 10836.37357676 0 -102.99188666 0 2209.05059689 0 455.11462488 0 512.77597084 0 22519
0.14450000 0.14449900 11111.07795551 0 -60.07965242 0 2352.88009629 0 315.00874832 0 505.54352827 0 22218
0.14550000 0.14550500 11110.41361602 0 55.72778587 0 1927.23778561 0 -149.39998601 0 566.92517536 0 23559
0.14650000 0.14650700 10884.59355135 0 373.55034410 0 2217.08910471 0 -194.73894168 0 304.08036373 0 23044
0.14750000 0.14750500 10683.25439684 0 327.01225566 0 2071.96414331 0 -388.11155847 0 340.93127519 0 23649
0.14850000 0.14849900 10336.45811120 0 324.53316213 0 2445.64403362 0 -210.55907938 0 231.46916480 0 23640
0.14950000 0.14949500 10132.93770871 0 285.49878822 0 2331.79838983 0 -48.15630872 0 -192.27756387 0 24457
0.15050000 0.15050000 9968.65762537 0 269.76501465 0 2443.61779818 0 -22.09526707 0 -274.60029890 0 24591
0.15150000 0.15149900 9713.14158553 0 44.17558650 0 2198.63153924 0 100.12836201 0 -210.69969790 0 25020
0.15250000 0.15250500 9751.76185450 0 -56.37374530 0 2401.53189154 0 458.30788336 0 26.22845520 0 25297
0.15350000 0.15350100 9833.22094819 0 4.93507911 0 2253.78278916 0 428.79792325 0 -212.88648206 0 25452
0.15450000 0.15450400 9807.64387786 0 95.12920736 0 2174.96998110 0 70.29564364 0 115.68586417 0 26061
0.15550000 0.15549900 9592.75219778 0 293.58601426 0 2213.43523752 0 -70.57411261 0 307.10864456 0 26128
0.15650000 0.15649500 9549.39297379 0 117.83278795 0 2324.10312408 0 -150.07096889 0 690.74366211 0 26331
0.15750000 0.15749700 9406.93644267 0 41.24728875 0 2082.47177957 0 425.58805629 0 776.64054359 0 27345
0.15850000 0.15849900 9367.06500100 0 25.24135744 0 2073.39247321 0 368.89775322 0 272.38583393 0 26980
0.15950000 0.15949700 9238.01705524 0 -3.30994971 0 1799.81747160 0 560.51872822 0 184.86132071 0 27777
0.16050000 0.16050000 9156.54688922 0 163.99773905 0 1572.98982536 0 180.55972252 0 11.52529363 0 28224
0.16150000 0.16150500 8922.73260603 0 214.94372001 0 1530.71568920 0 -35.10668813 0 82.01470295 0 28075
0.16250000 0.16249700 8817.56766490 0 240.72784281 0 1545.96228048 0 -145.99524613 0 376.07372693 0 28590
0.16350000 0.16349900 8791.19338718 0 65.12852182 0 1762.47051998 0 -299.29158324 0 323.91864810 0 29163
0.16450000 0.16449100 8770.36634420 0 79.39720536 0 2122.44287216 0 -370.76343995 0 471.83604982 0 28996
0.16550000 0.16550500 8734.75774758 0 99.96305220 0 2167.50723417 0 -91.74240464 0 681.52816617 0 30777
0.16650000 0.16650700 8562.49451805 0 208.33022039 0 2459.50658429 0 65.20680315 0 603.71408181 0 29211
0.16750000 0.16749900 8564.87506789 0 181.38018178 0 2327.51340013 0 118.93337704 0 775.79461798 0 30922
0.16850000 0.16850800 8415.05544077 0 114.28410785 0 2392.55223611 0 165.56225855 0 813.54017328 0 30867
0.16950000 0.16949900 8354.85521073 0 28.00567406 0 2222.33738668 0 69.95406242 0 458.89693104 0 30852
0.17050000 0.17049200 8351.72174281 0 -48.90025822 0 2247.82587841 0 -5.10300199 0 673.19181281 0 31257
0.17150000 0.17149500 8343.38428222 0 13.98512131 0 2152.24957057 0 128.09794029 0 357.39139326 0 32608
0.17250000 0.17250900 8352.45251625 0 70.43415842 0 2017.21149709 0 25.88875627 0 524.16496415 0 32361
0.17350000 0.17350400 8357.95546168 0 160.64503910 0 2088.06330360 0 58.80168469 0 439.09186364 0 32508
0.17450000 0.17449800 8223.43778746 0 100.46507141 0 2014.42127123 0 58.39654833 0 386.35770222 0 32791
0.17550000 0.17549800 8120.59803454 0 125.59780935 0 1923.60606307 0 33.13382130 0 381.91880720 0 33633
0.17650000 0.17650100 7995.65792129 0 182.78858150 0 1882.89312471 0 21.15024415 0 9.59521025 0 33984
0.17750000 0.17750300 7867.90543753 0 190.23029101 0 1978.04868420 0 -21.37534451 0 280.46641659 0 34069
0.17850000 0.17849800 7721.10855509 0 98.07809963 0 1637.43075581 0 -190.59678496 0 -67.85729627 0 34536
