### header ###
fiducial parameters:
Omega_m = 0.31
Omega_nu = 0
Omega_de = 0.69
Omega_k = 0
H_0 = 100
w_de = -1
zeff = 0
beta = 0
fgrowth = 0
b_1 = 2
gamma = 0.55
Lx = 3500 Ly = 3500 Lz = 3500
nx = 700 ny = 700 nz = 700
xoffset = -685.467585 yoffset = -31.7331281 zoffset = 572.489161
bins = 400 dk = 0.001
kx_ny = 0.628318531 ky_ny = 0.628318531 kz_ny = 0.628318531
############################
A(data) = 8.09789297 (not used)
A(ran) = 8.09882322 (used)
Ngal = 481212
weighted Ngal = 0
Nran = 23820508
weighted Nran = 0
SN(data) = 3482.73455
SN(ran) = 70.5436874
SN(data+ran) = 3553.27823
############################
13 columns: k_central k_mean P_0(k) sigma^{lin}_{P_0(k)} P^img_1(k) sigma^{lin}_{P_1(k)} P_2(k) sigma^{lin}_{P_2(k)} P^img_3(k) sigma^{lin}_{P_3(k)} P_4(k) sigma^{lin}_{P_4(k)} N_modes
### header ###
0.00050000 0 0 0 0 0 0 0 0 0 0 0 0
0.00150000 0.00179520 400.86466220 0 -4707.01136528 0 -1571.86044823 0 5299.35859843 0 -2874.99557311 0 3
0.00250000 0.00253879 7887.09377644 0 -8025.25424553 0 2561.99202281 0 -23426.93557454 0 426.35536840 0 6
0.00350000 0.00331552 12354.72147914 0 -6248.25683538 0 -1812.42884956 0 -18240.99079923 0 -15796.00003278 0 7
0.00450000 0.00420575 19001.32734453 0 -7338.06147798 0 -5092.91510218 0 -14654.55406722 0 4166.44939531 0 24
0.00550000 0.00557378 26719.18063612 0 -6899.66384912 0 6405.64993268 0 -25001.86305674 0 -14849.64843053 0 45
0.00650000 0.00659388 37596.96470770 0 -7358.20203683 0 18049.43957987 0 -14214.87204867 0 -208.97241523 0 40
0.00750000 0.00754703 45892.79335482 0 -10050.16100836 0 2031.81589352 0 -3958.86544961 0 -16801.69929605 0 57
0.00850000 0.00846663 57864.30167199 0 -27105.16187929 0 -23694.88583515 0 33600.18761791 0 10050.53746741 0 75
0.00950000 0.00948925 76079.27250790 0 -26717.29834090 0 -26284.37044049 0 19750.70228825 0 -11452.65917617 0 112
0.01050000 0.01054430 94870.00423437 0 -26688.62101962 0 -56193.04496386 0 39009.12901507 0 -18142.00421535 0 105
0.01150000 0.01145670 104387.77464848 0 -4196.59933579 0 -65384.40324232 0 -21031.32737678 0 -15785.81349394 0 144
0.01250000 0.01249090 98670.57972837 0 18254.05614252 0 -59888.98698833 0 -42975.12504186 0 -8421.30023197 0 169
0.01350000 0.01339930 84274.89661541 0 17298.51451067 0 -30269.74303571 0 -59424.39223894 0 -13194.11442364 0 180
0.01450000 0.01448870 71254.83913792 0 11460.18835704 0 -12092.63955068 0 -51744.18485173 0 -14976.09437996 0 267
0.01550000 0.01550050 66749.84233895 0 347.58574240 0 13820.91873163 0 -34859.66456603 0 -12708.48225710 0 238
0.01650000 0.01653350 69099.72183522 0 799.70530342 0 24215.06365513 0 -25201.27562673 0 -34365.28526288 0 315
0.01750000 0.01747870 74370.92351163 0 791.69226195 0 36179.04279142 0 -2174.61566671 0 -27132.62124484 0 297
0.01850000 0.01844180 70652.61539103 0 1898.61582595 0 39815.19426187 0 -7167.89091785 0 -42088.34254713 0 388
0.01950000 0.01947590 70827.55812316 0 2920.00457350 0 36316.33961917 0 -65.65999341 0 -27691.66292494 0 399
0.02050000 0.02045430 74716.60149247 0 4057.77452721 0 41955.69609581 0 4843.01273103 0 -34312.69171999 0 462
0.02150000 0.02154770 69481.71704146 0 4587.25310004 0 43377.60404902 0 2142.29555056 0 -13001.67741830 0 571
0.02250000 0.02255340 66799.77852389 0 1713.78550775 0 39891.70402636 0 7311.60969399 0 -21821.33775259 0 510
0.02350000 0.02348930 72064.66897515 0 -5485.15220888 0 29704.39013047 0 14601.84980109 0 -11827.56809453 0 555
0.02450000 0.02439640 72026.13728478 0 -5155.28550789 0 40374.67883495 0 4905.09525628 0 -17046.39767455 0 592
0.02550000 0.02547300 76020.36773986 0 -1034.28136256 0 28320.34952814 0 10207.72019053 0 -13602.01886996 0 837
0.02650000 0.02652900 76732.87184194 0 -947.30825111 0 27135.38932605 0 14002.06196566 0 3168.81078450 0 723
0.02750000 0.02749970 73328.90702295 0 3020.58557215 0 18875.87790433 0 9241.33875269 0 -319.23948364 0 826
0.02850000 0.02848090 71481.15745721 0 5969.62178132 0 12645.81289862 0 15559.49517465 0 6608.66100823 0 831
0.02950000 0.02946900 64492.30603168 0 1641.18427392 0 9179.92056692 0 1735.15509465 0 12659.98547439 0 996
0.03050000 0.03053250 65409.09452666 0 3031.09320840 0 8792.09024549 0 306.16528249 0 10122.56294035 0 1041
0.03150000 0.03150510 63359.93937248 0 820.65746368 0 16973.20960750 0 -1669.81730590 0 13651.84433165 0 1036
0.03250000 0.03246190 61635.86767497 0 3445.85142379 0 16546.15003924 0 -5958.71554138 0 14455.80583673 0 1059
0.03350000 0.03345080 60138.55718974 0 3130.88807199 0 22776.43649144 0 1292.52783770 0 14855.95965567 0 1302
0.03450000 0.03451200 58644.45767871 0 20.75872674 0 24376.49815099 0 -1193.50803685 0 9948.91567022 0 1339
0.03550000 0.03553350 56591.53793409 0 4955.81757628 0 26256.68962844 0 7061.29764682 0 10271.79573426 0 1365
0.03650000 0.03647120 54375.74429138 0 3273.23387986 0 22042.89497221 0 -702.02746834 0 9836.48728401 0 1308
0.03750000 0.03744890 50264.03646998 0 3485.92216730 0 21873.15623274 0 4527.13037628 0 14543.27720280 0 1579
0.03850000 0.03847530 48059.31515209 0 1189.79880804 0 19698.21946861 0 4791.38248040 0 10659.01707782 0 1662
0.03950000 0.03950240 46915.43327507 0 2996.12680663 0 15669.66480660 0 3925.84777700 0 5815.51716450 0 1683
0.04050000 0.04050350 43881.50555151 0 -242.05430733 0 15736.32020200 0 104.34724994 0 249.34764768 0 1822
0.04150000 0.04152450 44455.60559336 0 271.61741459 0 10641.73317877 0 -280.01355850 0 -1837.51873760 0 1887
0.04250000 0.04250150 43348.37311150 0 67.05410982 0 13119.04406137 0 -4551.01338091 0 -5285.42961380 0 1920
0.04350000 0.04349210 42997.04824500 0 728.90332237 0 8876.61637316 0 1230.78855452 0 -6814.76126241 0 2005
0.04450000 0.04448520 42548.50836660 0 1869.49561168 0 13937.62103522 0 -2725.13165669 0 -5990.92493427 0 2151
0.04550000 0.04548030 42124.54904929 0 1523.02042345 0 12952.18412636 0 -887.58413104 0 -9142.65112158 0 2274
0.04650000 0.04648670 41254.81793479 0 343.35500709 0 17374.02776593 0 -2386.91642278 0 -6538.14137146 0 2311
0.04750000 0.04749250 40574.31285143 0 1005.60847021 0 18506.39442513 0 -226.83982579 0 -3586.44780433 0 2568
0.04850000 0.04851840 41160.37100408 0 -590.22245402 0 19768.63945446 0 760.52920375 0 -1726.77334477 0 2493
0.04950000 0.04949480 41336.75313845 0 457.34680556 0 20031.27499916 0 2405.76151962 0 -2831.09380520 0 2644
0.05050000 0.05050630 41523.43253489 0 1517.78321382 0 20692.51423733 0 424.80967185 0 -750.24633569 0 2829
0.05150000 0.05149060 37852.18179477 0 1841.02866457 0 19578.74908382 0 3038.60024463 0 -1060.76414907 0 2784
0.05250000 0.05249300 37867.68304951 0 643.99962843 0 15789.91025413 0 2664.24494251 0 -2202.98296289 0 3055
0.05350000 0.05348950 36672.64703184 0 -48.34597764 0 15012.52232861 0 3440.25989975 0 -4056.60086078 0 3009
0.05450000 0.05448610 36408.46136167 0 277.90095893 0 12416.61577488 0 3992.18207499 0 -4293.58182888 0 3336
0.05550000 0.05550870 35535.07637997 0 -182.06777316 0 11240.51343264 0 -138.98978622 0 -5472.30831209 0 3349
0.05650000 0.05647670 36108.06918934 0 1150.44776563 0 8984.94799919 0 158.02089811 0 -4937.80290380 0 3324
0.05750000 0.05747970 35853.07354876 0 1258.92333188 0 11512.33900694 0 -1770.79690825 0 -4224.84483640 0 3639
0.05850000 0.05849280 35060.95943124 0 938.33745355 0 10709.28543249 0 -856.66134229 0 -1386.31042892 0 3846
0.05950000 0.05951020 35190.06273862 0 -261.75750934 0 11087.38318040 0 892.03852732 0 -4533.75162652 0 3787
0.06050000 0.06049470 34069.54346697 0 317.55870473 0 11663.03334772 0 2942.59211613 0 -3100.78242081 0 3930
0.06150000 0.06148310 34125.56943056 0 567.35145987 0 9516.53031373 0 2676.05911309 0 -3482.36795104 0 4083
0.06250000 0.06249100 32811.06302809 0 411.28371985 0 7389.87995814 0 2888.30450754 0 -1590.73876205 0 4303
0.06350000 0.06350600 33060.85467600 0 -268.16838541 0 8058.43800301 0 1729.64107690 0 -1427.51054957 0 4470
0.06450000 0.06451750 32265.97247727 0 961.41660740 0 7718.44012480 0 -1016.06517377 0 -1327.85962620 0 4479
0.06550000 0.06550280 31754.20962415 0 2041.13879102 0 8891.79653049 0 -1109.55767008 0 551.74723250 0 4636
0.06650000 0.06648880 30495.95063176 0 1382.51262151 0 8780.23178561 0 -2394.15772321 0 819.33432086 0 4653
0.06750000 0.06749660 29927.94036856 0 849.35914407 0 12037.49937309 0 -1077.79781357 0 2176.74155307 0 5220
0.06850000 0.06852730 29342.54655540 0 754.69741027 0 11623.83731786 0 -1256.89709644 0 1615.06465967 0 5029
0.06950000 0.06949320 29162.39983060 0 874.21208436 0 12925.05693055 0 445.32115358 0 637.74708660 0 5040
0.07050000 0.07048030 29207.68563911 0 -1006.44332351 0 12799.05387411 0 1804.46784802 0 -452.56909740 0 5475
0.07150000 0.07148790 29230.49462823 0 -650.47361675 0 11666.35504517 0 2259.33002389 0 -438.75637219 0 5509
0.07250000 0.07249820 29523.57906618 0 811.65012744 0 11658.82586429 0 1008.95563401 0 -2907.11638741 0 5916
0.07350000 0.07351270 28759.58865370 0 647.32354034 0 9980.03997529 0 952.61300193 0 -742.99617740 0 5721
0.07450000 0.07449140 28776.86148041 0 229.31116869 0 10876.61040515 0 -1043.97850464 0 -950.72295609 0 6028
0.07550000 0.07549160 28022.83616026 0 850.62692526 0 11661.70466874 0 205.25654302 0 -369.01069093 0 6183
0.07650000 0.07648840 27644.38409796 0 1026.31925379 0 12245.88052617 0 315.44278346 0 1137.96925556 0 6330
0.07750000 0.07749960 26735.56767685 0 726.31461283 0 12758.30771878 0 785.72427887 0 3066.00424856 0 6583
0.07850000 0.07848650 26786.94326401 0 880.91637704 0 13249.58677098 0 2911.99928265 0 5607.77820625 0 6549
0.07950000 0.07947320 25500.56056658 0 468.70590360 0 11708.09770973 0 2889.94321162 0 3463.23497375 0 6828
0.08050000 0.08048110 25762.08887879 0 258.99496430 0 11443.02625357 0 1694.17642050 0 4684.93314959 0 7147
0.08150000 0.08149960 24182.73246666 0 1132.21164666 0 11524.96145723 0 1112.27038966 0 4755.19812289 0 7386
0.08250000 0.08250610 24591.07980597 0 89.67542305 0 10584.14601739 0 501.88191045 0 4741.81168218 0 7227
0.08350000 0.08350160 23512.63536864 0 -218.85667960 0 10085.73638801 0 298.52870006 0 4319.74573242 0 7798
0.08450000 0.08449610 24236.21179553 0 401.14036309 0 9830.31999909 0 -669.79593079 0 2978.32250832 0 7371
0.08550000 0.08548940 23483.18298462 0 963.37862336 0 9878.86107109 0 133.67285584 0 2020.93179822 0 8256
0.08650000 0.08650700 23117.79626560 0 609.87250887 0 9537.76703273 0 200.43565280 0 2532.76108529 0 8037
0.08750000 0.08749060 21968.37822618 0 679.85070896 0 9115.84502319 0 700.67885917 0 2980.55911793 0 8155
0.08850000 0.08849210 21922.31735493 0 755.71717138 0 9216.38173254 0 1016.27444071 0 1345.68606916 0 8718
0.08950000 0.08949900 21201.84117898 0 167.54752639 0 8524.64931182 0 873.19564494 0 719.26818531 0 8571
0.09050000 0.09049190 20654.31471670 0 492.48039945 0 8117.18775850 0 324.65163601 0 1156.73684613 0 8932
0.09150000 0.09150830 19741.40153541 0 837.53722286 0 7981.75108132 0 160.02609614 0 1335.35559010 0 9285
0.09250000 0.09250820 20060.94882967 0 286.35910785 0 7441.04517112 0 726.77522154 0 989.38640712 0 9204
0.09350000 0.09350330 19070.41865140 0 -308.69863041 0 7041.99858466 0 214.48754022 0 1063.01625993 0 9349
0.09450000 0.09448040 19646.06881872 0 437.67571329 0 7965.31975129 0 -187.53971608 0 1383.67521561 0 9564
0.09550000 0.09549270 19396.05572431 0 174.50869700 0 8188.98071262 0 -292.39463211 0 813.13160450 0 10155
0.09650000 0.09649430 19050.26702023 0 487.24983320 0 8853.16518919 0 -589.02332124 0 1161.03290816 0 9913
0.09750000 0.09749140 18412.50111067 0 930.20925990 0 8598.68994789 0 -704.70586371 0 1289.87047975 0 10476
0.09850000 0.09850240 18071.25205976 0 771.10327395 0 8215.11139919 0 987.69455589 0 2094.76206011 0 10575
0.09950000 0.09950330 17198.08852456 0 199.75249036 0 8143.77241039 0 901.82314076 0 1067.84600802 0 10882
0.10050000 0.10051200 17360.85169940 0 -208.01465914 0 7153.54118488 0 1857.30498205 0 663.69840151 0 10875
0.10150000 0.10150300 17530.25826912 0 -294.84161590 0 7391.61831313 0 1291.65312404 0 -215.71213935 0 11118
0.10250000 0.10250800 16978.41360016 0 650.75596103 0 6124.08071254 0 -140.91747797 0 -616.74399365 0 11575
0.10350000 0.10349800 17177.05110741 0 241.64241684 0 6201.03337003 0 -408.19786293 0 -372.92918668 0 11364
0.10450000 0.10450100 16355.04171287 0 404.59935736 0 6332.35114238 0 -507.69598821 0 -261.38547923 0 12093
0.10550000 0.10551000 16440.29861397 0 399.63120521 0 6490.89576146 0 -233.54633293 0 -193.45676646 0 12067
0.10650000 0.10649700 16022.53979857 0 142.00145857 0 6929.30446265 0 -9.37454989 0 -783.46441738 0 12054
0.10750000 0.10749900 15882.91778260 0 436.73124398 0 6334.93099407 0 275.86586562 0 -686.54060761 0 12807
0.10850000 0.10850100 15616.62837072 0 295.06527686 0 6075.20747079 0 448.60963405 0 -151.50040603 0 12736
0.10950000 0.10950300 15350.78185182 0 40.67407450 0 5805.74030168 0 1202.93058527 0 -43.85781078 0 12933
0.11050000 0.11050200 15260.21023480 0 41.37063445 0 5512.87731023 0 1061.86030922 0 -139.83903353 0 13428
0.11150000 0.11150900 15228.32193933 0 79.45854604 0 5108.29456136 0 881.37255682 0 -113.88882585 0 13453
0.11250000 0.11250000 14737.92867311 0 446.40070525 0 4697.40058734 0 51.25722401 0 71.57217197 0 13668
0.11350000 0.11349100 14655.43985321 0 466.19802202 0 4943.28370458 0 84.21134147 0 786.54030921 0 13791
0.11450000 0.11448600 14339.65714938 0 130.52831559 0 4786.48851283 0 -200.32825125 0 638.02389472 0 14205
0.11550000 0.11549300 14169.47551692 0 49.13355211 0 4726.88618833 0 368.40946369 0 835.28732646 0 14776
0.11650000 0.11649800 14318.39828573 0 -123.80962889 0 4208.65709752 0 499.07839781 0 248.52940288 0 14553
0.11750000 0.11747300 14303.11847748 0 -158.47486343 0 4154.40270591 0 1025.79553282 0 251.43367368 0 14568
0.11850000 0.11849100 14547.04179323 0 76.51696151 0 3576.93667731 0 481.83989530 0 62.78750018 0 16015
0.11950000 0.11950300 14197.70994521 0 357.10019112 0 3558.52340114 0 266.20194052 0 170.43518870 0 15270
0.12050000 0.12050700 14148.10593002 0 -52.63406760 0 3399.86805881 0 -192.62191317 0 51.81327616 0 15999
0.12150000 0.12150000 14088.53682249 0 192.61859148 0 3965.65278472 0 -362.46694696 0 -97.07605423 0 15670
0.12250000 0.12250700 14014.13079971 0 402.62184015 0 3904.03529711 0 -506.59650636 0 -131.41299434 0 16887
0.12350000 0.12352200 13680.74309942 0 413.89789574 0 4463.12126650 0 -514.37370731 0 163.71096584 0 16407
0.12450000 0.12449800 13455.08911962 0 449.95713598 0 4370.10266570 0 144.02880124 0 541.53633456 0 16306
0.12550000 0.12549900 13203.19372999 0 99.94123972 0 4180.17907808 0 664.60301045 0 731.13661028 0 17523
0.12650000 0.12650100 12847.77210332 0 296.57332750 0 4182.06137330 0 1011.93076769 0 790.31154305 0 17154
0.12750000 0.12750600 12682.68374027 0 344.85752157 0 3773.78046794 0 608.53940096 0 769.22319320 0 18007
0.12850000 0.12850300 12357.71100684 0 98.77919923 0 3204.71833388 0 435.81445549 0 1303.10190791 0 17496
0.12950000 0.12949900 12351.17833520 0 -139.71170179 0 3156.88589067 0 361.20138023 0 1037.19892015 0 18405
0.13050000 0.13049000 12530.43927401 0 -227.32368639 0 3125.37405423 0 -396.93287966 0 1381.00678533 0 18100
0.13150000 0.13148800 12652.01340052 0 51.63578679 0 3497.66990394 0 -67.72520343 0 439.87356977 0 19059
0.13250000 0.13249300 12456.03325123 0 322.58000403 0 3584.07832682 0 -690.96510861 0 1144.21404676 0 18957
0.13350000 0.13349100 12129.51039233 0 429.15555934 0 3865.64754696 0 -162.36346391 0 666.82965497 0 19468
0.13450000 0.13450700 12142.24356587 0 264.32185977 0 4562.24071828 0 -119.21239962 0 884.66657345 0 19953
0.13550000 0.13551000 11865.65689190 0 111.79837093 0 4398.15993679 0 -68.38201374 0 326.47635514 0 19956
0.13650000 0.13649900 11850.93069989 0 199.46571714 0 4509.99041746 0 125.95212374 0 676.12930059 0 19723
0.13750000 0.13749600 11690.04982028 0 135.43778441 0 4399.30038624 0 -87.58286438 0 718.41561630 0 20946
0.13850000 0.13851100 11605.45725866 0 -22.33974400 0 3968.74196335 0 598.89651328 0 450.31145037 0 20955
0.13950000 0.13949800 11640.33508184 0 -200.74124896 0 3713.77953975 0 660.85502850 0 71.68311666 0 20506
0.14050000 0.14048300 11604.57147268 0 48.88741433 0 3303.78242404 0 729.07937233 0 -17.91358215 0 21447
0.14150000 0.14148400 11577.44427687 0 295.03981051 0 3128.69575168 0 110.01650169 0 216.50381057 0 21771
0.14250000 0.14249400 11143.63059048 0 367.26458530 0 3019.83265406 0 168.40895326 0 66.95445890 0 22470
0.14350000 0.14350900 11013.18753179 0 198.17357684 0 3213.06686680 0 39.29756308 0 836.56396551 0 22519
0.14450000 0.14449900 10785.71769072 0 52.71755293 0 2992.96012173 0 77.29656390 0 583.76175248 0 22218
0.14550000 0.14550500 10843.96919159 0 35.05099434 0 3105.06741052 0 601.46750710 0 868.23745789 0 23559
0.14650000 0.14650700 10910.29241725 0 -43.92933799 0 2654.84453874 0 634.85167366 0 811.80181829 0 23044
0.14750000 0.14750500 10785.29694237 0 121.15891433 0 2652.65221843 0 299.48867062 0 710.93847535 0 23649
0.14850000 0.14849900 10684.30626770 0 257.49909321 0 2291.40654889 0 -211.90768854 0 621.71436026 0 23640
0.14950000 0.14949500 10548.59278240 0 296.62315296 0 2769.71990873 0 -479.03306095 0 618.86102216 0 24457
0.15050000 0.15050000 10222.54603346 0 426.90344848 0 2931.07689832 0 -480.69833861 0 710.20105852 0 24591
0.15150000 0.15149900 9974.03877524 0 223.33100606 0 2919.17414914 0 -409.07921998 0 532.20790090 0 25020
0.15250000 0.15250500 9786.07498911 0 23.43435403 0 3011.59484440 0 164.52367448 0 61.24656473 0 25297
0.15350000 0.15350100 9987.75738569 0 -58.18252029 0 2815.30467001 0 208.53948733 0 -79.45932111 0 25452
0.15450000 0.15450400 9844.53686416 0 14.38981478 0 2487.39777051 0 214.99575993 0 -601.09436975 0 26061
0.15550000 0.15549900 9860.54744584 0 60.19270086 0 2436.97440328 0 346.92693908 0 -345.69680379 0 26128
0.15650000 0.15649500 9745.68314818 0 104.29819954 0 2258.48852721 0 -24.83046347 0 -579.42804455 0 26331
0.15750000 0.15749700 9639.32239597 0 222.90029262 0 2050.90458151 0 173.81556947 0 -748.10494807 0 27345
0.15850000 0.15849900 9431.07411078 0 326.58818562 0 2190.64839304 0 -153.35834213 0 -671.52321346 0 26980
0.15950000 0.15949700 9194.15957663 0 236.70748167 0 2150.12368421 0 -54.28262604 0 -358.44880028 0 27777
0.16050000 0.16050000 9073.31622356 0 4.66557873 0 2364.05207203 0 138.33319735 0 -207.95376135 0 28224
0.16150000 0.16150500 9117.49479959 0 -32.14539486 0 2477.23337633 0 502.15650411 0 11.68849969 0 28075
0.16250000 0.16249700 9075.70784572 0 40.60952284 0 2269.28404391 0 160.37598160 0 34.98168159 0 28590
0.16350000 0.16349900 9162.59237858 0 140.68606638 0 2562.88888112 0 209.64229088 0 354.15605995 0 29163
0.16450000 0.16449100 8940.52583201 0 109.47406850 0 2210.43463750 0 -72.60355902 0 435.45017600 0 28996
0.16550000 0.16550500 8801.75638506 0 230.69188760 0 2495.64665250 0 -121.36375234 0 807.30091825 0 30777
0.16650000 0.16650700 8705.88112446 0 303.55775000 0 2587.81268429 0 -180.08693425 0 646.31374431 0 29211
0.16750000 0.16749900 8616.98142849 0 164.91120585 0 2757.97217210 0 -21.14736534 0 706.04007885 0 30922
0.16850000 0.16850800 8461.59242198 0 56.77102032 0 2518.63279882 0 97.27535608 0 828.21432536 0 30867
0.16950000 0.16949900 8448.08418570 0 -53.96783985 0 2514.61354491 0 323.75699216 0 596.97103599 0 30852
0.17050000 0.17049200 8560.62329516 0 -39.95536989 0 2521.00227633 0 383.01275289 0 364.22191044 0 31257
0.17150000 0.17149500 8486.84839489 0 138.38191558 0 2413.33498980 0 66.98822949 0 829.77773763 0 32608
0.17250000 0.17250900 8299.47144199 0 208.77422062 0 2358.01765500 0 129.01694325 0 409.54647209 0 32361
0.17350000 0.17350400 8219.70641399 0 130.03227544 0 2194.99981670 0 11.70400095 0 916.17065926 0 32508
0.17450000 0.17449800 8067.15192264 0 28.28547170 0 2185.20080923 0 -31.15874000 0 314.66550625 0 32791
0.17550000 0.17549800 8210.56067369 0 75.87742403 0 2296.28944414 0 -120.98950776 0 302.19585404 0 33633
0.17650000 0.17650100 7951.71186408 0 222.79178384 0 2196.82675029 0 -178.60877888 0 -116.78091709 0 33984
0.17750000 0.17750300 7802.55657645 0 245.59966573 0 2158.33934922 0 -118.36204508 0 138.53803536 0 34069
