### header ###
fiducial parameters:
Omega_m = 0.31
Omega_nu = 0
Omega_de = 0.69
Omega_k = 0
H_0 = 100
w_de = -1
zeff = 0
beta = 0
fgrowth = 0
b_1 = 2
gamma = 0.55
Lx = 3500 Ly = 3500 Lz = 3500
nx = 700 ny = 700 nz = 700
xoffset = -685.467585 yoffset = -31.7331281 zoffset = 572.489161
bins = 400 dk = 0.001
kx_ny = 0.628318531 ky_ny = 0.628318531 kz_ny = 0.628318531
############################
A(data) = 8.06784385 (not used)
A(ran) = 8.0650356 (used)
Ngal = 479094
weighted Ngal = 0
Nran = 23820508
weighted Nran = 0
SN(data) = 3493.98338
SN(ran) = 70.249385
SN(data+ran) = 3564.23276
############################
13 columns: k_central k_mean P_0(k) sigma^{lin}_{P_0(k)} P^img_1(k) sigma^{lin}_{P_1(k)} P_2(k) sigma^{lin}_{P_2(k)} P^img_3(k) sigma^{lin}_{P_3(k)} P_4(k) sigma^{lin}_{P_4(k)} N_modes
### header ###
0.00050000 0 0 0 0 0 0 0 0 0 0 0 0
0.00150000 0.00179520 13175.73436444 0 -13914.70132284 0 21440.89267182 0 -31546.38208730 0 24983.70444404 0 3
0.00250000 0.00253879 20591.09174199 0 -7332.61389417 0 -14013.24501373 0 28404.83136651 0 43764.58180143 0 6
0.00350000 0.00331552 38169.07173108 0 -16934.12430089 0 4375.32880301 0 -16580.14207643 0 11867.20701738 0 7
0.00450000 0.00420575 43693.60819934 0 -11005.89086973 0 7298.32290421 0 -20706.46536660 0 10158.43727276 0 24
0.00550000 0.00557378 53366.61260741 0 4307.80976627 0 34360.19199346 0 10872.28112615 0 37604.38316533 0 45
0.00650000 0.00659388 52770.03574618 0 -2380.19552161 0 20759.72324898 0 26955.57477099 0 20899.67743468 0 40
0.00750000 0.00754703 54694.84869265 0 -3978.86206823 0 29358.26925664 0 58239.32131360 0 19326.41080120 0 57
0.00850000 0.00846663 64679.87121411 0 -2113.60715696 0 46944.77493584 0 23967.70791868 0 4827.38968071 0 75
0.00950000 0.00948925 76139.83812466 0 -10051.91043568 0 36688.36973308 0 21755.67886641 0 13475.57292053 0 112
0.01050000 0.01054430 84207.79832701 0 -11833.10425694 0 34965.73743780 0 -33100.93649184 0 1496.95617083 0 105
0.01150000 0.01145670 93204.83730490 0 2150.10153956 0 74817.13820182 0 -18972.98219299 0 7664.97186826 0 144
0.01250000 0.01249090 92912.63865293 0 15052.27197471 0 71018.77717278 0 -29980.97680444 0 3196.49159654 0 169
0.01350000 0.01339930 86153.64869064 0 14254.51097153 0 81928.11737010 0 9541.32124900 0 2695.23637968 0 180
0.01450000 0.01448870 75047.55328130 0 1492.69332578 0 62028.93520603 0 23019.80619096 0 -4548.04599786 0 267
0.01550000 0.01550050 82057.99574022 0 -11662.81190122 0 41056.84476703 0 59607.74993793 0 2880.07777020 0 238
0.01650000 0.01653350 88058.31000594 0 -9887.38676120 0 36689.03407257 0 42153.89071006 0 -29881.32588107 0 315
0.01750000 0.01747870 89949.24163847 0 -1120.20924655 0 16984.50337881 0 21533.45730730 0 -14554.23880437 0 297
0.01850000 0.01844180 86811.01261512 0 10688.77948693 0 16150.86804321 0 -3731.53954876 0 -1876.02828332 0 388
0.01950000 0.01947590 84559.23391675 0 9685.02895282 0 19736.64043573 0 -21713.27186236 0 9993.14960787 0 399
0.02050000 0.02045430 75013.33979761 0 6355.68053078 0 28035.23716406 0 -9254.13836018 0 8356.65999968 0 462
0.02150000 0.02154770 74620.49371304 0 4945.32101235 0 39350.37806598 0 3692.99678606 0 4443.98828921 0 571
0.02250000 0.02255340 69320.61471535 0 4105.13086046 0 38228.41939211 0 1234.87424237 0 -18570.17101609 0 510
0.02350000 0.02348930 66433.39529564 0 3402.22646400 0 31847.21715262 0 5448.85712813 0 -18050.54681235 0 555
0.02450000 0.02439640 64506.14643770 0 414.66742232 0 28027.37581344 0 4072.34570667 0 -19583.51018349 0 592
0.02550000 0.02547300 65573.51855022 0 -3553.08688965 0 23053.24461191 0 4236.69222396 0 -26976.61218815 0 837
0.02650000 0.02652900 65972.01152044 0 -2062.78518604 0 12611.93158468 0 3981.77408966 0 -22583.77803960 0 723
0.02750000 0.02749970 70294.75785289 0 467.15245642 0 9657.04918800 0 5852.18870430 0 -23309.12603847 0 826
0.02850000 0.02848090 66318.79673376 0 1611.89797477 0 1231.41967703 0 6543.58895527 0 -11443.35842332 0 831
0.02950000 0.02946900 66506.91553243 0 2276.61392294 0 1722.08975137 0 7933.64182998 0 -13654.39096635 0 996
0.03050000 0.03053250 62096.58711067 0 3487.89304112 0 1153.45943798 0 -88.03051847 0 -8769.36983497 0 1041
0.03150000 0.03150510 55405.02760652 0 5242.93403115 0 4049.73601939 0 406.54144313 0 -2211.17648326 0 1036
0.03250000 0.03246190 53943.92362345 0 4583.95354724 0 4040.66778537 0 832.49710060 0 -7135.57080170 0 1059
0.03350000 0.03345080 47756.70851479 0 193.61399348 0 6816.52176205 0 -267.95690401 0 -2872.20534726 0 1302
0.03450000 0.03451200 48202.59103524 0 2369.11212447 0 8870.03941222 0 -6175.06876833 0 -5490.32298457 0 1339
0.03550000 0.03553350 47333.19209048 0 1278.82029958 0 12956.05944004 0 -5063.28556097 0 -6884.66084899 0 1365
0.03650000 0.03647120 46384.51530002 0 126.25771991 0 13649.85131318 0 -3022.26856552 0 -3677.11907227 0 1308
0.03750000 0.03744890 46164.28675937 0 522.23727240 0 15860.33023997 0 -1315.99009400 0 -2297.58490614 0 1579
0.03850000 0.03847530 48776.13746085 0 2041.42667146 0 19111.60769972 0 2785.15472953 0 -3861.03038751 0 1662
0.03950000 0.03950240 45475.14526266 0 1673.49331774 0 16439.63427449 0 1446.48851431 0 -461.51442863 0 1683
0.04050000 0.04050350 45944.72255822 0 454.98840038 0 16518.91212019 0 1416.27213988 0 -2554.44069729 0 1822
0.04150000 0.04152450 44668.19422988 0 -1314.77213827 0 16727.84688951 0 482.25289301 0 -2060.70358897 0 1887
0.04250000 0.04250150 45276.17558567 0 499.16919087 0 16450.81732255 0 1918.29134716 0 -3664.97273195 0 1920
0.04350000 0.04349210 44980.21234327 0 222.43193328 0 14269.90150302 0 1220.67952196 0 -5216.75905528 0 2005
0.04450000 0.04448520 44457.93078157 0 1094.37861998 0 15404.26118069 0 420.41506613 0 -6783.63695734 0 2151
0.04550000 0.04548030 43273.96708872 0 2298.60356003 0 14905.45294761 0 744.23738501 0 -8340.45011614 0 2274
0.04650000 0.04648670 42094.76449553 0 1870.63606114 0 16647.79398108 0 68.53215447 0 -5122.79930687 0 2311
0.04750000 0.04749250 39687.86252645 0 1356.07190984 0 15626.48273980 0 1963.18962429 0 -2914.03659042 0 2568
0.04850000 0.04851840 38336.15311259 0 2061.30149451 0 17613.74359825 0 2707.75917905 0 -2941.97206594 0 2493
0.04950000 0.04949480 36667.33231593 0 2207.27902492 0 15875.05643198 0 330.77020270 0 -979.18768873 0 2644
0.05050000 0.05050630 35570.50781939 0 2085.06270357 0 16236.56783731 0 -1667.64713024 0 2546.02573042 0 2829
0.05150000 0.05149060 34419.31820800 0 -388.33300497 0 17421.52803940 0 63.09187839 0 2769.05556925 0 2784
0.05250000 0.05249300 35821.40669978 0 -1521.30421311 0 17342.25019370 0 345.47425006 0 3871.32764959 0 3055
0.05350000 0.05348950 38522.94323228 0 -1488.39726375 0 18823.39508469 0 1500.46609780 0 1360.79979254 0 3009
0.05450000 0.05448610 39957.03074279 0 -256.18480826 0 18256.15988423 0 -1440.43195263 0 1053.15192575 0 3336
0.05550000 0.05550870 38952.99232824 0 1423.00411337 0 20648.77855429 0 -1862.52004704 0 4587.50776351 0 3349
0.05650000 0.05647670 39291.03040495 0 939.78903533 0 21263.73547472 0 1663.53929773 0 3460.05721653 0 3324
0.05750000 0.05747970 37351.15909673 0 723.02834682 0 18502.62983470 0 3672.93373349 0 3232.56523080 0 3639
0.05850000 0.05849280 36894.20425146 0 -341.17597357 0 17825.22500229 0 4219.64084374 0 1233.51234642 0 3846
0.05950000 0.05951020 36724.90840498 0 576.67325013 0 14872.34669641 0 2273.17042992 0 -1504.92824470 0 3787
0.06050000 0.06049470 36195.98344840 0 721.70298954 0 16175.44860431 0 -42.54186497 0 -1357.98742203 0 3930
0.06150000 0.06148310 34628.03153083 0 1216.09557948 0 15090.58221858 0 -2149.43720007 0 -3179.91632629 0 4083
0.06250000 0.06249100 33454.25437680 0 2433.01051100 0 14138.91590042 0 -877.73086919 0 -486.30647113 0 4303
0.06350000 0.06350600 31744.90887130 0 1736.33983341 0 14563.31811072 0 -74.35885468 0 -1893.81043698 0 4470
0.06450000 0.06451750 30157.58038530 0 45.90940184 0 14488.46919494 0 2213.97778144 0 -2275.61741370 0 4479
0.06550000 0.06550280 30863.44109249 0 -286.89722284 0 14449.27316509 0 3089.69902367 0 -481.47561581 0 4636
0.06650000 0.06648880 30707.65348229 0 -19.21779129 0 12658.43534892 0 2950.18773095 0 -704.01162894 0 4653
0.06750000 0.06749660 30512.44839574 0 144.49273165 0 12196.83012723 0 2376.92918579 0 1140.57125189 0 5220
0.06850000 0.06852730 30506.02644734 0 512.69403564 0 12159.07349960 0 -355.55006565 0 776.46670809 0 5029
0.06950000 0.06949320 30573.56762874 0 1064.54534799 0 12884.75366821 0 236.07303746 0 2072.59526583 0 5040
0.07050000 0.07048030 29156.19932870 0 743.50993327 0 12416.39432838 0 -819.05419104 0 2715.12227505 0 5475
0.07150000 0.07148790 28738.10834355 0 899.53892015 0 13306.49852055 0 456.98031161 0 2286.83367874 0 5509
0.07250000 0.07249820 28168.54795488 0 590.56237439 0 13034.23005326 0 617.90105160 0 2170.90643789 0 5916
0.07350000 0.07351270 27507.53016320 0 221.25605239 0 12766.83340889 0 2244.01699867 0 1290.21372182 0 5721
0.07450000 0.07449140 27163.62375434 0 -238.08044995 0 11318.35187612 0 1369.89017121 0 890.56369365 0 6028
0.07550000 0.07549160 27853.42959054 0 9.59516596 0 10746.49951621 0 720.06539270 0 -941.53292649 0 6183
0.07650000 0.07648840 27490.58950623 0 313.72989481 0 9660.88021239 0 -596.34434241 0 -1365.67161546 0 6330
0.07750000 0.07749960 27846.45402590 0 412.13850333 0 10842.24190891 0 -1839.76641954 0 -1846.58697163 0 6583
0.07850000 0.07848650 26856.03457087 0 806.63547153 0 11768.22043350 0 -988.97230217 0 -1343.72626767 0 6549
0.07950000 0.07947320 26775.98166244 0 830.30699476 0 11245.16380907 0 602.90137317 0 -2771.20360026 0 6828
0.08050000 0.08048110 25656.56962327 0 448.68603309 0 11430.95741952 0 1403.06285637 0 -2107.47308901 0 7147
0.08150000 0.08149960 25379.87222605 0 691.81878485 0 10588.24277758 0 1950.27929356 0 -3125.55121143 0 7386
0.08250000 0.08250610 24566.49924488 0 682.45491975 0 9545.75017893 0 3155.72329656 0 -1951.99550390 0 7227
0.08350000 0.08350160 23842.25847849 0 614.66571828 0 8322.38008204 0 1372.99042216 0 -1815.44052191 0 7798
0.08450000 0.08449610 22741.22649852 0 498.42513064 0 7941.69141012 0 988.99555406 0 -1078.65924044 0 7371
0.08550000 0.08548940 22905.31835233 0 286.09005036 0 7496.01926385 0 778.46969165 0 -943.49715691 0 8256
0.08650000 0.08650700 22225.92050146 0 14.99126346 0 6949.81040822 0 170.16170228 0 -926.17339750 0 8037
0.08750000 0.08749060 22723.06788582 0 730.21317839 0 7533.94197635 0 593.24519869 0 1089.47247286 0 8155
0.08850000 0.08849210 22270.87414023 0 96.98038934 0 7424.56955179 0 -442.96496286 0 1206.06405320 0 8718
0.08950000 0.08949900 21384.86670824 0 513.16128774 0 7365.63156678 0 499.87228350 0 1902.81223706 0 8571
0.09050000 0.09049190 21544.08673913 0 695.76717588 0 8509.38057590 0 1352.25195778 0 2527.59030960 0 8932
0.09150000 0.09150830 20744.99705697 0 181.22184754 0 7058.34133609 0 591.14034974 0 1734.19180240 0 9285
0.09250000 0.09250820 20494.31962307 0 450.35684691 0 6652.60706544 0 1948.68487878 0 2136.42721841 0 9204
0.09350000 0.09350330 20262.02224838 0 386.36102392 0 5993.52693061 0 -320.39543435 0 1000.62924574 0 9349
0.09450000 0.09448040 19320.76391555 0 798.22825529 0 5930.54754704 0 -2.99532960 0 1707.78430770 0 9564
0.09550000 0.09549270 18925.81408926 0 914.27729172 0 5747.09019712 0 -853.96412396 0 1038.07474105 0 10155
0.09650000 0.09649430 18193.04763277 0 548.23287661 0 5946.82386452 0 -221.39002752 0 1112.20395571 0 9913
0.09750000 0.09749140 18137.13239243 0 -33.11278388 0 6412.24903827 0 -381.76047296 0 -183.15286099 0 10476
0.09850000 0.09850240 17983.44852395 0 100.79757333 0 6800.04614272 0 262.34987872 0 -250.73943891 0 10575
0.09950000 0.09950330 17787.24692816 0 318.50981743 0 6155.48182573 0 552.56437007 0 -903.85380513 0 10882
0.10050000 0.10051200 17389.19685093 0 346.79185671 0 5838.97942079 0 332.21735556 0 -146.89653337 0 10875
0.10150000 0.10150300 17038.64704717 0 543.29904867 0 5472.07579327 0 1213.05069016 0 246.57845925 0 11118
0.10250000 0.10250800 17175.39025868 0 -200.73349833 0 5150.91193958 0 444.74317822 0 -375.71609084 0 11575
0.10350000 0.10349800 16731.27931021 0 416.76230617 0 4653.49881943 0 1004.73929272 0 527.14895569 0 11364
0.10450000 0.10450100 16579.58846019 0 383.80331689 0 4687.85624334 0 363.26083265 0 248.56040539 0 12093
0.10550000 0.10551000 16155.18624989 0 207.71792083 0 4148.57866305 0 642.53918878 0 966.73021608 0 12067
0.10650000 0.10649700 15935.06843250 0 428.70048679 0 4430.90080128 0 606.11013290 0 520.84105224 0 12054
0.10750000 0.10749900 15967.84251396 0 77.37683825 0 3847.32284938 0 364.59947672 0 863.71884213 0 12807
0.10850000 0.10850100 15725.69077018 0 52.85916796 0 4299.12906361 0 -176.34448846 0 687.66223412 0 12736
0.10950000 0.10950300 15458.62629555 0 372.83950085 0 4175.57299096 0 -240.22405203 0 507.61737471 0 12933
0.11050000 0.11050200 15136.42164333 0 583.19374222 0 3959.09796843 0 -549.44529617 0 -215.13748569 0 13428
0.11150000 0.11150900 14938.44847557 0 195.42099689 0 4065.46979296 0 -319.27602231 0 419.61010812 0 13453
0.11250000 0.11250000 14834.70079202 0 -159.40161702 0 4796.60861771 0 97.49303798 0 -196.83493277 0 13668
0.11350000 0.11349100 14800.26586184 0 60.02340501 0 4621.30049886 0 -19.22089155 0 -1031.08921132 0 13791
0.11450000 0.11448600 14664.07626657 0 407.26446594 0 4614.61281467 0 -157.56804003 0 -62.64798889 0 14205
0.11550000 0.11549300 14405.42675880 0 359.44309505 0 4819.00793082 0 164.66982917 0 468.09581850 0 14776
0.11650000 0.11649800 14363.57337099 0 -122.42226659 0 4716.87680669 0 423.55185575 0 609.00997477 0 14553
0.11750000 0.11747300 14315.74092777 0 4.41906449 0 5091.65285715 0 339.94694551 0 744.68470693 0 14568
0.11850000 0.11849100 14448.83027209 0 333.82394989 0 5130.40599402 0 -133.67064137 0 493.40493857 0 16015
0.11950000 0.11950300 13866.53670988 0 374.23682824 0 5168.84910579 0 -235.20718166 0 622.71862013 0 15270
0.12050000 0.12050700 13603.67971869 0 417.81196257 0 5219.12853279 0 312.67027332 0 817.71776144 0 15999
0.12150000 0.12150000 13320.67109632 0 189.09427049 0 5061.85723107 0 863.60258272 0 628.77961073 0 15670
0.12250000 0.12250700 13380.35092709 0 -47.10798100 0 4426.13970160 0 507.62401810 0 774.78039302 0 16887
0.12350000 0.12352200 13375.92199717 0 139.48582637 0 4320.99690513 0 571.09058396 0 255.28794995 0 16407
0.12450000 0.12449800 13151.59669634 0 91.38332915 0 3735.25984990 0 -196.75742649 0 364.21083812 0 16306
0.12550000 0.12549900 13236.63215095 0 155.96808909 0 3902.36337606 0 -286.80310808 0 525.43274534 0 17523
0.12650000 0.12650100 13059.47495385 0 246.53970611 0 4463.02161558 0 -675.99864715 0 -14.27953443 0 17154
0.12750000 0.12750600 12907.78410383 0 137.55924185 0 4927.48349707 0 -481.34274791 0 697.33944601 0 18007
0.12850000 0.12850300 12773.69825028 0 179.42370199 0 4609.88493197 0 90.84499272 0 -128.17987550 0 17496
0.12950000 0.12949900 12821.97358649 0 74.64164185 0 4837.11118190 0 511.17601990 0 432.72638410 0 18405
0.13050000 0.13049000 12897.04394876 0 -29.13316889 0 4744.77906524 0 985.44908842 0 528.26504603 0 18100
0.13150000 0.13148800 12711.47178480 0 -85.72669985 0 4093.38312383 0 991.40267747 0 482.51641434 0 19059
0.13250000 0.13249300 12715.23637524 0 82.67671725 0 3726.99989558 0 627.40442799 0 350.08587335 0 18957
0.13350000 0.13349100 12461.56941364 0 366.78515364 0 3493.80566257 0 111.22371727 0 618.17896695 0 19468
0.13450000 0.13450700 12021.44450210 0 499.12047264 0 3726.87810001 0 119.38180619 0 545.62312965 0 19953
0.13550000 0.13551000 11708.98349572 0 243.90560004 0 3267.36554771 0 -321.29229266 0 730.45455508 0 19956
0.13650000 0.13649900 11671.22686809 0 177.22695274 0 3828.38917394 0 44.89916293 0 573.06920841 0 19723
0.13750000 0.13749600 11633.02734746 0 -21.06509797 0 3563.15163291 0 175.81190963 0 833.51243279 0 20946
0.13850000 0.13851100 11741.97902368 0 -48.95152309 0 4012.83196077 0 59.51241722 0 534.76228623 0 20955
0.13950000 0.13949800 11658.05080155 0 187.62940191 0 3775.16450854 0 38.14659491 0 524.22364747 0 20506
0.14050000 0.14048300 11501.82029836 0 360.04653676 0 4039.27267244 0 88.72785349 0 654.79735959 0 21447
0.14150000 0.14148400 11186.81265727 0 192.86771878 0 3700.68097949 0 79.62507381 0 1090.39811921 0 21771
0.14250000 0.14249400 11184.04457607 0 4.40320892 0 3930.61994900 0 273.32587431 0 868.07912364 0 22470
0.14350000 0.14350900 10998.32847188 0 155.74664260 0 3455.21861058 0 557.76282658 0 1116.96505538 0 22519
0.14450000 0.14449900 10957.41623168 0 172.43927949 0 3106.90541644 0 498.04756436 0 554.40016153 0 22218
0.14550000 0.14550500 10771.83299539 0 77.04787948 0 2573.86155502 0 308.45061033 0 485.52033607 0 23559
0.14650000 0.14650700 10611.35071947 0 166.48458321 0 2835.83276023 0 -174.39575929 0 251.19451146 0 23044
0.14750000 0.14750500 10472.99094854 0 260.95587302 0 2851.16793010 0 -323.64294722 0 -131.58129368 0 23649
0.14850000 0.14849900 10153.84225797 0 260.56723442 0 3022.08033600 0 -297.63959238 0 40.55493628 0 23640
0.14950000 0.14949500 10031.85845544 0 233.17762452 0 2948.95870290 0 -13.86808684 0 145.43277203 0 24457
0.15050000 0.15050000 9913.94926844 0 35.13093652 0 3111.12397219 0 259.02707404 0 397.33591228 0 24591
0.15150000 0.15149900 10013.52268554 0 49.27439208 0 3048.83107276 0 140.83000660 0 256.84471882 0 25020
0.15250000 0.15250500 9917.51455704 0 118.99538206 0 3341.26224355 0 238.33511342 0 619.15554600 0 25297
0.15350000 0.15350100 9719.57460625 0 264.29085726 0 3135.73775026 0 -74.68748128 0 357.16994677 0 25452
0.15450000 0.15450400 9577.58311278 0 126.97188486 0 3318.27609722 0 -154.23859196 0 856.45982598 0 26061
0.15550000 0.15549900 9541.03336855 0 123.66790313 0 3256.03855942 0 14.45857392 0 549.89151086 0 26128
0.15650000 0.15649500 9510.13050998 0 64.67832109 0 3298.32376790 0 3.37780092 0 808.93076446 0 26331
0.15750000 0.15749700 9423.10203691 0 100.60945453 0 3221.72542481 0 185.10823355 0 395.04615551 0 27345
0.15850000 0.15849900 9460.33826527 0 44.68026306 0 3142.63580863 0 252.04043708 0 372.55383487 0 26980
0.15950000 0.15949700 9274.04640020 0 155.21184931 0 3108.34481866 0 76.30581227 0 1.14971699 0 27777
0.16050000 0.16050000 9083.96780004 0 376.96615631 0 3050.28154731 0 -106.31635219 0 367.45945822 0 28224
0.16150000 0.16150500 8929.56423044 0 218.78803118 0 3065.37312604 0 -13.13997076 0 492.55015509 0 28075
0.16250000 0.16249700 8687.35712503 0 107.89759089 0 3016.99813891 0 190.46391707 0 794.86337578 0 28590
0.16350000 0.16349900 8828.62891740 0 -86.90634533 0 2993.05977265 0 475.10570734 0 435.69155268 0 29163
0.16450000 0.16449100 8803.53902936 0 -75.05940067 0 2773.17447408 0 281.05657150 0 589.65333652 0 28996
0.16550000 0.16550500 8883.79123964 0 6.09240279 0 2707.36057536 0 1.78020838 0 178.00201548 0 30777
0.16650000 0.16650700 8782.05871921 0 104.04165377 0 2853.50419064 0 -213.58403852 0 586.18216269 0 29211
0.16750000 0.16749900 8772.00504827 0 232.99936009 0 2724.94342717 0 -199.98611641 0 542.70446482 0 30922
0.16850000 0.16850800 8583.00046362 0 130.38548260 0 2845.38817655 0 77.02274531 0 625.22318000 0 30867
0.16950000 0.16949900 8584.24056400 0 50.33556369 0 2853.80314341 0 221.00471061 0 358.61377792 0 30852
0.17050000 0.17049200 8366.14898205 0 194.07460219 0 2789.37328529 0 382.83559570 0 315.77052427 0 31257
0.17150000 0.17149500 8286.32859243 0 148.98366660 0 2720.35948469 0 295.99313768 0 141.96713436 0 32608
0.17250000 0.17250900 8019.75130009 0 220.73011696 0 2375.00260127 0 136.66902693 0 322.61322101 0 32361
0.17350000 0.17350400 7986.18001124 0 76.09875980 0 2365.66863145 0 165.82910158 0 -28.06092496 0 32508
0.17450000 0.17449800 7919.49139886 0 67.16671537 0 2229.93300150 0 -62.10168038 0 226.22309730 0 32791
0.17550000 0.17549800 7840.90003730 0 79.69715464 0 2245.84393227 0 146.24215897 0 412.67772555 0 33633
0.17650000 0.17650100 7797.34151146 0 -79.11508253 0 2027.25409570 0 150.80506403 0 259.76781257 0 33984
0.17750000 0.17750300 7904.77627918 0 -11.42187811 0 2169.93207331 0 98.53760111 0 129.71339248 0 34069
0.17850000 0.17849800 7913.67842833 0 -9.72141261 0 2111.99059753 0 132.18916431 0 135.03807349 0 34536
