### header ###
fiducial parameters:
Omega_m = 0.31
Omega_nu = 0
Omega_de = 0.69
Omega_k = 0
H_0 = 100
w_de = -1
zeff = 0
beta = 0
fgrowth = 0
b_1 = 2
gamma = 0.55
Lx = 3500 Ly = 3500 Lz = 3500
nx = 700 ny = 700 nz = 700
xoffset = -685.467585 yoffset = -31.7331281 zoffset = 572.489161
bins = 400 dk = 0.001
kx_ny = 0.628318531 ky_ny = 0.628318531 kz_ny = 0.628318531
############################
A(data) = 8.02175227 (not used)
A(ran) = 8.01241907 (used)
Ngal = 475622
weighted Ngal = 0
Nran = 23820508
weighted Nran = 0
SN(data) = 3498.57899
SN(ran) = 69.7910759
SN(data+ran) = 3568.37006
############################
13 columns: k_central k_mean P_0(k) sigma^{lin}_{P_0(k)} P^img_1(k) sigma^{lin}_{P_1(k)} P_2(k) sigma^{lin}_{P_2(k)} P^img_3(k) sigma^{lin}_{P_3(k)} P_4(k) sigma^{lin}_{P_4(k)} N_modes
### header ###
0.00050000 0 0 0 0 0 0 0 0 0 0 0 0
0.00150000 0.00179520 13520.19438955 0 -20942.41660848 0 10195.06452326 0 -77198.79527031 0 -34053.82076573 0 3
0.00250000 0.00253879 27070.83767236 0 -27273.57193979 0 -19901.39662903 0 -18971.09989777 0 -40736.41168678 0 6
0.00350000 0.00331552 38782.36780278 0 -24676.33670708 0 -17440.90460784 0 -2636.92951718 0 6797.10090432 0 7
0.00450000 0.00420575 57352.76026537 0 -20640.36358743 0 -21424.94852408 0 -32382.45333436 0 4581.17439371 0 24
0.00550000 0.00557378 70086.26597656 0 -6095.90164588 0 -2551.73905003 0 -54417.15478620 0 -7746.84063796 0 45
0.00650000 0.00659388 94500.18858543 0 -1860.56024555 0 -1302.73652119 0 -79316.93100812 0 -923.07646825 0 40
0.00750000 0.00754703 70888.67735616 0 9231.41794965 0 20616.11519608 0 -24343.39189978 0 -6145.28421457 0 57
0.00850000 0.00846663 77469.18144238 0 1465.53291300 0 -2506.06571015 0 14617.90467207 0 -705.87953014 0 75
0.00950000 0.00948925 75535.17846631 0 -12764.72966718 0 -5790.00652812 0 11994.20658305 0 -41796.69751141 0 112
0.01050000 0.01054430 88470.86482869 0 -16174.89498807 0 -28958.44760744 0 7836.74791549 0 -54261.58862250 0 105
0.01150000 0.01145670 96902.55090133 0 -15940.05097867 0 -40779.15086058 0 -17259.65065055 0 -60988.57956607 0 144
0.01250000 0.01249090 99762.31095549 0 1130.32935144 0 -18094.61466513 0 -37982.17088814 0 -38137.18343560 0 169
0.01350000 0.01339930 97851.22769179 0 10245.46574584 0 -30146.50806048 0 -26920.14333157 0 -40380.21499736 0 180
0.01450000 0.01448870 90615.57414606 0 12470.20582700 0 -1369.40298892 0 -21531.24284234 0 -4174.83114520 0 267
0.01550000 0.01550050 81071.00870589 0 3943.08738674 0 791.63690033 0 -7494.08160700 0 -13911.71179514 0 238
0.01650000 0.01653350 76505.11412042 0 8786.93054213 0 14662.96903409 0 3598.98167603 0 -18256.15988423 0 315
0.01750000 0.01747870 75750.20301429 0 7147.28532136 0 13569.79840474 0 -27.31907919 0 -8992.76506051 0 297
0.01850000 0.01844180 66649.52707610 0 -2733.43590030 0 5451.33732889 0 16017.11435941 0 7040.97993078 0 388
0.01950000 0.01947590 72143.39320461 0 -12662.75355560 0 14368.00230092 0 8877.21427870 0 -5620.36743957 0 399
0.02050000 0.02045430 80803.39061502 0 -6391.66558644 0 1453.54158522 0 11090.70487785 0 -15888.56466826 0 462
0.02150000 0.02154770 81528.40644415 0 6701.34743929 0 2171.09466741 0 -19645.29375598 0 -12667.07176228 0 571
0.02250000 0.02255340 70985.44947508 0 16275.43169742 0 -4560.95632860 0 -14846.32673308 0 6228.41522931 0 510
0.02350000 0.02348930 73263.46958327 0 4568.69588364 0 8913.96332477 0 -15371.15492949 0 8329.57709317 0 555
0.02450000 0.02439640 60808.10067152 0 -2678.52824153 0 -1176.35700571 0 8089.29657228 0 5310.34234465 0 592
0.02550000 0.02547300 70269.51295231 0 -3500.61514234 0 14507.40287038 0 13547.76447835 0 -9547.63247414 0 837
0.02650000 0.02652900 70771.97505258 0 -4119.00448346 0 4481.43489175 0 5340.27083863 0 -56.20898911 0 723
0.02750000 0.02749970 74977.13329545 0 -1575.25965195 0 13728.02192640 0 4834.18808815 0 -3983.50137233 0 826
0.02850000 0.02848090 70685.16802600 0 6044.62570965 0 5240.33203482 0 -3468.08465202 0 13673.87825804 0 831
0.02950000 0.02946900 69202.58373278 0 3328.68408255 0 10367.60456091 0 -9115.77858924 0 1113.20046494 0 996
0.03050000 0.03053250 64215.49791121 0 4237.04653835 0 10719.92593664 0 -7935.34696800 0 2939.96797515 0 1041
0.03150000 0.03150510 62577.67962404 0 6732.70426317 0 23833.28989538 0 -8884.88739980 0 -29.00417631 0 1036
0.03250000 0.03246190 55111.72172207 0 5062.28905173 0 21331.05520962 0 -9745.76065445 0 -4440.64444712 0 1059
0.03350000 0.03345080 55935.61341183 0 5015.35346683 0 27050.46459469 0 -882.39342517 0 -4954.32281243 0 1302
0.03450000 0.03451200 49540.90293607 0 1632.03853362 0 26927.78323570 0 -970.29993360 0 -3570.92440494 0 1339
0.03550000 0.03553350 50949.30265300 0 1011.00179963 0 30799.11088529 0 4486.72746301 0 -3442.35256914 0 1365
0.03650000 0.03647120 47605.46055777 0 1027.86605756 0 29845.78371841 0 3661.79497472 0 -4823.84653677 0 1308
0.03750000 0.03744890 46394.25894586 0 2739.69176383 0 32110.84920656 0 3686.20945095 0 -4387.79624076 0 1579
0.03850000 0.03847530 47125.36455363 0 -939.29410241 0 27219.09610168 0 2658.24374246 0 566.47674621 0 1662
0.03950000 0.03950240 47080.52163812 0 -1106.18836163 0 26404.17299503 0 2499.12336249 0 2643.78328625 0 1683
0.04050000 0.04050350 49584.19572611 0 -647.22167495 0 28199.88263411 0 5212.48513790 0 726.91805453 0 1822
0.04150000 0.04152450 48998.80191295 0 -1551.66452776 0 24467.06976800 0 3764.42435347 0 -4287.39239930 0 1887
0.04250000 0.04250150 49477.67996135 0 2126.84965744 0 19423.51508986 0 416.12675473 0 -1376.30104728 0 1920
0.04350000 0.04349210 48533.76427057 0 2069.80503997 0 21391.95299612 0 2005.02086746 0 -4190.80850991 0 2005
0.04450000 0.04448520 45267.76061881 0 867.51997124 0 19548.30019057 0 -571.57665902 0 -2708.72247131 0 2151
0.04550000 0.04548030 45184.05384318 0 2542.81475623 0 22161.92246401 0 4951.18934450 0 -1041.30896713 0 2274
0.04650000 0.04648670 42395.15666786 0 1502.90200926 0 16852.52126697 0 5304.48508482 0 -458.41307044 0 2311
0.04750000 0.04749250 41846.41224985 0 609.63999005 0 15069.43407818 0 2922.69514843 0 2627.57340271 0 2568
0.04850000 0.04851840 40119.68319438 0 2736.72438078 0 18083.87451005 0 2190.53766980 0 3927.06573273 0 2493
0.04950000 0.04949480 38969.82226196 0 1687.48873631 0 15081.50291223 0 2494.11867167 0 7936.43205583 0 2644
0.05050000 0.05050630 37145.65674809 0 434.58653467 0 16933.34923815 0 2992.47293944 0 8552.19725597 0 2829
0.05150000 0.05149060 36725.90491422 0 146.84781514 0 16104.03210923 0 3096.22062299 0 8992.33323984 0 2784
0.05250000 0.05249300 37315.39548756 0 -1019.47987875 0 14395.35094322 0 4398.61390211 0 7763.69271634 0 3055
0.05350000 0.05348950 37423.23993129 0 -547.20647209 0 11616.64030673 0 1926.17484243 0 7570.63566080 0 3009
0.05450000 0.05448610 38414.32372581 0 -316.27099335 0 12132.94281302 0 248.69991668 0 6985.24184764 0 3336
0.05550000 0.05550870 38727.89196468 0 158.82696336 0 10896.66238540 0 -1452.85510108 0 3951.03731596 0 3349
0.05650000 0.05647670 37353.26283844 0 2328.91958538 0 11405.26962594 0 -4293.09464658 0 3981.80730663 0 3324
0.05750000 0.05747970 35901.34888497 0 1889.18220521 0 11586.19141348 0 -2401.62047014 0 675.58786390 0 3639
0.05850000 0.05849280 34882.58427841 0 659.30268856 0 12103.93332200 0 -594.54841132 0 1467.92453516 0 3846
0.05950000 0.05951020 34272.38845765 0 109.48990192 0 12448.50407036 0 615.56036213 0 -3040.03964686 0 3787
0.06050000 0.06049470 33933.35387171 0 350.90633262 0 12252.30247457 0 3158.70175194 0 -1246.05729044 0 3930
0.06150000 0.06148310 34086.48412395 0 1064.94284445 0 10817.90493896 0 1233.85558849 0 -2356.79969927 0 4083
0.06250000 0.06249100 33910.32343608 0 796.86746657 0 11087.93679664 0 1252.43494954 0 568.14645279 0 4303
0.06350000 0.06350600 32695.68940348 0 -299.34030147 0 11034.87821611 0 1576.31152281 0 1505.96904323 0 4470
0.06450000 0.06451750 33562.09882054 0 -558.89220371 0 10938.54899019 0 1754.67560331 0 2045.08053865 0 4479
0.06550000 0.06550280 33375.08725435 0 670.99617080 0 10434.54783677 0 2179.24389848 0 4886.12836387 0 4636
0.06650000 0.06648880 32663.02604526 0 1024.02506808 0 10319.65032212 0 926.97392658 0 3300.48287124 0 4653
0.06750000 0.06749660 31384.83686820 0 1654.23854488 0 9807.05704465 0 362.09048792 0 4922.24628743 0 5220
0.06850000 0.06852730 29949.75284845 0 1416.72610520 0 9756.00255491 0 421.24991942 0 1649.49958986 0 5029
0.06950000 0.06949320 28747.96271264 0 300.09321956 0 11057.20002294 0 -1546.56018602 0 -93.01760429 0 5040
0.07050000 0.07048030 29155.97788220 0 -195.59261792 0 10154.28515096 0 -1100.43850336 0 -2156.64528353 0 5475
0.07150000 0.07148790 28686.73275639 0 492.97422513 0 11287.79225962 0 -1173.69964775 0 -1304.89562453 0 5509
0.07250000 0.07249820 28499.49974371 0 795.94735638 0 10592.26203148 0 -501.05148609 0 -2973.96001234 0 5916
0.07350000 0.07351270 28184.38137937 0 566.67383359 0 10613.69805233 0 675.77166449 0 -2623.23305138 0 5721
0.07450000 0.07449140 27663.42849665 0 391.36903643 0 10120.07166727 0 872.43386899 0 -2262.46349182 0 6028
0.07550000 0.07549160 26698.91828170 0 784.76209385 0 10791.97355424 0 949.79620250 0 -3390.93269268 0 6183
0.07650000 0.07648840 26333.75300918 0 1008.37987312 0 10393.18163125 0 1263.97231200 0 -362.84340600 0 6330
0.07750000 0.07749960 25759.76369058 0 681.95334344 0 10737.56415008 0 1163.55739822 0 632.94169763 0 6583
0.07850000 0.07848650 25178.79880735 0 568.97023376 0 10277.02187157 0 1876.53761026 0 3327.53256077 0 6549
0.07950000 0.07947320 24804.99712147 0 -56.94031617 0 9294.17588672 0 2334.41145849 0 926.83109359 0 6828
0.08050000 0.08048110 24939.74731451 0 42.79475687 0 8676.16300464 0 1140.48267330 0 2138.87420219 0 7147
0.08150000 0.08149960 24063.81569811 0 204.66306641 0 6895.55601661 0 1840.40861438 0 1643.62018538 0 7386
0.08250000 0.08250610 24447.80392282 0 288.34548293 0 6662.30642198 0 296.70951710 0 1766.54513552 0 7227
0.08350000 0.08350160 24048.97878285 0 364.65483834 0 6320.76949062 0 -45.25790625 0 308.52036598 0 7798
0.08450000 0.08449610 23140.16236174 0 298.58849062 0 6669.99061540 0 -269.93995738 0 465.45617626 0 7371
0.08550000 0.08548940 22730.26489695 0 1183.65366776 0 6041.43688010 0 -608.21830354 0 87.73045847 0 8256
0.08650000 0.08650700 22113.86857430 0 879.95529924 0 6953.95145770 0 -663.77922948 0 -863.41656766 0 8037
0.08750000 0.08749060 21610.96358103 0 264.23771010 0 6852.40716679 0 -280.54945902 0 -1517.45104407 0 8155
0.08850000 0.08849210 21131.97480938 0 426.17156780 0 7291.98953441 0 64.66270911 0 -1621.13229367 0 8718
0.08950000 0.08949900 20946.40264542 0 844.16511650 0 6942.73519266 0 -121.26410141 0 -1050.80902182 0 8571
0.09050000 0.09049190 20535.95156439 0 163.93130510 0 6940.09997935 0 -150.45517857 0 -914.68807497 0 8932
0.09150000 0.09150830 20665.94065776 0 -464.58256983 0 7045.65245185 0 1096.40264096 0 -778.20174139 0 9285
0.09250000 0.09250820 20556.65681180 0 226.92951162 0 7155.01380408 0 603.96874528 0 -415.44912845 0 9204
0.09350000 0.09350330 20701.15065069 0 225.00624880 0 6587.20284273 0 307.01342257 0 -734.82923061 0 9349
0.09450000 0.09448040 20533.18348319 0 325.51195565 0 7267.57505819 0 364.41567613 0 1242.27055535 0 9564
0.09550000 0.09549270 20463.53856008 0 610.50584585 0 7690.12819024 0 -932.59091697 0 287.50841517 0 10155
0.09650000 0.09649430 19749.59505577 0 825.29344608 0 8717.36312529 0 -828.66054005 0 1796.26325533 0 9913
0.09750000 0.09749140 19231.18880776 0 812.17384840 0 9158.24095492 0 -827.12148691 0 1151.78751693 0 10476
0.09850000 0.09850240 18742.89928326 0 659.95484849 0 9397.94571492 0 -237.55119282 0 1766.56728017 0 10575
0.09950000 0.09950330 18439.51758323 0 45.49906148 0 9618.26283416 0 842.12227257 0 603.94881509 0 10882
0.10050000 0.10051200 17563.03235058 0 283.02965978 0 8298.81817482 0 1035.00770707 0 -9.73590629 0 10875
0.10150000 0.10150300 17844.71229397 0 153.97396339 0 8096.00640112 0 1202.31053508 0 -1210.00580083 0 11118
0.10250000 0.10250800 17090.79769707 0 206.56197012 0 7085.75641234 0 1381.67112482 0 -1112.01572619 0 11575
0.10350000 0.10349800 16658.64485940 0 578.66073244 0 6173.13111149 0 873.48241815 0 -655.90016314 0 11364
0.10450000 0.10450100 16150.42515022 0 275.18159595 0 5379.07933712 0 657.56101186 0 -581.96249970 0 12093
0.10550000 0.10551000 16183.97429442 0 242.19824755 0 5454.76974958 0 429.45451211 0 -616.43839749 0 12067
0.10650000 0.10649700 15921.00657998 0 270.36956358 0 6051.75628683 0 -651.34057978 0 -266.13882827 0 12054
0.10750000 0.10749900 15751.26784051 0 375.49132264 0 6025.44844306 0 -768.68618544 0 378.98574836 0 12807
0.10850000 0.10850100 15598.24831152 0 335.49365647 0 6529.71533227 0 383.16333651 0 853.75264256 0 12736
0.10950000 0.10950300 15491.17893052 0 -37.86480425 0 6256.01853508 0 198.99957227 0 156.84169552 0 12933
0.11050000 0.11050200 15390.86366766 0 67.62068069 0 6698.72329831 0 705.87510121 0 -201.88723458 0 13428
0.11150000 0.11150900 15003.00012927 0 454.19008576 0 6363.54188140 0 720.54482436 0 -24.24374098 0 13453
0.11250000 0.11250000 14902.57414316 0 463.29153676 0 6149.43633638 0 502.41559651 0 782.35829213 0 13668
0.11350000 0.11349100 14369.88459614 0 302.89008881 0 5432.94619736 0 324.92955136 0 303.37173494 0 13791
0.11450000 0.11448600 14133.49046126 0 333.20611416 0 5825.15008709 0 221.24276560 0 387.13497942 0 14205
0.11550000 0.11549300 14137.14432845 0 7.89795573 0 5185.19185722 0 254.90927644 0 816.26175072 0 14776
0.11650000 0.11649800 14084.32933906 0 -206.03160576 0 4875.37713647 0 145.70072229 0 469.80538545 0 14553
0.11750000 0.11747300 14196.93488247 0 -198.38727271 0 4538.73417269 0 232.26637219 0 -67.32626757 0 14568
0.11850000 0.11849100 14627.75904116 0 -94.62021259 0 4941.81108538 0 415.79901391 0 -624.48133424 0 16015
0.11950000 0.11950300 14205.12840283 0 372.81071281 0 4407.71535311 0 38.22188672 0 -553.02830048 0 15270
0.12050000 0.12050700 14071.59616552 0 161.46439113 0 4003.95195627 0 361.53465721 0 -323.71713179 0 15999
0.12150000 0.12150000 14133.37973801 0 -73.98494227 0 4097.71240283 0 759.57476935 0 -70.88159107 0 15670
0.12250000 0.12250700 14145.22712557 0 -0.32164882 0 3694.56905619 0 492.22241428 0 -217.31430475 0 16887
0.12350000 0.12352200 14045.02258596 0 244.24773487 0 4132.76738321 0 310.84444696 0 712.35241123 0 16407
0.12450000 0.12449800 14156.63162013 0 105.39967441 0 3879.69832715 0 18.85030083 0 594.23063560 0 16306
0.12550000 0.12549900 13973.93826062 0 200.06251545 0 4673.21862993 0 -71.35039330 0 1501.51796866 0 17523
0.12650000 0.12650100 13602.01886996 0 410.50312095 0 4509.11570380 0 -536.27365857 0 1128.59099644 0 17154
0.12750000 0.12750600 13442.57739257 0 250.20686009 0 4835.99287709 0 140.62738306 0 1257.15175991 0 18007
0.12850000 0.12850300 13163.66553039 0 198.40055950 0 4639.01621857 0 382.10814396 0 347.48941318 0 17496
0.12950000 0.12949900 13035.55873224 0 46.37953275 0 4046.83507029 0 219.43022602 0 70.62194505 0 18405
0.13050000 0.13049000 12920.73872387 0 103.50099215 0 3892.94082764 0 204.46155010 0 -778.20284862 0 18100
0.13150000 0.13148800 12936.90431811 0 70.28357480 0 3644.50000336 0 -197.62992569 0 -1183.99690983 0 19059
0.13250000 0.13249300 12746.34960798 0 272.89294641 0 3380.87902175 0 90.33057251 0 -947.12445052 0 18957
0.13350000 0.13349100 12478.73151711 0 222.38432229 0 3340.36538524 0 224.43159514 0 -936.44519323 0 19468
0.13450000 0.13450700 12362.69355301 0 110.90151262 0 3154.13995411 0 682.42170278 0 -265.47227432 0 19953
0.13550000 0.13551000 12367.01175969 0 -14.10636327 0 2882.60226026 0 695.15598355 0 -567.09679640 0 19956
0.13650000 0.13649900 12145.78670981 0 174.11009331 0 2729.95919031 0 749.36276417 0 -67.97145194 0 19723
0.13750000 0.13749600 12119.87746974 0 300.99339957 0 2880.13313183 0 58.65940532 0 5.67432288 0 20946
0.13850000 0.13851100 11596.37795231 0 509.82298181 0 2506.69683267 0 -317.55981196 0 231.94416753 0 20955
0.13950000 0.13949800 11431.17886602 0 229.00446529 0 2756.96459054 0 -155.71231839 0 400.44059216 0 20506
0.14050000 0.14048300 11322.67008280 0 92.80612289 0 2957.21865721 0 -62.91992518 0 152.60542405 0 21447
0.14150000 0.14148400 11221.02614096 0 90.30809569 0 2936.26981866 0 157.52817966 0 226.11569575 0 21771
0.14250000 0.14249400 11291.00323381 0 222.49172384 0 2977.63602418 0 28.21283725 0 99.00596045 0 22470
0.14350000 0.14350900 10879.41170333 0 199.30295397 0 2917.82332551 0 -7.00470699 0 847.96292391 0 22519
0.14450000 0.14449900 10987.66582308 0 16.80147785 0 2997.84301697 0 448.66610291 0 997.40941369 0 22218
0.14550000 0.14550500 10825.22374567 0 -9.03314583 0 3053.20464107 0 385.86055484 0 1046.00916901 0 23559
0.14650000 0.14650700 10936.47846545 0 49.45431736 0 3115.15429843 0 228.07660447 0 446.06078488 0 23044
0.14750000 0.14750500 10897.31565256 0 92.96988257 0 3020.38627030 0 -168.35802056 0 863.12425829 0 23649
0.14850000 0.14849900 10641.45637065 0 179.89206133 0 3182.83942004 0 -223.66096134 0 768.85780648 0 23640
0.14950000 0.14949500 10695.73290691 0 331.24188374 0 2940.15620467 0 -146.06610901 0 860.82010749 0 24457
0.15050000 0.15050000 10447.61318005 0 183.90688631 0 3245.65271874 0 -155.11330562 0 797.55173624 0 24591
0.15150000 0.15149900 10269.17159328 0 268.81500918 0 3165.25656823 0 57.96151668 0 648.67879290 0 25020
0.15250000 0.15250500 10098.30347667 0 197.19921225 0 3388.30855170 0 -69.42989856 0 973.58619961 0 25297
0.15350000 0.15350100 10016.16897117 0 101.62832986 0 3589.93558665 0 44.20703190 0 692.24839106 0 25452
0.15450000 0.15450400 9916.38517990 0 20.47250714 0 3374.31313313 0 161.90396243 0 849.03804665 0 26061
0.15550000 0.15549900 9937.97621330 0 233.07686636 0 3707.53474855 0 4.90288079 0 893.35724120 0 26128
0.15650000 0.15649500 9772.17922147 0 145.23347018 0 3400.52132598 0 -125.70188920 0 765.61915147 0 26331
0.15750000 0.15749700 9625.17196485 0 174.57845265 0 3522.46083921 0 418.70107025 0 833.52129065 0 27345
0.15850000 0.15849900 9402.96147806 0 144.73743003 0 3126.59200996 0 169.46082412 0 374.64428980 0 26980
0.15950000 0.15949700 9403.90262567 0 10.47051075 0 3233.56174004 0 203.46946980 0 245.31510698 0 27777
0.16050000 0.16050000 9318.91146037 0 28.32046025 0 3004.46426721 0 59.46702069 0 329.23779295 0 28224
0.16150000 0.16150500 9330.51525678 0 130.66007625 0 3141.36249127 0 3.68151479 0 309.50580289 0 28075
0.16250000 0.16249700 9231.69475777 0 144.95776929 0 3163.50714091 0 -103.81456039 0 407.12606188 0 28590
0.16350000 0.16349900 8997.54830483 0 295.74511760 0 3211.67175387 0 75.90322254 0 225.98725678 0 29163
0.16450000 0.16449100 8802.21035038 0 103.34199357 0 3162.24489588 0 291.52213292 0 678.25961588 0 28996
0.16550000 0.16550500 8886.40430830 0 -12.63739793 0 3147.08688320 0 491.70422948 0 653.58272556 0 30777
0.16650000 0.16650700 8798.72256806 0 10.54139577 0 2858.60853238 0 376.95840568 0 576.22260651 0 29211
0.16750000 0.16749900 8824.03390260 0 42.19020794 0 2629.34497468 0 264.77803955 0 745.33797410 0 30922
0.16850000 0.16850800 8726.90746929 0 228.58593142 0 2410.01329235 0 75.13336380 0 719.67453963 0 30867
0.16950000 0.16949900 8599.63109550 0 142.30705473 0 2303.75219107 0 36.52350282 0 393.20150619 0 30852
0.17050000 0.17049200 8462.91002864 0 125.97094669 0 2382.35462495 0 -152.82687054 0 216.89134194 0 31257
0.17150000 0.17149500 8235.92736985 0 316.07279874 0 2254.11495890 0 -93.24248321 0 354.36532689 0 32608
0.17250000 0.17250900 7964.10179556 0 232.62290104 0 2309.04476233 0 67.91121849 0 284.19889728 0 32361
0.17350000 0.17350400 7922.29269704 0 134.63061193 0 2242.25649902 0 182.12867094 0 428.44914502 0 32508
0.17450000 0.17449800 7821.13593750 0 -5.03397712 0 2173.82953164 0 473.80581641 0 539.25211395 0 32791
0.17550000 0.17549800 7844.65355541 0 -68.58319788 0 2122.90790980 0 344.80991057 0 476.64697496 0 33633
0.17650000 0.17650100 7882.57626792 0 -51.26663548 0 1829.96741208 0 167.45341163 0 556.19609262 0 33984
0.17750000 0.17750300 7904.59912198 0 29.95672841 0 2010.34665570 0 -48.42625200 0 557.84476178 0 34069
0.17850000 0.17849800 7876.40898299 0 142.53293016 0 1773.48748318 0 70.47180433 0 500.93301221 0 34536
