### header ###
fiducial parameters:
Omega_m = 0.31
Omega_nu = 0
Omega_de = 0.69
Omega_k = 0
H_0 = 100
w_de = -1
zeff = 0
beta = 0
fgrowth = 0
b_1 = 2
gamma = 0.55
Lx = 3500 Ly = 3500 Lz = 3500
nx = 700 ny = 700 nz = 700
xoffset = -685.467585 yoffset = -31.7331281 zoffset = 572.489161
bins = 400 dk = 0.001
kx_ny = 0.628318531 ky_ny = 0.628318531 kz_ny = 0.628318531
############################
A(data) = 8.02241281 (not used)
A(ran) = 8.02644174 (used)
Ngal = 476936
weighted Ngal = 0
Nran = 23820508
weighted Nran = 0
SN(data) = 3482.16742
SN(ran) = 69.9132185
SN(data+ran) = 3552.08064
############################
13 columns: k_central k_mean P_0(k) sigma^{lin}_{P_0(k)} P^img_1(k) sigma^{lin}_{P_1(k)} P_2(k) sigma^{lin}_{P_2(k)} P^img_3(k) sigma^{lin}_{P_3(k)} P_4(k) sigma^{lin}_{P_4(k)} N_modes
### header ###
0.00050000 0 0 0 0 0 0 0 0 0 0 0 0
0.00150000 0.00179520 20673.35911539 0 -33216.64228619 0 16288.60776396 0 -58264.67693743 0 -31506.41099471 0 3
0.00250000 0.00253879 25176.03072614 0 -11164.00366814 0 6201.76414347 0 -32174.84724401 0 21861.75173818 0 6
0.00350000 0.00331552 60305.97074100 0 -5227.22240223 0 41872.54293642 0 -62274.18720076 0 -29256.95748455 0 7
0.00450000 0.00420575 53597.69202637 0 20286.71353272 0 60876.30619241 0 -68016.51629821 0 48480.94928118 0 24
0.00550000 0.00557378 55867.62933744 0 750.88520883 0 95193.09467258 0 -15614.74607550 0 28757.37418873 0 45
0.00650000 0.00659388 57629.90055558 0 -43943.62129375 0 71038.48591096 0 12917.52774967 0 3695.88666284 0 40
0.00750000 0.00754703 116584.93694545 0 -27355.28569695 0 102417.78661675 0 77298.33547043 0 -43260.68029893 0 57
0.00850000 0.00846663 109196.37459397 0 -4143.77327408 0 51152.47981342 0 47664.14387931 0 -24233.99733057 0 75
0.00950000 0.00948925 103084.89418707 0 27104.38681656 0 30400.39646857 0 29850.76626457 0 -29785.66099464 0 112
0.01050000 0.01054430 79505.82486952 0 16824.28683868 0 11641.66376082 0 8460.64020205 0 -2588.82026585 0 105
0.01150000 0.01145670 65089.10433941 0 8206.60785373 0 9838.32528993 0 4248.48424989 0 2783.01777084 0 144
0.01250000 0.01249090 61009.61698322 0 4434.36643894 0 20169.34688965 0 -20805.67339697 0 12680.80144505 0 169
0.01350000 0.01339930 66245.38722022 0 -2673.32424886 0 26453.99845671 0 -8494.87583039 0 10389.80457218 0 180
0.01450000 0.01448870 69311.09251600 0 -2826.35485018 0 42452.28986392 0 -5356.73538564 0 35215.30763921 0 267
0.01550000 0.01550050 68617.63281261 0 1942.62831711 0 37486.46290601 0 12981.19361738 0 29842.90491395 0 238
0.01650000 0.01653350 80322.29810165 0 -3722.83670145 0 51312.58563030 0 23368.91659249 0 26531.83690018 0 315
0.01750000 0.01747870 82786.11182030 0 -5748.55174399 0 40463.25743350 0 23165.62870882 0 25423.49718584 0 297
0.01850000 0.01844180 77737.02097974 0 264.46137106 0 34166.64775563 0 7041.94322303 0 22424.55800871 0 388
0.01950000 0.01947590 82383.85425963 0 4281.85623689 0 37541.93525335 0 1336.63997978 0 29747.12930427 0 399
0.02050000 0.02045430 76910.36120878 0 4264.30660205 0 36035.21329203 0 3415.59076006 0 20104.35234296 0 462
0.02150000 0.02154770 76811.04245516 0 3760.78155860 0 28188.47813955 0 3147.79551199 0 14621.33709277 0 571
0.02250000 0.02255340 73149.75680738 0 1977.19611519 0 28413.91067286 0 2045.04732168 0 12364.46512498 0 510
0.02350000 0.02348930 74002.65798816 0 562.26151215 0 24786.72778552 0 5659.85134987 0 17102.86653112 0 555
0.02450000 0.02439640 78371.46519185 0 -2781.60051327 0 25345.54801912 0 9922.29780136 0 6793.29202458 0 592
0.02550000 0.02547300 79098.91693244 0 -3841.26628771 0 27690.88786220 0 4065.08226159 0 -9422.93595204 0 837
0.02650000 0.02652900 79279.17438049 0 6377.12762395 0 31195.72156030 0 -1218.15503190 0 290.14916464 0 723
0.02750000 0.02749970 69371.32596302 0 9621.00877072 0 20834.12927176 0 -116.77980986 0 -5433.56624755 0 826
0.02850000 0.02848090 70005.88089837 0 2177.39482024 0 21644.06983224 0 5925.80859202 0 6368.03724527 0 831
0.02950000 0.02946900 65162.40312970 0 -2187.59243139 0 15424.85570486 0 7071.58383657 0 2154.04328719 0 996
0.03050000 0.03053250 65526.68261624 0 2129.65095562 0 16212.31944596 0 6874.13106808 0 -11443.57986982 0 1041
0.03150000 0.03150510 62380.48151902 0 7710.92201625 0 16550.68969242 0 -8537.86966766 0 -4957.54485895 0 1036
0.03250000 0.03246190 55036.31919006 0 6770.50518011 0 17343.46814943 0 -3201.75095083 0 -4377.96401632 0 1059
0.03350000 0.03345080 52441.51986881 0 4070.10909706 0 20327.34896481 0 -2986.63782426 0 -5714.85865957 0 1302
0.03450000 0.03451200 46482.83754441 0 4559.20690127 0 21941.47247687 0 -936.89030069 0 -2532.90502551 0 1339
0.03550000 0.03553350 48727.08706190 0 -321.04316535 0 17657.81145103 0 5344.46724974 0 -4760.82286390 0 1365
0.03650000 0.03647120 45930.10708946 0 -3574.77757397 0 20073.79272646 0 3107.78013010 0 -35.33189922 0 1308
0.03750000 0.03744890 49254.01900002 0 -1217.44640311 0 19764.09980128 0 5511.99152424 0 -5863.29424609 0 1579
0.03850000 0.03847530 46986.29615391 0 2850.82468803 0 17978.24453128 0 1883.18100516 0 -8021.81075251 0 1662
0.03950000 0.03950240 45405.27889306 0 2899.69792978 0 18181.31096846 0 -891.44947964 0 -2073.07137580 0 1683
0.04050000 0.04050350 44387.62151897 0 1751.56428004 0 21228.52548180 0 551.26005021 0 -943.54033898 0 1822
0.04150000 0.04152450 41999.98539508 0 1684.98639090 0 22740.11926604 0 2831.58098750 0 2938.05246295 0 1887
0.04250000 0.04250150 43144.75305808 0 2753.25536173 0 23490.71216550 0 819.20920359 0 5910.29626495 0 1920
0.04350000 0.04349210 40388.96213397 0 671.06039028 0 18756.29679629 0 2842.49829977 0 5411.63197209 0 2005
0.04450000 0.04448520 39482.13873132 0 811.78188810 0 20708.34766182 0 3029.31056411 0 238.23214080 0 2151
0.04550000 0.04548030 40235.49971198 0 -211.22674057 0 17949.78865650 0 2883.70949274 0 1759.40348601 0 2274
0.04650000 0.04648670 38306.70072857 0 -509.32361996 0 15182.81468432 0 4146.92888665 0 1483.35935595 0 2311
0.04750000 0.04749250 38903.49903630 0 -180.41467506 0 11206.85356519 0 5277.84507130 0 1973.29865685 0 2568
0.04850000 0.04851840 38483.96864892 0 -563.90353792 0 9172.09243327 0 1433.87713634 0 -1111.45103762 0 2493
0.04950000 0.04949480 38847.25162622 0 838.05872936 0 10112.90787311 0 5968.25988537 0 2179.05566896 0 2644
0.05050000 0.05050630 36772.85157145 0 742.31412219 0 8196.89742487 0 -1229.13877812 0 -686.76205411 0 2829
0.05150000 0.05149060 36781.15581506 0 1414.96560555 0 9057.38314815 0 -1212.12061487 0 1320.29722835 0 2784
0.05250000 0.05249300 36067.32303400 0 -591.52898834 0 8084.30295379 0 -1279.40713279 0 1071.63274311 0 3055
0.05350000 0.05348950 37544.59261131 0 -176.32677274 0 10442.71921248 0 -1651.45939135 0 1038.23196806 0 3009
0.05450000 0.05448610 38669.43008963 0 -79.63027780 0 9909.54248317 0 -1813.72431157 0 -2521.47838630 0 3336
0.05550000 0.05550870 37749.09845071 0 1631.83923177 0 11973.27988914 0 -3003.29060078 0 -843.68347037 0 3349
0.05650000 0.05647670 36561.03799767 0 2547.29904778 0 11512.00683719 0 -1115.87996755 0 1640.01060749 0 3324
0.05750000 0.05747970 35428.67133846 0 81.68109380 0 14589.55952054 0 1021.42860792 0 1094.43065991 0 3639
0.05850000 0.05849280 35961.47160874 0 521.47549645 0 15450.21132869 0 1477.81212122 0 1744.59978773 0 3846
0.05950000 0.05951020 34003.88458080 0 1554.77585103 0 15451.76145417 0 1259.46587580 0 -4460.89572921 0 3787
0.06050000 0.06049470 33808.23660125 0 817.00913265 0 15674.31518302 0 -318.45999197 0 2524.24646751 0 3930
0.06150000 0.06148310 32373.15258151 0 317.50112864 0 14567.30414765 0 -181.95372821 0 1259.94198576 0 4083
0.06250000 0.06249100 33383.94511420 0 -718.71789077 0 16255.61223600 0 -158.41285841 0 1672.81790593 0 4303
0.06350000 0.06350600 34081.50157778 0 301.25913536 0 15708.75011321 0 1492.11756489 0 1906.85363562 0 4470
0.06450000 0.06451750 33865.25907407 0 1281.89840588 0 16317.17436199 0 1041.50494728 0 1103.89417593 0 4479
0.06550000 0.06550280 32061.02374487 0 670.52338253 0 16114.32937131 0 1786.48639251 0 3923.41186554 0 4636
0.06650000 0.06648880 32144.17690426 0 1066.59151362 0 15435.04224369 0 909.76199765 0 2106.97483439 0 4653
0.06750000 0.06749660 31112.23623116 0 905.14262374 0 16045.34878769 0 1854.53690085 0 2685.79168661 0 5220
0.06850000 0.06852730 29961.48951276 0 1196.70793872 0 15114.38771694 0 1385.38035363 0 4113.87799707 0 5029
0.06950000 0.06949320 29006.05860416 0 1056.17245596 0 13444.45968779 0 2200.13737541 0 4587.81778861 0 5040
0.07050000 0.07048030 27826.30239473 0 -160.62067998 0 11019.39910601 0 3123.51390366 0 3334.86243980 0 5475
0.07150000 0.07148790 28096.24567381 0 -950.33321025 0 10148.58290368 0 3412.00332681 0 1279.01960143 0 5509
0.07250000 0.07249820 28352.34854687 0 -310.93856172 0 7139.23574122 0 1872.61800728 0 840.81463101 0 5916
0.07350000 0.07351270 28629.04594408 0 782.79343449 0 7609.06770025 0 -259.68255567 0 681.48387687 0 5721
0.07450000 0.07449140 27013.81519954 0 1227.83224379 0 7386.55826069 0 -1934.62302626 0 2005.85129182 0 6028
0.07550000 0.07549160 26852.15925719 0 829.58507918 0 8473.35123094 0 -701.05974715 0 1479.49511459 0 6183
0.07650000 0.07648840 25893.84954413 0 1082.15034445 0 9354.49791233 0 181.73449618 0 2079.71477069 0 6330
0.07750000 0.07749960 25782.79412620 0 504.58577217 0 9672.04111581 0 1711.09493282 0 -454.75255986 0 6583
0.07850000 0.07848650 25189.42823917 0 160.75797681 0 7961.90947524 0 840.31637639 0 1721.92366650 0 6549
0.07950000 0.07947320 25270.69910334 0 -42.87702424 0 7600.81881826 0 725.45207872 0 -230.45715431 0 6828
0.08050000 0.08048110 25387.73357667 0 -300.90260650 0 6878.15032199 0 -373.58466831 0 216.22810969 0 7147
0.08150000 0.08149960 25639.29679655 0 133.34068609 0 6671.66253645 0 -500.62741605 0 -2971.16978649 0 7386
0.08250000 0.08250610 24472.60593041 0 987.89939390 0 7149.74337747 0 -1594.74694363 0 -1777.14135037 0 7227
0.08350000 0.08350160 24340.95598832 0 693.56378325 0 7373.90259342 0 -1143.20646520 0 -5377.05310168 0 7798
0.08450000 0.08449610 23917.21811751 0 729.51672916 0 7847.95310821 0 -756.24753574 0 -4925.21367048 0 7371
0.08550000 0.08548940 22687.19355341 0 1134.68077509 0 7301.86604815 0 -206.91960621 0 -4916.94264384 0 8256
0.08650000 0.08650700 21917.33480877 0 1127.49483628 0 8010.57234282 0 1108.51687154 0 -4435.19686331 0 8037
0.08750000 0.08749060 21345.00633889 0 217.98639487 0 7219.37722825 0 1068.09181363 0 -3962.51931680 0 8155
0.08850000 0.08849210 20599.39598560 0 371.54957501 0 7163.26268607 0 1459.68672549 0 -3636.35077229 0 8718
0.08950000 0.08949900 20823.49983993 0 75.49775401 0 7139.05858402 0 1003.14155624 0 -2894.12855040 0 8571
0.09050000 0.09049190 20343.51455904 0 146.99618429 0 7305.17667327 0 367.54139343 0 -2485.94729596 0 8932
0.09150000 0.09150830 20407.18042675 0 802.87088109 0 7581.50868377 0 223.68199875 0 -427.81912974 0 9285
0.09250000 0.09250820 19799.75268720 0 255.41085275 0 7030.91518752 0 -281.47067645 0 28.92766654 0 9204
0.09350000 0.09350330 20095.27303661 0 -209.83273487 0 7401.51697152 0 779.28572199 0 -453.05627970 0 9349
0.09450000 0.09448040 19910.80810513 0 120.08600605 0 7538.90237787 0 263.57337061 0 -1092.51182602 0 9564
0.09550000 0.09549270 19801.30281267 0 434.52563688 0 7043.96945848 0 -51.52794235 0 -1629.28152474 0 10155
0.09650000 0.09649430 19155.89699900 0 787.23232951 0 7364.71256382 0 37.52886991 0 -736.88425410 0 9913
0.09750000 0.09749140 18487.46074969 0 807.60319271 0 6645.31040338 0 -117.47293740 0 -1663.42857448 0 10476
0.09850000 0.09850240 18038.92087129 0 273.78426856 0 7257.31101308 0 176.14850831 0 -763.96826784 0 10575
0.09950000 0.09950330 17518.07871182 0 507.30292068 0 7496.45108452 0 -47.76445914 0 -822.94611322 0 10882
0.10050000 0.10051200 17574.21539865 0 498.04202820 0 7736.72053308 0 500.84332638 0 -319.49303987 0 10875
0.10150000 0.10150300 16889.94572486 0 435.99493438 0 7674.75980340 0 678.24522186 0 775.62631864 0 11118
0.10250000 0.10250800 16468.09014927 0 443.62376618 0 7106.27343023 0 902.94144557 0 930.20483097 0 11575
0.10350000 0.10349800 16382.39035517 0 234.77757545 0 6785.03207027 0 1045.21639056 0 1594.03831484 0 11364
0.10450000 0.10450100 15885.13224757 0 86.43942539 0 6263.03838902 0 1697.01093565 0 748.96858941 0 12093
0.10550000 0.10551000 15802.42198117 0 134.78119555 0 5238.16185915 0 936.86815604 0 1441.71634231 0 12067
0.10650000 0.10649700 15647.85232670 0 -48.01923334 0 4506.10403144 0 863.19290670 0 629.05531162 0 12054
0.10750000 0.10749900 15523.17794925 0 48.46910189 0 4544.39213067 0 -144.60345490 0 974.22617998 0 12807
0.10850000 0.10850100 15370.82275974 0 478.10520013 0 4611.24682792 0 -411.23167993 0 18.34828163 0 12736
0.10950000 0.10950300 15474.34899680 0 374.60000050 0 4989.58816698 0 -926.21104340 0 616.23245225 0 12933
0.11050000 0.11050200 14788.97209052 0 176.04775015 0 5360.01279378 0 -134.78008832 0 1223.62476036 0 13428
0.11150000 0.11150900 15038.98518493 0 46.44552381 0 5807.91047735 0 123.06778313 0 788.70937764 0 13453
0.11250000 0.11250000 14884.52625371 0 250.22014688 0 6454.70033163 0 465.06089427 0 1296.14848792 0 13668
0.11350000 0.11349100 14924.94023929 0 454.77249004 0 6731.99563439 0 -99.91521976 0 1358.10921761 0 13791
0.11450000 0.11448600 14479.05771885 0 236.13947141 0 6349.55753515 0 134.11574883 0 2639.07754820 0 14205
0.11550000 0.11549300 14452.59486253 0 110.23152624 0 6541.03124824 0 186.98388537 0 1666.82777820 0 14776
0.11650000 0.11649800 14235.24512634 0 -32.22057595 0 6817.79507941 0 -31.52246587 0 1482.59536554 0 14553
0.11750000 0.11747300 14403.10157059 0 217.26337206 0 6652.83958426 0 199.90750290 0 492.24234446 0 14568
0.11850000 0.11849100 14071.59616552 0 219.12905879 0 6017.33242897 0 -2.58075961 0 697.19107686 0 16015
0.11950000 0.11950300 14074.25352348 0 -67.21299769 0 5707.80558866 0 343.43029890 0 384.88840472 0 15270
0.12050000 0.12050700 13948.47191354 0 -27.38894556 0 5230.69911223 0 808.58420069 0 -186.60189017 0 15999
0.12150000 0.12150000 14176.00818856 0 13.87805193 0 5005.72054424 0 932.85333106 0 -557.30664679 0 15670
0.12250000 0.12250700 14018.67045289 0 4.05109792 0 4788.81370104 0 76.43790511 0 -336.99949265 0 16887
0.12350000 0.12352200 13970.94873292 0 293.28595426 0 4833.44624238 0 353.98443892 0 348.51803215 0 16407
0.12450000 0.12449800 13513.88316441 0 652.03149285 0 5170.63175009 0 -118.31554131 0 544.45721384 0 16306
0.12550000 0.12549900 13293.76534701 0 393.41630929 0 4934.23761521 0 400.47491637 0 1546.64876462 0 17523
0.12650000 0.12650100 13109.96475502 0 -74.48585424 0 5372.40272526 0 458.19494565 0 1402.68639733 0 17154
0.12750000 0.12750600 12848.32571956 0 91.62215920 0 5119.10115038 0 226.88743679 0 1234.65279588 0 18007
0.12850000 0.12850300 12926.27488628 0 246.10345651 0 5270.81414504 0 364.74009525 0 1234.47563868 0 17496
0.12950000 0.12949900 12528.66770204 0 60.74520987 0 4367.47852472 0 285.63608504 0 1411.27852138 0 18405
0.13050000 0.13049000 12869.69530646 0 -176.61908211 0 4516.10234076 0 705.93599900 0 1471.45660677 0 18100
0.13150000 0.13148800 12803.59352729 0 -56.00060796 0 3888.65583793 0 321.93448750 0 539.10263756 0 19059
0.13250000 0.13249300 12836.14616226 0 102.44823551 0 3591.51892910 0 409.27077120 0 957.22351799 0 18957
0.13350000 0.13349100 12712.46829403 0 178.50469903 0 3004.64142441 0 0.42347878 0 569.09535103 0 19468
0.13450000 0.13450700 12661.53559987 0 -72.70929973 0 2962.40050523 0 103.53498419 0 604.30534395 0 19953
0.13550000 0.13551000 12606.28469902 0 241.12312481 0 2957.83870740 0 48.77779831 0 389.05270608 0 19956
0.13650000 0.13649900 12307.44265217 0 482.71128726 0 2985.37557923 0 233.20087640 0 113.93090069 0 19723
0.13750000 0.13749600 11985.90233943 0 357.24745304 0 2870.09053322 0 -637.14032320 0 851.65997317 0 20946
0.13850000 0.13851100 11798.22643376 0 244.15140565 0 3269.66859127 0 101.63984507 0 7.52033409 0 20955
0.13950000 0.13949800 11610.66125133 0 133.64960396 0 3572.72919388 0 -79.41038143 0 286.21295317 0 20506
0.14050000 0.14048300 11404.16239346 0 175.38119620 0 3613.57500014 0 -178.11938213 0 102.24018653 0 21447
0.14150000 0.14148400 11424.86764087 0 64.10267092 0 3543.46503939 0 194.28386913 0 254.35455297 0 21771
0.14250000 0.14249400 11174.74382322 0 270.65633680 0 3710.12567256 0 232.44906555 0 286.55730247 0 22470
0.14350000 0.14350900 11140.53033953 0 212.69050191 0 3461.37482318 0 264.41708176 0 568.86726114 0 22519
0.14450000 0.14449900 10742.30310510 0 422.00505198 0 3244.47905231 0 223.30000355 0 425.80728832 0 22218
0.14550000 0.14550500 10411.94922181 0 378.73329935 0 3240.41550910 0 -65.87413217 0 487.31958885 0 23559
0.14650000 0.14650700 10226.41027483 0 97.54385995 0 3283.91867331 0 -97.55471083 0 515.86293500 0 23044
0.14750000 0.14750500 10016.20218814 0 144.62117062 0 3205.37160105 0 71.50241632 0 -69.81942295 0 23649
0.14850000 0.14849900 10156.66570079 0 26.65894719 0 3226.14328241 0 -55.24115720 0 -209.84491443 0 23640
0.14950000 0.14949500 10028.86892774 0 -21.33670210 0 3250.13701029 0 128.00493276 0 -94.32292067 0 24457
0.15050000 0.15050000 10036.89636323 0 128.80767631 0 3136.70104252 0 72.13619619 0 -45.15415857 0 24591
0.15150000 0.15149900 10039.31013004 0 2.46649322 0 3019.42297804 0 318.94938873 0 80.19596288 0 25020
0.15250000 0.15250500 10006.00457699 0 112.63986761 0 3031.70218627 0 402.06379498 0 -26.16091402 0 25297
0.15350000 0.15350100 9746.48035556 0 194.19971946 0 2649.04264054 0 402.67720177 0 350.24531483 0 25452
0.15450000 0.15450400 9821.19640344 0 54.06040448 0 2771.52469768 0 528.48538529 0 372.41321635 0 26061
0.15550000 0.15549900 9633.63122101 0 -33.86138376 0 2576.86215504 0 351.36915579 0 800.91218683 0 26128
0.15650000 0.15649500 9645.41217462 0 145.58224841 0 2370.30793555 0 178.87562191 0 477.75310020 0 26331
0.15750000 0.15749700 9433.87540896 0 228.64129304 0 2301.46021983 0 -114.05269626 0 615.79730988 0 27345
0.15850000 0.15849900 9294.64092436 0 133.74039702 0 2454.90049717 0 -295.72075849 0 480.00521107 0 26980
0.15950000 0.15949700 9096.01448944 0 198.97964208 0 2620.37639158 0 -276.98417043 0 692.35357814 0 27777
0.16050000 0.16050000 9001.57863106 0 84.14047859 0 2491.90420671 0 144.30339490 0 304.07593480 0 28224
0.16150000 0.16150500 9031.38532947 0 -63.44696785 0 2406.38156981 0 303.07610387 0 186.93738161 0 28075
0.16250000 0.16249700 9068.30046042 0 1.34183290 0 2198.34365879 0 364.13886801 0 72.98378266 0 28590
0.16350000 0.16349900 9215.70632073 0 -4.50183011 0 2091.06390363 0 95.88876884 0 -40.06720037 0 29163
0.16450000 0.16449100 9102.08212344 0 122.28386253 0 2224.70686419 0 -168.71012049 0 45.64410894 0 28996
0.16550000 0.16550500 8991.20386271 0 290.55441173 0 2158.32827690 0 -291.49002318 0 241.33792791 0 30777
0.16650000 0.16650700 8866.14195388 0 185.67292212 0 2367.37376947 0 -2.07676953 0 345.96364682 0 29211
0.16750000 0.16749900 8640.24438293 0 118.77061386 0 2481.97233135 0 -38.05192653 0 340.20935961 0 30922
0.16850000 0.16850800 8807.27040282 0 -31.17822729 0 2601.53129474 0 210.02871502 0 81.41181486 0 30867
0.16950000 0.16949900 8716.20053119 0 118.39194036 0 2640.62767367 0 -90.00703917 0 146.25766023 0 30852
0.17050000 0.17049200 8627.79908984 0 185.70171016 0 2585.98575069 0 57.66588561 0 460.15363991 0 31257
0.17150000 0.17149500 8444.17565504 0 110.98344782 0 2464.17910536 0 141.94720418 0 367.10735829 0 32608
0.17250000 0.17250900 8393.35368413 0 169.16519304 0 2586.21826952 0 119.25115276 0 347.64442573 0 32361
0.17350000 0.17350400 8232.60567241 0 222.31899557 0 2682.23747034 0 -42.28122245 0 364.77884838 0 32508
0.17450000 0.17449800 7995.11537737 0 281.20715512 0 2551.83870095 0 -6.35756283 0 309.70621197 0 32791
0.17550000 0.17549800 7907.58864968 0 120.62412104 0 2651.24603318 0 -70.93728486 0 347.68650056 0 33633
0.17650000 0.17650100 7816.15339133 0 -25.04094836 0 2636.57520279 0 -93.27736103 0 17.66700148 0 33984
0.17750000 0.17750300 7882.18873655 0 8.05685466 0 2659.39526424 0 369.66063640 0 32.70410437 0 34069
0.17850000 0.17849800 7893.79253296 0 -35.03062126 0 2360.57536204 0 172.58875588 0 4.08389414 0 34536
