### header ###
fiducial parameters:
Omega_m = 0.31
Omega_nu = 0
Omega_de = 0.69
Omega_k = 0
H_0 = 100
w_de = -1
zeff = 0
beta = 0
fgrowth = 0
b_1 = 2
gamma = 0.55
Lx = 3500 Ly = 3500 Lz = 3500
nx = 700 ny = 700 nz = 700
xoffset = -685.467585 yoffset = -31.7331281 zoffset = 572.489161
bins = 400 dk = 0.001
kx_ny = 0.628318531 ky_ny = 0.628318531 kz_ny = 0.628318531
############################
A(data) = 8.02635281 (not used)
A(ran) = 8.02437164 (used)
Ngal = 477220
weighted Ngal = 0
Nran = 23820508
weighted Nran = 0
SN(data) = 3487.15597
SN(ran) = 69.8951872
SN(data+ran) = 3557.05115
############################
13 columns: k_central k_mean P_0(k) sigma^{lin}_{P_0(k)} P^img_1(k) sigma^{lin}_{P_1(k)} P_2(k) sigma^{lin}_{P_2(k)} P^img_3(k) sigma^{lin}_{P_3(k)} P_4(k) sigma^{lin}_{P_4(k)} N_modes
### header ###
0.00050000 0 0 0 0 0 0 0 0 0 0 0 0
0.00150000 0.00179520 9227.28797249 0 -12144.67947733 0 10544.30779269 0 -20295.68211583 0 23385.08218673 0 3
0.00250000 0.00253879 12605.73108278 0 -5272.66322329 0 -2970.31721747 0 2674.81901271 0 -7630.83589084 0 6
0.00350000 0.00331552 20278.40928911 0 -4798.39126201 0 7056.31510065 0 -30168.76343337 0 16471.63329321 0 7
0.00450000 0.00420575 20029.94632018 0 -53.47800020 0 11469.37838664 0 -28887.14183561 0 13716.17453884 0 24
0.00550000 0.00557378 31552.13969621 0 -16100.59968854 0 22999.21166680 0 -17154.57428803 0 30474.80249135 0 45
0.00650000 0.00659388 37428.55464721 0 -17944.58466384 0 27379.09119531 0 770.55187217 0 37661.73780789 0 40
0.00750000 0.00754703 86490.46881162 0 -32500.81648667 0 53160.66736578 0 9195.93114860 0 -5011.81032289 0 57
0.00850000 0.00846663 92129.71456501 0 -11031.94405003 0 56013.00896231 0 8587.37403192 0 19066.98623070 0 75
0.00950000 0.00948925 104988.33754665 0 33294.25928317 0 65461.79879280 0 -15224.77879538 0 -1811.59842520 0 112
0.01050000 0.01054430 73627.19545356 0 25111.92196544 0 50080.45732448 0 668.38310214 0 31697.07642808 0 105
0.01150000 0.01145670 71558.77445419 0 12904.90529938 0 58832.79792388 0 15546.65127786 0 24462.64083808 0 144
0.01250000 0.01249090 62618.64722587 0 -8335.55614857 0 44789.87907964 0 42994.72305679 0 -1945.77285736 0 169
0.01350000 0.01339930 89387.21043068 0 -26294.55697932 0 22523.54459259 0 43882.83423049 0 -63937.80400476 0 180
0.01450000 0.01448870 91406.80247760 0 -11183.38023658 0 7773.52494078 0 2280.92105729 0 -53787.91456676 0 267
0.01550000 0.01550050 102979.04276181 0 -4214.28183852 0 -7849.21535324 0 -10813.50922601 0 -40726.88948743 0 238
0.01650000 0.01653350 98198.23435161 0 4867.77044932 0 1674.33481443 0 -33130.72104560 0 -25857.53231873 0 315
0.01750000 0.01747870 98617.87546224 0 11426.19631985 0 39.95370905 0 -14889.17663013 0 -34603.11879999 0 297
0.01850000 0.01844180 91638.54623605 0 6722.14126530 0 16441.95946270 0 -6966.71784822 0 -38235.28423349 0 388
0.01950000 0.01947590 79724.72473119 0 13391.53397516 0 20067.70294781 0 5606.22808078 0 -24529.62840323 0 399
0.02050000 0.02045430 76109.94284764 0 1581.08369480 0 16659.64136863 0 615.78734479 0 -31838.69146251 0 462
0.02150000 0.02154770 74080.16426189 0 -2590.35931900 0 20520.89320264 0 -1914.63747997 0 -22621.20249749 0 571
0.02250000 0.02255340 77122.72839881 0 -663.65300498 0 22593.30023894 0 3748.81237547 0 -8513.73199955 0 510
0.02350000 0.02348930 76050.15229362 0 1396.86235447 0 22555.87578106 0 5984.96802352 0 -6546.47883205 0 555
0.02450000 0.02439640 73679.12465696 0 8592.92126666 0 28405.49570600 0 5165.62705927 0 -678.41352120 0 592
0.02550000 0.02547300 69912.54120015 0 1021.18390954 0 22838.66295693 0 7047.96656774 0 -1286.88095205 0 837
0.02650000 0.02652900 69085.10636645 0 2965.32359898 0 29734.17468423 0 4803.78348419 0 4504.76428014 0 723
0.02750000 0.02749970 69636.61886567 0 -2268.80793394 0 32090.91902188 0 4241.37581736 0 -4427.77840568 0 826
0.02850000 0.02848090 67342.76533299 0 2038.97968768 0 29174.46866465 0 1844.92612291 0 9551.75137898 0 831
0.02950000 0.02946900 65982.64095227 0 7697.50235857 0 24339.51658609 0 -676.59101653 0 -615.03331947 0 996
0.03050000 0.03053250 58008.57406438 0 4706.35809811 0 21851.67592259 0 6373.20802096 0 5674.57754188 0 1041
0.03150000 0.03150510 56615.89704869 0 34.70110887 0 18618.99996854 0 9657.43671937 0 6896.33107934 0 1036
0.03250000 0.03246190 57334.93382241 0 -3788.53987692 0 15588.28321918 0 8347.39246380 0 -4517.28707951 0 1059
0.03350000 0.03345080 59499.90549420 0 305.78550175 0 13271.95286712 0 4185.95883164 0 -4259.99946770 0 1302
0.03450000 0.03451200 55985.43887351 0 2040.09799249 0 14480.38639783 0 -3796.60052939 0 -1596.98355324 0 1339
0.03550000 0.03553350 55710.73449476 0 3103.08546437 0 15718.05086605 0 -348.87566825 0 5266.34092582 0 1365
0.03650000 0.03647120 55009.63488725 0 1307.09901717 0 19598.45782200 0 -3440.53670787 0 3520.27959122 0 1308
0.03750000 0.03744890 54666.17137137 0 -102.06934055 0 20261.57935539 0 -54.36744005 0 -3734.80588458 0 1579
0.03850000 0.03847530 53533.91543542 0 1647.11904002 0 19889.54924148 0 502.31151665 0 -5882.02861968 0 1662
0.03950000 0.03950240 53338.04600938 0 2640.41729950 0 19582.07078127 0 424.76870425 0 -6597.37830924 0 1683
0.04050000 0.04050350 50921.06822471 0 444.36118302 0 15444.34299654 0 1795.95323023 0 -2847.40333966 0 1822
0.04150000 0.04152450 50247.98159899 0 279.16541842 0 14944.98114722 0 5484.25535057 0 -11843.51224227 0 1887
0.04250000 0.04250150 48306.22799554 0 3279.27936921 0 11834.65438241 0 3013.48821194 0 -4906.11391017 0 1920
0.04350000 0.04349210 44365.80903908 0 3907.47879012 0 12057.65100426 0 2491.43916907 0 -1799.86176090 0 2005
0.04450000 0.04448520 42592.90838912 0 2264.65581213 0 11179.72636939 0 4624.60005165 0 1928.56646459 0 2151
0.04550000 0.04548030 41059.39140174 0 -3.13298074 0 10517.49062198 0 3077.54161102 0 802.99932006 0 2274
0.04650000 0.04648670 42126.87423750 0 -677.22213905 0 12497.44374605 0 140.30185671 0 65.23060865 0 2311
0.04750000 0.04749250 43308.95563514 0 801.89098034 0 13856.57161754 0 -3867.99487982 0 2327.74591895 0 2568
0.04850000 0.04851840 40351.75912258 0 3392.22815469 0 13229.87803281 0 -3383.09348671 0 2830.82806941 0 2493
0.04950000 0.04949480 39052.31108186 0 1350.21465001 0 14166.70743571 0 483.80966188 0 5004.96762615 0 2644
0.05050000 0.05050630 37952.71850412 0 695.91665227 0 13839.07734433 0 3073.65522501 0 -868.74346313 0 2829
0.05150000 0.05149060 37044.12352950 0 413.73291810 0 12716.34360772 0 5010.39306531 0 -1101.43722705 0 2784
0.05250000 0.05249300 35769.47749638 0 922.16521592 0 13184.48150105 0 1711.99179113 0 -3373.54914272 0 3055
0.05350000 0.05348950 35318.39098327 0 234.60041826 0 10848.94066543 0 2291.19617472 0 1290.20264949 0 3009
0.05450000 0.05448610 36045.39983086 0 -968.66012229 0 13161.78323517 0 -751.44103954 0 203.79610338 0 3336
0.05550000 0.05550870 36402.15013652 0 820.50688006 0 13356.76687523 0 -2638.28034081 0 1272.16583236 0 3349
0.05650000 0.05647670 36581.30035208 0 907.59514369 0 15394.18536511 0 -1171.52947209 0 413.29666851 0 3324
0.05750000 0.05747970 36641.53379910 0 399.75742972 0 15880.26042465 0 -1826.08102607 0 1167.82024327 0 3639
0.05850000 0.05849280 36464.81949499 0 -38.29164237 0 16471.74401646 0 465.41631589 0 1847.58348086 0 3846
0.05950000 0.05951020 36768.42264152 0 584.10831625 0 16942.20709800 0 528.00152470 0 -2515.16716115 0 3787
0.06050000 0.06049470 36682.05850793 0 140.74142800 0 16130.82713529 0 2224.47434537 0 -277.19675907 0 3930
0.06150000 0.06148310 35400.54763342 0 888.72236603 0 13938.39609795 0 778.29917785 0 -3081.51657563 0 4083
0.06250000 0.06249100 35576.70832129 0 904.36091761 0 15271.50400612 0 883.95794466 0 -1871.97581244 0 4303
0.06350000 0.06350600 33075.47014476 0 671.08585663 0 14203.13538437 0 -721.64652068 0 -5588.75595221 0 4470
0.06450000 0.06451750 33281.41538638 0 1056.57881028 0 12735.16655991 0 211.74381813 0 -3574.54505515 0 4479
0.06550000 0.06550280 31387.38350291 0 983.38520707 0 11550.31708107 0 -938.22562307 0 -6080.85435645 0 4636
0.06650000 0.06648880 31774.69342506 0 302.38851249 0 11553.52805526 0 501.72911237 0 -5092.23969037 0 4653
0.06750000 0.06749660 31702.05897425 0 -196.65223941 0 11591.94902239 0 1608.21089061 0 -5893.01236590 0 5220
0.06850000 0.06852730 31031.74042973 0 739.39545737 0 10773.67100131 0 2838.86657723 0 -4362.62884644 0 5029
0.06950000 0.06949320 30812.06550533 0 664.06932439 0 11024.97955772 0 1808.85248865 0 -2071.73162449 0 5040
0.07050000 0.07048030 29939.78775612 0 621.21610565 0 10337.33282486 0 1671.65531182 0 -1794.79063613 0 5475
0.07150000 0.07148790 29235.14500466 0 1024.69051481 0 10766.67329203 0 894.12455331 0 929.11974313 0 5509
0.07250000 0.07249820 28503.70722714 0 1169.29286247 0 10684.85988394 0 98.31161496 0 928.89718941 0 5916
0.07350000 0.07351270 27154.54444799 0 1671.16812953 0 12333.24116899 0 18.15905560 0 2322.98481928 0 5721
0.07450000 0.07449140 25846.90288690 0 903.19500180 0 9870.12500681 0 1296.91247833 0 2998.72880296 0 6028
0.07550000 0.07549160 25590.57856735 0 -393.31222944 0 9157.60983241 0 2293.10061459 0 1497.24405128 0 6183
0.07650000 0.07648840 25325.50711119 0 -151.54469533 0 7585.97083067 0 1539.29674094 0 740.35542793 0 6330
0.07750000 0.07749960 25514.84386559 0 45.54357223 0 7586.61302551 0 970.67749988 0 -106.09678798 0 6583
0.07850000 0.07848650 25323.07119973 0 527.21096070 0 7029.16576019 0 -1080.32562532 0 433.95319769 0 6549
0.07950000 0.07947320 24669.25041919 0 643.29653580 0 6712.09866669 0 -192.54108520 0 492.49368624 0 6828
0.08050000 0.08048110 24923.91389002 0 -143.82174877 0 8237.39998905 0 -366.49727319 0 790.54516910 0 7147
0.08150000 0.08149960 24736.12726110 0 293.08443795 0 7764.86638277 0 294.82722188 0 977.96751854 0 7386
0.08250000 0.08250610 24798.35372658 0 546.83001305 0 8592.93233898 0 1153.50372728 0 621.91476934 0 7227
0.08350000 0.08350160 23771.50632290 0 89.82711390 0 7428.83239685 0 569.96895746 0 1931.94352366 0 7798
0.08450000 0.08449610 24095.26110059 0 257.46698347 0 6576.08622862 0 2421.68352271 0 679.29044932 0 7371
0.08550000 0.08548940 23876.25051568 0 18.54138297 0 6073.54662207 0 696.52120120 0 415.95402646 0 8256
0.08650000 0.08650700 23832.51483265 0 337.66051044 0 6272.30592489 0 82.86527894 0 521.79659387 0 8037
0.08750000 0.08749060 22811.42503787 0 1149.50661802 0 5650.18521031 0 -751.42000212 0 2325.68646653 0 8155
0.08850000 0.08849210 22177.09154901 0 1262.24502933 0 6851.58781475 0 -729.66399108 0 1787.17287665 0 8718
0.08950000 0.08949900 21748.14968554 0 508.84418830 0 7248.09883883 0 -110.19221949 0 3072.39297998 0 8571
0.09050000 0.09049190 21097.31843270 0 338.87957340 0 7890.54834179 0 771.35461572 0 2616.96611554 0 8932
0.09150000 0.09150830 21017.81914050 0 398.13865583 0 8190.50869345 0 1137.67030279 0 2642.35495635 0 9285
0.09250000 0.09250820 20621.87280498 0 299.56728413 0 7603.43188691 0 777.50861386 0 1408.68759738 0 9204
0.09350000 0.09350330 20117.63913274 0 117.96565585 0 7491.08100698 0 -90.69130885 0 1539.55140441 0 9349
0.09450000 0.09448040 20078.22165639 0 584.68961330 0 6843.68217483 0 335.27110274 0 1093.48065444 0 9564
0.09550000 0.09549270 19202.06859349 0 306.79419054 0 6214.77412513 0 623.90446611 0 953.51428917 0 10155
0.09650000 0.09649430 19074.18324183 0 527.97495112 0 5634.32964117 0 335.66195581 0 253.45437296 0 9913
0.09750000 0.09749140 18328.35144205 0 419.39087609 0 6115.47751616 0 62.69249963 0 167.12899251 0 10476
0.09850000 0.09850240 18033.82760187 0 542.78086386 0 6070.74532389 0 266.75777123 0 -515.72563817 0 10575
0.09950000 0.09950330 17835.07937138 0 397.52967796 0 6733.81149566 0 -415.34947753 0 850.49184290 0 10882
0.10050000 0.10051200 17522.06474876 0 352.56607411 0 6476.70104104 0 149.98460476 0 1456.09929225 0 10875
0.10150000 0.10150300 17486.85475583 0 90.93179974 0 6578.11246406 0 554.61496463 0 2360.97396573 0 11118
0.10250000 0.10250800 17605.21790814 0 -103.92085471 0 6692.81067685 0 947.02922853 0 1917.32805490 0 11575
0.10350000 0.10349800 17302.50054760 0 126.13260264 0 5980.80482939 0 823.39454237 0 2759.51122525 0 11364
0.10450000 0.10450100 17203.95685672 0 357.20427097 0 6137.83253997 0 1097.83982872 0 2292.34769650 0 12093
0.10550000 0.10551000 16846.65293482 0 495.96375283 0 5600.61441209 0 376.36825077 0 2359.20239376 0 12067
0.10650000 0.10649700 16513.70812752 0 211.19905975 0 5025.32963149 0 183.53264173 0 1724.47030120 0 12054
0.10750000 0.10749900 16410.40333696 0 -28.35168421 0 5099.09345943 0 -893.68387478 0 1851.80203662 0 12807
0.10850000 0.10850100 16561.20840099 0 173.36714031 0 5200.92563079 0 -497.54930975 0 627.31474216 0 12736
0.10950000 0.10950300 16260.70550542 0 162.45757867 0 5101.03111628 0 -531.55352650 0 811.26148883 0 12933
0.11050000 0.11050200 16246.64365290 0 263.79813880 0 5082.26352571 0 -103.01569216 0 197.79601056 0 13428
0.11150000 0.11150900 16164.48700274 0 -41.50870634 0 5075.27688875 0 125.34757481 0 -943.79721691 0 13453
0.11250000 0.11250000 15726.57655616 0 203.18158935 0 4764.08919972 0 502.10557141 0 -1889.41472403 0 13668
0.11350000 0.11349100 15507.23380151 0 503.70441511 0 4862.38929946 0 -173.28188341 0 -1655.92153825 0 13791
0.11450000 0.11448600 15369.27263427 0 452.31554117 0 5175.71394718 0 -92.43431422 0 -1171.97236508 0 14205
0.11550000 0.11549300 14869.35716870 0 423.90063398 0 5291.47510316 0 132.20134387 0 -713.30463116 0 14776
0.11650000 0.11649800 14587.67722532 0 341.79491652 0 4895.75021414 0 1261.17101382 0 849.34475005 0 14553
0.11750000 0.11747300 14340.98582836 0 -38.46282051 0 4557.65677580 0 1230.55603569 0 536.73205282 0 14568
0.11850000 0.11849100 14494.55897359 0 -60.76691162 0 4191.40641545 0 1441.08521980 0 842.97594881 0 16015
0.11950000 0.11950300 14179.99422550 0 328.13831109 0 3925.72598143 0 401.99403933 0 847.85330790 0 15270
0.12050000 0.12050700 13764.67132155 0 488.60176406 0 3540.84089840 0 -321.16717539 0 429.13120023 0 15999
0.12150000 0.12150000 13530.60237488 0 465.00885434 0 4286.24087752 0 -996.24903404 0 587.41119074 0 15670
0.12250000 0.12250700 13041.09489465 0 380.91786904 0 4038.38688646 0 -845.76838913 0 439.59897611 0 16887
0.12350000 0.12352200 13095.79217925 0 89.70299313 0 4358.36600139 0 -280.28372323 0 -407.26335871 0 16407
0.12450000 0.12449800 13075.52982484 0 -283.66410399 0 4134.78254633 0 163.30904045 0 -204.44383438 0 16306
0.12550000 0.12549900 13393.63771688 0 -141.42791214 0 4266.96396001 0 552.02071893 0 -922.09656750 0 17523
0.12650000 0.12650100 13478.89461798 0 -100.04775549 0 4124.71780307 0 317.23096391 0 -1173.54463520 0 17154
0.12750000 0.12750600 13239.17878566 0 411.45866259 0 4203.85170855 0 -11.57013654 0 -889.45424670 0 18007
0.12850000 0.12850300 13233.64262325 0 510.38767038 0 4298.48686877 0 -342.27434819 0 -514.03046524 0 17496
0.12950000 0.12949900 12721.32615389 0 237.44600574 0 4407.65999148 0 221.98682582 0 -309.79036164 0 18405
0.13050000 0.13049000 12544.94401953 0 220.35919408 0 4238.87347195 0 263.67523600 0 -479.92770480 0 18100
0.13150000 0.13148800 12262.48901340 0 379.80952932 0 4159.77278344 0 409.45346456 0 -609.48719197 0 19059
0.13250000 0.13249300 11992.21356458 0 41.21418250 0 3627.44862314 0 486.37290508 0 -870.27144396 0 18957
0.13350000 0.13349100 11831.99702445 0 58.52952695 0 3121.44337892 0 464.19614570 0 -830.88607734 0 19468
0.13450000 0.13450700 11905.84943099 0 -61.69754052 0 2964.13886023 0 317.18335292 0 -620.45432970 0 19953
0.13550000 0.13551000 11848.27334194 0 70.33528256 0 2599.11752793 0 642.16715867 0 -207.23073854 0 19956
0.13650000 0.13649900 11740.53962145 0 68.51189211 0 2344.15510433 0 421.27649300 0 -446.45385241 0 19723
0.13750000 0.13749600 11678.86677221 0 -21.46237298 0 2281.78469863 0 383.62283799 0 -374.27890308 0 20946
0.13850000 0.13851100 11779.18203507 0 112.69855093 0 2234.78267977 0 154.39028281 0 -266.65812030 0 20955
0.13950000 0.13949800 11599.69964976 0 192.97733480 0 2331.83160681 0 -128.31163616 0 -76.28554992 0 20506
0.14050000 0.14048300 11421.76738992 0 200.93280018 0 2421.16312344 0 -310.39601780 0 219.24199650 0 21447
0.14150000 0.14148400 11503.70259358 0 226.70142173 0 2652.19825311 0 -243.55017841 0 923.59133135 0 21771
0.14250000 0.14249400 11328.87058469 0 4.45104136 0 2839.98488203 0 120.11147240 0 599.21207454 0 22470
0.14350000 0.14350900 11345.03617893 0 -55.97281642 0 2940.26692792 0 182.48741427 0 410.11337512 0 22519
0.14450000 0.14449900 11313.48005320 0 94.94972497 0 3067.58759101 0 -284.82337640 0 -0.51535139 0 22218
0.14550000 0.14550500 11243.83513009 0 388.85340424 0 3128.74004098 0 -176.40760071 0 -134.09471141 0 23559
0.14650000 0.14650700 10854.11144112 0 399.73860677 0 3156.06653863 0 -209.19829066 0 596.08082108 0 23044
0.14750000 0.14750500 10625.09147457 0 196.97887299 0 3091.42630634 0 192.17348402 0 341.98757498 0 23649
0.14850000 0.14849900 10547.04265692 0 -32.12258587 0 3170.47163322 0 450.75323613 0 492.10615487 0 23640
0.14950000 0.14949500 10584.28995761 0 146.98732643 0 3073.38948921 0 359.17735926 0 -80.28996691 0 24457
0.15050000 0.15050000 10262.98216370 0 292.47546008 0 2997.38905166 0 5.60187666 0 345.41113781 0 24591
0.15150000 0.15149900 9988.78711189 0 398.83842676 0 2882.33652447 0 21.37390511 0 536.39877584 0 25020
0.15250000 0.15250500 9734.14578571 0 445.72418620 0 3146.43361604 0 -210.81485008 0 98.00347216 0 25297
0.15350000 0.15350100 9404.34551867 0 214.79424362 0 2813.25628992 0 57.86120142 0 462.45557624 0 25452
0.15450000 0.15450400 9280.37977000 0 156.30911670 0 3028.55764602 0 193.91516071 0 734.08295592 0 26061
0.15550000 0.15549900 9226.53505440 0 -113.34628194 0 2422.24821128 0 457.05006726 0 388.80468601 0 26128
0.15650000 0.15649500 9298.07334506 0 -105.97288867 0 2598.75214121 0 454.51671934 0 48.02853409 0 26331
0.15750000 0.15749700 9364.80624674 0 13.66037002 0 2293.04525297 0 318.85416673 0 238.86990671 0 27345
0.15850000 0.15849900 9256.79571813 0 136.94029889 0 2055.04563099 0 202.32569864 0 261.02895037 0 26980
0.15950000 0.15949700 9260.64888717 0 112.35752333 0 1922.10022689 0 -88.21088664 0 423.11339169 0 27777
0.16050000 0.16050000 9148.30907956 0 185.95083747 0 2221.48481766 0 -118.03541150 0 442.86863363 0 28224
0.16150000 0.16150500 9049.03461524 0 186.46127164 0 2399.70495795 0 -65.23525903 0 627.61590939 0 28075
0.16250000 0.16249700 9011.69873595 0 141.42126875 0 2489.83368197 0 -136.48854804 0 1029.82253736 0 28590
0.16350000 0.16349900 8816.16147965 0 31.69430835 0 2516.66192500 0 368.43825174 0 736.07154546 0 29163
0.16450000 0.16449100 8905.44870699 0 -7.77136584 0 2734.41026489 0 50.81831705 0 950.61334007 0 28996
0.16550000 0.16550500 8906.12411880 0 42.09974704 0 2352.90224094 0 244.61755052 0 538.80700649 0 30777
0.16650000 0.16650700 8845.44777880 0 -8.08069338 0 2637.80423085 0 -35.66495475 0 866.44706296 0 29211
0.16750000 0.16749900 8754.40005181 0 100.11263931 0 2109.95328977 0 -76.86064647 0 758.06339701 0 30922
0.16850000 0.16850800 8819.63818964 0 100.51556121 0 2515.56576485 0 31.45946434 0 666.69457261 0 30867
0.16950000 0.16949900 8620.98961007 0 193.76346986 0 2254.90109397 0 -4.73038504 0 435.59522346 0 30852
0.17050000 0.17049200 8512.60262242 0 181.34253588 0 2341.89635007 0 179.55324819 0 737.13781034 0 31257
0.17150000 0.17149500 8367.90948169 0 79.96665503 0 2186.78415168 0 237.30317275 0 728.08286310 0 32608
0.17250000 0.17250900 8267.69386976 0 132.04300962 0 2190.27193400 0 153.99610804 0 674.04327459 0 32361
0.17350000 0.17350400 8116.08052602 0 211.72388795 0 1992.73058691 0 313.22278233 0 783.93831288 0 32508
0.17450000 0.17449800 7994.29602534 0 135.68912619 0 1984.48170492 0 45.43229537 0 885.39845412 0 32791
0.17550000 0.17549800 7883.62813877 0 22.41259990 0 1965.34872763 0 48.88575348 0 843.09552992 0 33633
0.17650000 0.17650100 7949.43096517 0 97.21412612 0 2109.02321448 0 -271.28635208 0 581.51849948 0 33984
0.17750000 0.17750300 7763.37161892 0 180.08804148 0 2240.90567540 0 -211.54119459 0 699.98683887 0 34069
0.17850000 0.17849800 7719.79094843 0 172.53671595 0 2352.54792654 0 -168.91274404 0 593.00160754 0 34536
