### header ###
fiducial parameters:
Omega_m = 0.31
Omega_nu = 0
Omega_de = 0.69
Omega_k = 0
H_0 = 100
w_de = -1
zeff = 0
beta = 0
fgrowth = 0
b_1 = 2
gamma = 0.55
Lx = 3500 Ly = 3500 Lz = 3500
nx = 700 ny = 700 nz = 700
xoffset = -685.467585 yoffset = -31.7331281 zoffset = 572.489161
bins = 400 dk = 0.001
kx_ny = 0.628318531 ky_ny = 0.628318531 kz_ny = 0.628318531
############################
A(data) = 8.03438176 (not used)
A(ran) = 8.03778229 (used)
Ngal = 477875
weighted Ngal = 0
Nran = 23820508
weighted Nran = 0
SN(data) = 3482.7978
SN(ran) = 70.0119988
SN(data+ran) = 3552.8098
############################
13 columns: k_central k_mean P_0(k) sigma^{lin}_{P_0(k)} P^img_1(k) sigma^{lin}_{P_1(k)} P_2(k) sigma^{lin}_{P_2(k)} P^img_3(k) sigma^{lin}_{P_3(k)} P_4(k) sigma^{lin}_{P_4(k)} N_modes
### header ###
0.00050000 0 0 0 0 0 0 0 0 0 0 0 0
0.00150000 0.00179520 32069.43871173 0 -33387.82042789 0 5382.58926409 0 -23163.96786010 0 47072.99245724 0 3
0.00250000 0.00253879 48064.07625176 0 -20148.75236548 0 9747.97511941 0 -14708.25484259 0 -32741.63955147 0 6
0.00350000 0.00331552 61153.22503612 0 -8736.35216236 0 20239.54542900 0 -22869.33329667 0 37187.39941266 0 7
0.00450000 0.00420575 71346.96088041 0 -6996.08165364 0 29745.91134854 0 -21802.07190740 0 10118.52154179 0 24
0.00550000 0.00557378 79688.96112202 0 3901.06791405 0 42139.93958079 0 885.37741671 0 9956.12375368 0 45
0.00650000 0.00659388 85248.48613671 0 3694.51369456 0 63611.50259236 0 -1153.18262986 0 -7701.97557780 0 40
0.00750000 0.00754703 81006.67849869 0 12373.10153834 0 53966.95405907 0 -5063.79488791 0 -8948.89650958 0 57
0.00850000 0.00846663 80349.64674395 0 13444.57041104 0 53150.25938045 0 14241.33490499 0 -5192.59924253 0 75
0.00950000 0.00948925 70273.60971249 0 11137.54081183 0 57126.33122283 0 -10136.22618918 0 1261.73570238 0 112
0.01050000 0.01054430 80410.76597695 0 -6932.82546195 0 46023.88968067 0 22700.59106644 0 -4695.21933935 0 105
0.01150000 0.01145670 84252.19834953 0 -18797.70729111 0 57267.72481076 0 14533.97644995 0 -14375.64220504 0 144
0.01250000 0.01249090 106698.67956138 0 -13500.48565138 0 51168.31323791 0 19871.27990553 0 -28370.72860607 0 169
0.01350000 0.01339930 109313.96268355 0 -4561.80889761 0 62573.80431035 0 20669.92669470 0 -14633.51665007 0 180
0.01450000 0.01448870 111238.11129053 0 9350.36793518 0 48134.49623760 0 5044.98300804 0 -19154.56832002 0 267
0.01550000 0.01550050 100360.88083519 0 11617.74753921 0 54180.20703508 0 3166.04270329 0 10216.07979577 0 238
0.01650000 0.01653350 87299.41286287 0 20162.37132501 0 43681.09647230 0 3424.70328338 0 -16609.92663020 0 315
0.01750000 0.01747870 83554.42043946 0 13258.66607734 0 47468.27445327 0 -5655.57743249 0 2949.35730659 0 297
0.01850000 0.01844180 74152.13437321 0 -1350.79041090 0 44648.81766145 0 5391.12602652 0 -17793.89032305 0 388
0.01950000 0.01947590 71647.35305274 0 3197.63204600 0 37728.17175680 0 6151.47364414 0 -22136.12394718 0 399
0.02050000 0.02045430 69165.60216789 0 -3871.59338539 0 27263.93901719 0 10016.37934534 0 -26330.20986524 0 462
0.02150000 0.02154770 68836.42195103 0 -1297.37751598 0 21664.99652615 0 11599.36748001 0 -32002.78331633 0 571
0.02250000 0.02255340 69662.86027549 0 6695.87771083 0 20553.11366786 0 -2764.03980610 0 -36140.28965456 0 510
0.02350000 0.02348930 68716.17650350 0 -624.47690531 0 12368.78333166 0 6412.89123311 0 -25555.47929768 0 555
0.02450000 0.02439640 58017.65337073 0 4308.83949248 0 17789.57211637 0 -5738.78595350 0 -5222.07377119 0 592
0.02550000 0.02547300 65607.51058741 0 584.22457566 0 14084.55078556 0 5719.66404854 0 -24119.28804545 0 837
0.02650000 0.02652900 60732.47669301 0 -1817.58855293 0 21868.61657956 0 4208.23634917 0 -9482.11752819 0 723
0.02750000 0.02749970 63766.51513982 0 3651.22090452 0 12954.50931457 0 -2236.04492480 0 -5757.53139942 0 826
0.02850000 0.02848090 64608.89761202 0 -4232.30758333 0 15648.29521970 0 4113.75620150 0 5207.44723011 0 831
0.02950000 0.02946900 69161.72685420 0 -1826.54606371 0 14484.04026502 0 3581.48740281 0 -920.32499553 0 996
0.03050000 0.03053250 66631.58990989 0 3200.13439141 0 17885.23700281 0 3083.46530480 0 4777.55314670 0 1041
0.03150000 0.03150510 66667.35351905 0 2496.65423406 0 17002.44054502 0 568.74435833 0 137.23592996 0 1036
0.03250000 0.03246190 63717.13257113 0 3694.13723552 0 12006.16469385 0 3223.82916652 0 2753.68718240 0 1059
0.03350000 0.03345080 60180.41057755 0 1961.03052096 0 15430.39186727 0 1545.82941258 0 4916.32259365 0 1302
0.03450000 0.03451200 58457.99972877 0 1992.65308064 0 16010.91385751 0 109.06937503 0 -2548.43949723 0 1339
0.03550000 0.03553350 56480.92540915 0 4121.05286355 0 19329.73249865 0 -3713.83490137 0 284.40041359 0 1365
0.03650000 0.03647120 52566.19424627 0 2937.41026811 0 17848.25543791 0 -3384.44431034 0 -2738.35201252 0 1308
0.03750000 0.03744890 50684.56336659 0 1831.51753755 0 22518.89421616 0 -4620.10468778 0 -3428.96612844 0 1579
0.03850000 0.03847530 49712.52397076 0 1361.84059107 0 24189.70803130 0 31.48592719 0 -8131.71464866 0 1662
0.03950000 0.03950240 47197.22394171 0 678.23082784 0 21362.83278185 0 2932.18413080 0 -9970.41812502 0 1683
0.04050000 0.04050350 46868.70806434 0 2887.70660200 0 16935.89587286 0 2143.90103766 0 -12142.57573562 0 1822
0.04150000 0.04152450 44784.67508697 0 1247.68492219 0 14591.33109251 0 1277.64663315 0 -7634.74442150 0 1887
0.04250000 0.04250150 44176.14011494 0 390.20090617 0 12266.69649683 0 4318.79351249 0 -5329.72998540 0 1920
0.04350000 0.04349210 44000.97593631 0 -713.65451663 0 12026.09487852 0 1237.43194941 0 -7391.44115594 0 2005
0.04450000 0.04448520 43806.43518924 0 202.97785858 0 11096.24104025 0 4262.03677547 0 -10158.22689859 0 2151
0.04550000 0.04548030 43069.35052607 0 1257.15175991 0 13028.80461410 0 -1278.21132171 0 -7510.24720124 0 2274
0.04650000 0.04648670 41846.41224985 0 2996.65827822 0 14527.33305506 0 -534.60838092 0 -5458.40147212 0 2311
0.04750000 0.04749250 41560.19265329 0 1404.20330583 0 17577.75854259 0 -3097.89254403 0 1480.84593822 0 2568
0.04850000 0.04851840 39628.18269568 0 2434.25061138 0 17973.04053862 0 1651.60333157 0 -167.56634934 0 2493
0.04950000 0.04949480 38666.77273168 0 508.58288143 0 17186.79475325 0 1886.44734098 0 3115.71898699 0 2644
0.05050000 0.05050630 37586.22455262 0 -427.55339394 0 16419.59336656 0 2541.47500492 0 -1605.21029058 0 2829
0.05150000 0.05149060 39131.25675782 0 -287.92252012 0 17958.97868610 0 1420.13638124 0 -2084.83018475 0 2784
0.05250000 0.05249300 38402.25489176 0 906.83779667 0 14873.34320564 0 305.28281820 0 -1482.07496628 0 3055
0.05350000 0.05348950 37683.88245753 0 843.20403870 0 14318.06611598 0 -1814.44401268 0 42.67561866 0 3009
0.05450000 0.05448610 37877.53741860 0 -1347.21404998 0 14116.32835779 0 2565.21406933 0 -1435.10616439 0 3336
0.05550000 0.05550870 39507.93724815 0 -1796.96081179 0 14039.37570030 0 4012.68802055 0 -1124.61603183 0 3349
0.05650000 0.05647670 38431.04293629 0 1009.49596346 0 9955.19367839 0 5708.91282114 0 -1352.46233195 0 3324
0.05750000 0.05747970 38300.38950343 0 2334.30073524 0 8168.61870728 0 2145.22971664 0 -3143.26693114 0 3639
0.05850000 0.05849280 36145.27220073 0 714.60009317 0 8135.91105977 0 -558.03077684 0 -1995.26614929 0 3846
0.05950000 0.05951020 34255.22635418 0 2126.30711352 0 6684.09675722 0 -1324.27219296 0 -3973.08231467 0 3787
0.06050000 0.06049470 33639.82654076 0 2015.58386534 0 7595.90270604 0 -765.20947545 0 -2484.39717048 0 3930
0.06150000 0.06148310 32236.52009325 0 174.53416335 0 7314.82066819 0 -155.13323580 0 -3984.38715831 0 4083
0.06250000 0.06249100 32652.95022968 0 -11.04879613 0 8997.37114763 0 -1110.50989001 0 -2003.52610361 0 4303
0.06350000 0.06350600 32619.40108548 0 30.29764529 0 9182.63328650 0 -942.84942591 0 -2252.08872346 0 4470
0.06450000 0.06451750 32697.68242194 0 856.97911801 0 11566.26122881 0 -488.41907070 0 -359.86605786 0 4479
0.06550000 0.06550280 31925.27704260 0 1431.05369351 0 12407.86863827 0 350.15895069 0 -1411.38924463 0 4636
0.06650000 0.06648880 31506.85388770 0 603.86245096 0 13213.26954558 0 299.86955860 0 537.90571925 0 4653
0.06750000 0.06749660 30377.25530970 0 483.47195597 0 11950.36017676 0 2155.91451009 0 -636.00430268 0 5220
0.06850000 0.06852730 29562.77509604 0 662.69192719 0 11021.40319681 0 1871.40005155 0 -301.74853212 0 5029
0.06950000 0.06949320 29641.27787901 0 -174.52973442 0 7815.90980018 0 3181.65468129 0 -787.21572103 0 5040
0.07050000 0.07048030 29293.82832620 0 -504.83711394 0 7064.35360847 0 3549.37766084 0 -849.10115890 0 5475
0.07150000 0.07148790 29404.99446738 0 -192.09597774 0 6300.76179967 0 584.03966784 0 -2016.30356645 0 5509
0.07250000 0.07249820 29225.29063557 0 899.79247639 0 6365.64562311 0 -766.32335133 0 -2067.84523848 0 5916
0.07350000 0.07351270 28284.36447248 0 1075.75607687 0 6580.67017109 0 -1530.78212315 0 1137.43778397 0 5721
0.07450000 0.07449140 27303.13504705 0 773.86139006 0 7481.76918181 0 -387.88014688 0 281.52493084 0 6028
0.07550000 0.07549160 27668.41104282 0 305.66038448 0 8853.16518919 0 372.00686202 0 1489.02838626 0 6183
0.07650000 0.07648840 26993.99573812 0 654.53937442 0 9517.60432924 0 173.78456696 0 -537.17826751 0 6330
0.07750000 0.07749960 26748.85446663 0 673.53505488 0 8440.68787272 0 -391.18412861 0 -156.81844364 0 6583
0.07850000 0.07848650 25653.02647933 0 1081.12726164 0 9803.20387561 0 -613.99252094 0 -688.62331191 0 6549
0.07950000 0.07947320 25185.66364873 0 613.48762292 0 8616.10671483 0 -59.81015204 0 -131.45064025 0 6828
0.08050000 0.08048110 24830.90636154 0 -108.14251072 0 8655.73456535 0 1118.94700152 0 -1368.12967157 0 7147
0.08150000 0.08149960 24511.80196027 0 459.28114071 0 8657.34005245 0 915.93260428 0 -2352.35969702 0 7386
0.08250000 0.08250610 24444.03933238 0 833.56447272 0 7718.75014990 0 527.58963421 0 -1595.76559751 0 7227
0.08350000 0.08350160 22926.35576949 0 882.35356480 0 7462.53655360 0 757.11782047 0 349.94525482 0 7798
0.08450000 0.08449610 22821.27940696 0 198.39280887 0 6717.14764680 0 2082.16175447 0 -161.73455586 0 7371
0.08550000 0.08548940 22344.28365377 0 348.53242618 0 6831.43618358 0 733.90912042 0 -226.78114247 0 8256
0.08650000 0.08650700 21966.16376122 0 564.46158309 0 5859.99469329 0 105.42790884 0 -538.27442766 0 8037
0.08750000 0.08749060 21576.75009734 0 573.79776738 0 6645.84187497 0 -307.14629047 0 447.17355352 0 8155
0.08850000 0.08849210 21148.91546635 0 831.00898015 0 6535.86047255 0 -686.96689212 0 319.24059087 0 8718
0.08950000 0.08949900 20506.38845713 0 429.61727529 0 8093.08330737 0 -291.57195838 0 232.81113057 0 8571
0.09050000 0.09049190 19985.98919065 0 489.35025322 0 8013.67259377 0 148.65038962 0 541.67473862 0 8932
0.09150000 0.09150830 20007.13733105 0 539.64185978 0 8420.20407181 0 721.32431603 0 1284.93222288 0 9285
0.09250000 0.09250820 19339.80831423 0 322.93764013 0 8104.22206614 0 193.66381894 0 2607.16710807 0 9204
0.09350000 0.09350330 19329.62177540 0 345.94925280 0 8153.56034553 0 1075.29325369 0 3090.81732848 0 9349
0.09450000 0.09448040 18921.38515934 0 -43.82160427 0 8041.95131136 0 1505.58151187 0 3983.34635978 0 9564
0.09550000 0.09549270 19105.85009082 0 33.56187737 0 7642.28467470 0 1571.14074712 0 3204.72940621 0 10155
0.09650000 0.09649430 18584.34359186 0 281.20272619 0 6987.79955467 0 1399.89617147 0 4004.77130831 0 9913
0.09750000 0.09749140 18711.67532727 0 -190.63775257 0 6492.04728324 0 1035.73405158 0 2828.42537492 0 10476
0.09850000 0.09850240 18378.50907348 0 258.58085935 0 5660.44925541 0 394.04743181 0 3066.61322642 0 10575
0.09950000 0.09950330 18183.85760317 0 499.32752511 0 5252.96555744 0 -145.97863764 0 2427.61828881 0 10882
0.10050000 0.10051200 17600.34608522 0 453.27772619 0 5239.16944071 0 608.15186959 0 1891.13093438 0 10875
0.10150000 0.10150300 17695.12518567 0 -42.12720641 0 4357.74595120 0 -555.46310471 0 1310.70859506 0 11118
0.10250000 0.10250800 17415.77043050 0 52.33478266 0 4554.95512854 0 -175.61371502 0 230.63984767 0 11575
0.10350000 0.10349800 17462.05274824 0 385.39773166 0 4968.71683469 0 -1001.52942575 0 1301.26390199 0 11364
0.10450000 0.10450100 17105.41316583 0 469.00596360 0 5624.72993555 0 -489.05794384 0 284.08042341 0 12093
0.10550000 0.10551000 17110.61715850 0 488.27845218 0 6230.50789870 0 -516.88269611 0 316.20677387 0 12067
0.10650000 0.10649700 16363.01378674 0 487.91527992 0 6173.15325614 0 -469.42117578 0 916.72538273 0 12054
0.10750000 0.10749900 16287.05763848 0 498.50152968 0 6724.46645351 0 363.67383037 0 1034.58806596 0 12807
0.10850000 0.10850100 15972.27144389 0 263.96311644 0 6374.10487927 0 548.66691174 0 120.31520318 0 12736
0.10950000 0.10950300 15533.58593458 0 245.51994499 0 6055.76446841 0 601.41435994 0 812.72414294 0 12933
0.11050000 0.11050200 15352.66414704 0 357.52204670 0 5986.38528110 0 268.40754763 0 70.87317610 0 13428
0.11150000 0.11150900 14970.33677105 0 187.31605512 0 5187.05200779 0 -3.84393472 0 -723.55760395 0 13453
0.11250000 0.11250000 14891.16964860 0 33.63218664 0 5784.32642548 0 -247.26162169 0 -1195.40140440 0 13668
0.11350000 0.11349100 14863.04594356 0 106.24294267 0 5080.55838769 0 -284.80455345 0 -1304.08734482 0 13791
0.11450000 0.11448600 14703.60446617 0 199.86099914 0 5451.41483516 0 88.22904525 0 -1056.37840121 0 14205
0.11550000 0.11549300 14792.73668096 0 136.64245335 0 5319.89776097 0 -236.90124735 0 -722.70614217 0 14776
0.11650000 0.11649800 14843.00503564 0 -201.53402742 0 5312.62324356 0 1094.62774729 0 -451.40539607 0 14553
0.11750000 0.11747300 14829.71824585 0 -145.81144554 0 4811.51196692 0 982.84377039 0 -344.21532673 0 14568
0.11850000 0.11849100 14949.52080039 0 -19.86784748 0 4377.48790635 0 1020.00027801 0 -828.31951245 0 16015
0.11950000 0.11950300 14674.81642164 0 337.49774726 0 4381.17499052 0 -56.10978108 0 162.39889535 0 15270
0.12050000 0.12050700 14511.05673757 0 635.11519499 0 4355.80829436 0 129.54066422 0 571.65084360 0 15999
0.12150000 0.12150000 13801.32071670 0 390.92614344 0 4313.43450728 0 -56.72141630 0 1159.79280778 0 15670
0.12250000 0.12250700 13692.81193348 0 354.58123722 0 4269.21164195 0 559.52886239 0 663.94309989 0 16887
0.12350000 0.12352200 13577.88120186 0 25.85088892 0 4814.33540975 0 -81.60414115 0 604.15808203 0 16407
0.12450000 0.12449800 13418.43972447 0 47.16987530 0 4318.67171691 0 268.72643058 0 -159.12037997 0 16306
0.12550000 0.12549900 13448.88861772 0 205.64850332 0 4494.47809038 0 -329.38726933 0 508.16102585 0 17523
0.12650000 0.12650100 13310.48455749 0 -37.76260669 0 4148.47901213 0 -57.07218755 0 431.87492232 0 17154
0.12750000 0.12750600 13071.98668089 0 154.37921048 0 4110.82203542 0 602.07869943 0 326.36673912 0 18007
0.12850000 0.12850300 13207.62265992 0 145.60771476 0 3665.67028841 0 572.21996109 0 425.42418588 0 17496
0.12950000 0.12949900 13024.37568417 0 6.86114323 0 3341.49476237 0 637.98846328 0 151.09073001 0 18405
0.13050000 0.13049000 12947.64447318 0 195.76534619 0 3239.74009729 0 514.34159757 0 573.72358280 0 18100
0.13150000 0.13148800 12751.77504714 0 197.05748649 0 3132.74822256 0 -225.37827892 0 -144.92676678 0 19059
0.13250000 0.13249300 12653.45280275 0 239.07474472 0 3433.15146722 0 -248.16069446 0 703.84997300 0 18957
0.13350000 0.13349100 12470.31655025 0 84.52856358 0 3164.47043317 0 -23.44642287 0 261.74311532 0 19468
0.13450000 0.13450700 12511.50559857 0 56.65686465 0 3432.84144212 0 -21.25565268 0 344.52645906 0 19953
0.13550000 0.13551000 12408.53297776 0 111.82605174 0 3497.21593862 0 -7.89330535 0 -242.49498585 0 19956
0.13650000 0.13649900 12249.64511661 0 344.45781064 0 3478.82480710 0 289.07072020 0 -518.78049259 0 19723
0.13750000 0.13749600 11953.90332071 0 326.03789107 0 3303.84885799 0 -68.29509599 0 -26.19734197 0 20946
0.13850000 0.13851100 11741.53613069 0 236.53253894 0 3426.72951882 0 45.88770009 0 -59.50300575 0 20955
0.13950000 0.13949800 11611.98993031 0 166.18673767 0 3334.43061914 0 237.04408034 0 137.87037418 0 20506
0.14050000 0.14048300 11437.49009117 0 260.05347855 0 3402.52541677 0 161.16100943 0 421.72381493 0 21447
0.14150000 0.14148400 11254.24311542 0 216.41412474 0 3619.85300831 0 -107.05387974 0 39.23932265 0 21771
0.14250000 0.14249400 11087.93679664 0 308.65323388 0 3778.66336318 0 -419.76954959 0 304.88642897 0 22470
0.14350000 0.14350900 10866.40172167 0 270.11822181 0 3733.15610818 0 -216.27018452 0 660.71551721 0 22519
0.14450000 0.14449900 10820.94982829 0 6.78031526 0 4044.26629093 0 93.24746576 0 850.04009205 0 22218
0.14550000 0.14550500 10871.38426784 0 -82.97777376 0 4064.87188742 0 277.10264431 0 786.23360581 0 23559
0.14650000 0.14650700 10946.52106406 0 105.21974914 0 4110.54522730 0 434.31747717 0 700.38654980 0 23044
0.14750000 0.14750500 10714.12403844 0 375.70058958 0 3924.17585595 0 425.49504876 0 1045.28725343 0 23649
0.14850000 0.14849900 10430.20748544 0 245.08590986 0 3708.14372641 0 454.72487905 0 1620.96620880 0 23640
0.14950000 0.14949500 10310.57101577 0 29.84080117 0 3616.01091160 0 904.03982019 0 1620.91084718 0 24457
0.15050000 0.15050000 10246.03043441 0 19.66345237 0 3432.28782588 0 517.73637236 0 1621.90735641 0 24591
0.15150000 0.15149900 10146.96634425 0 119.72172657 0 2920.51390044 0 277.71272940 0 1265.22348470 0 25020
0.15250000 0.15250500 10009.89096300 0 95.09001133 0 2773.44020987 0 -112.23129883 0 1560.55560459 0 25297
0.15350000 0.15350100 9979.54172067 0 72.59447972 0 2668.04274993 0 -277.13918298 0 703.87765381 0 25452
0.15450000 0.15450400 9889.06975458 0 82.05910297 0 2707.40486466 0 -300.70884082 0 418.56045172 0 26061
0.15550000 0.15549900 9809.57046238 0 254.19068256 0 2683.13432865 0 -436.58508930 0 83.93885156 0 26128
0.15650000 0.15649500 9576.01084265 0 246.13999518 0 2907.82501620 0 -234.68456793 0 -45.75018181 0 26331
0.15750000 0.15749700 9445.47920537 0 242.30232740 0 2893.37563231 0 -119.27329741 0 5.36062177 0 27345
0.15850000 0.15849900 9181.98001933 0 189.39211602 0 2905.75449146 0 32.51930727 0 -312.18530549 0 26980
0.15950000 0.15949700 9146.75895409 0 142.67354868 0 3088.55857421 0 205.17460782 0 -229.47946803 0 27777
0.16050000 0.16050000 9006.42830933 0 92.68454876 0 3083.77532989 0 356.56982676 0 -489.69238806 0 28224
0.16150000 0.16150500 8902.37060069 0 16.29846213 0 2930.40148650 0 85.73622204 0 -30.79423906 0 28075
0.16250000 0.16249700 8945.82947560 0 12.18575780 0 2716.58382193 0 206.09693248 0 -283.84458289 0 28590
0.16350000 0.16349900 8922.36721931 0 80.89994129 0 2879.19198422 0 114.33171884 0 -237.61209061 0 29163
0.16450000 0.16449100 8820.31360146 0 204.33975453 0 2913.35010628 0 -177.94554663 0 -225.58533139 0 28996
0.16550000 0.16550500 8722.72213051 0 189.49508864 0 3144.16378945 0 -192.15133937 0 -101.28475562 0 30777
0.16650000 0.16650700 8724.08402646 0 85.54710674 0 2925.17534919 0 39.99168712 0 184.72623834 0 29211
0.16750000 0.16749900 8600.15149476 0 61.27269542 0 3048.74249416 0 105.52379517 0 139.70395117 0 30922
0.16850000 0.16850800 8709.73429349 0 45.06635503 0 3162.20060658 0 135.46325076 0 163.67331993 0 30867
0.16950000 0.16949900 8483.55991442 0 148.60167139 0 2932.63809612 0 502.10667864 0 82.74016167 0 30852
0.17050000 0.17049200 8423.44826298 0 85.39054406 0 2569.52120369 0 303.52121132 0 105.55424407 0 31257
0.17150000 0.17149500 8284.04769352 0 27.94865158 0 2169.48918032 0 445.81719373 0 125.44611850 0 32608
0.17250000 0.17250900 8379.48006113 0 2.95049776 0 2004.51154052 0 284.11806931 0 -140.84993679 0 32361
0.17350000 0.17350400 8234.47689530 0 -14.22705161 0 1802.13158748 0 330.81670647 0 -150.17726321 0 32508
0.17450000 0.17449800 8175.30639147 0 156.79629899 0 1528.73374306 0 271.69492086 0 -162.70116982 0 32791
0.17550000 0.17549800 8027.80088024 0 146.13032849 0 1561.36388430 0 92.37208776 0 85.36961737 0 33633
0.17650000 0.17650100 7940.53988834 0 173.50997330 0 1608.44340943 0 31.25351910 0 103.40610233 0 33984
0.17750000 0.17750300 7877.33905828 0 138.62107780 0 1633.50008049 0 -114.29407294 0 277.56325302 0 34069
0.17850000 0.17849800 7756.65071775 0 70.61076200 0 1883.14778818 0 -282.31106590 0 221.82295542 0 34536
