### header ###
fiducial parameters:
Omega_m = 0.31
Omega_nu = 0
Omega_de = 0.69
Omega_k = 0
H_0 = 100
w_de = -1
zeff = 0
beta = 0
fgrowth = 0
b_1 = 2
gamma = 0.55
Lx = 3500 Ly = 3500 Lz = 3500
nx = 700 ny = 700 nz = 700
xoffset = -685.467585 yoffset = -31.7331281 zoffset = 572.489161
bins = 400 dk = 0.001
kx_ny = 0.628318531 ky_ny = 0.628318531 kz_ny = 0.628318531
############################
A(data) = 8.05457635 (not used)
A(ran) = 8.04599068 (used)
Ngal = 478904
weighted Ngal = 0
Nran = 23820508
weighted Nran = 0
SN(data) = 3495.5935
SN(ran) = 70.0834968
SN(data+ran) = 3565.677
############################
13 columns: k_central k_mean P_0(k) sigma^{lin}_{P_0(k)} P^img_1(k) sigma^{lin}_{P_1(k)} P_2(k) sigma^{lin}_{P_2(k)} P^img_3(k) sigma^{lin}_{P_3(k)} P_4(k) sigma^{lin}_{P_4(k)} N_modes
### header ###
0.00050000 0 0 0 0 0 0 0 0 0 0 0 0
0.00150000 0.00179520 20815.52776606 0 -26599.04591183 0 -23802.28738589 0 13948.58263679 0 57289.64801390 0 3
0.00250000 0.00253879 38500.79858265 0 -28235.64624328 0 -4111.29814539 0 -58085.52672187 0 -17293.19979475 0 6
0.00350000 0.00331552 62562.84270878 0 -23467.01739038 0 -9249.04509076 0 -21351.42828728 0 -40737.62964251 0 7
0.00450000 0.00420575 87462.17603771 0 -20193.04166476 0 -2401.80869966 0 -41618.10091209 0 23039.95782213 0 24
0.00550000 0.00557378 87829.99866818 0 8673.85996108 0 10372.55389011 0 -23945.23109930 0 21105.62267631 0 45
0.00650000 0.00659388 77501.51263085 0 8488.29886945 0 48137.37504206 0 -40958.30107614 0 7062.08378188 0 40
0.00750000 0.00754703 88229.82031738 0 -6101.58174851 0 23180.68707057 0 4923.41995386 0 -32442.46533487 0 57
0.00850000 0.00846663 86583.14417035 0 -9357.80853745 0 47186.15161689 0 -15662.68924196 0 -11066.29040162 0 75
0.00950000 0.00948925 94257.26177891 0 11195.22762413 0 39223.82139330 0 -21872.38117000 0 -26004.24062258 0 112
0.01050000 0.01054430 97670.08445776 0 -119.33087350 0 64295.10792666 0 -19269.38832839 0 -4410.31734944 0 105
0.01150000 0.01145670 95173.60738090 0 7653.65595229 0 71708.25083924 0 12905.56963887 0 -13085.49491717 0 144
0.01250000 0.01249090 88800.26649204 0 17812.38110550 0 87916.36280177 0 18351.82477067 0 -1568.00727919 0 169
0.01350000 0.01339930 75118.41616013 0 11476.46467453 0 68197.21663925 0 51115.05535554 0 -7868.66942794 0 180
0.01450000 0.01448870 77638.03439587 0 3264.74140673 0 70597.14304369 0 39136.12858074 0 22016.21066940 0 267
0.01550000 0.01550050 68351.01123098 0 3986.34695981 0 70233.74934314 0 36023.58735097 0 37083.65172911 0 238
0.01650000 0.01653350 72524.17045513 0 3478.51478200 0 63682.03330145 0 38925.09006970 0 41008.01581458 0 315
0.01750000 0.01747870 68354.44365167 0 2098.32734871 0 58567.72646772 0 20491.10864888 0 52764.83175351 0 297
0.01850000 0.01844180 63506.20478333 0 926.64175684 0 34080.72651504 0 22732.25791542 0 43135.78447498 0 388
0.01950000 0.01947590 66912.93768353 0 -7422.98620934 0 39340.52369689 0 24888.37172735 0 36680.06548947 0 399
0.02050000 0.02045430 74785.36062959 0 -7041.83249979 0 31361.14209309 0 13256.45161237 0 10480.32082757 0 462
0.02150000 0.02154770 76310.90554310 0 -2178.42454644 0 7905.69528214 0 10004.39908989 0 11265.42616348 0 571
0.02250000 0.02255340 74322.09455918 0 3271.55088649 0 7860.38732898 0 -5589.45350868 0 -4475.99838026 0 510
0.02350000 0.02348930 74207.49599730 0 4751.22315828 0 4204.74856686 0 -7896.41667394 0 153.07378339 0 555
0.02450000 0.02439640 69434.88110748 0 4375.27344139 0 10269.92451136 0 -4909.53525854 0 -3571.53338280 0 592
0.02550000 0.02547300 67495.67413874 0 4881.32297490 0 12783.10972638 0 -1064.19324806 0 -518.39296122 0 837
0.02650000 0.02652900 66398.51747246 0 -667.32237342 0 9322.56532756 0 -1400.49407701 0 -703.03283543 0 723
0.02750000 0.02749970 66967.19207514 0 -208.49962696 0 20958.36075622 0 5285.21923963 0 -320.97562417 0 826
0.02850000 0.02848090 65389.27506524 0 4019.63036821 0 18683.88379198 0 -1887.55457346 0 840.28980281 0 831
0.02950000 0.02946900 63906.69077202 0 5365.12820785 0 28687.39709588 0 -1616.39333865 0 -1431.24192303 0 996
0.03050000 0.03053250 56435.19670765 0 6452.39728807 0 22405.07071703 0 -7002.54789133 0 4208.95605029 0 1041
0.03150000 0.03150510 54658.42074400 0 3462.67028518 0 26116.73544273 0 -2931.42014039 0 -1233.36840620 0 1036
0.03250000 0.03246190 55313.01658728 0 -3273.63248356 0 23408.33406884 0 7422.80905215 0 -6293.66443947 0 1059
0.03350000 0.03345080 54680.67611688 0 -1623.14745679 0 23231.39831824 0 5891.08578138 0 -10310.32742463 0 1302
0.03450000 0.03451200 55863.97547025 0 353.38321168 0 17451.42331641 0 3330.02383386 0 -9706.16602090 0 1339
0.03550000 0.03553350 54405.86101489 0 1389.95322378 0 17565.13609230 0 2252.75306295 0 -8185.31577311 0 1365
0.03650000 0.03647120 53582.30149488 0 1740.11549617 0 15885.02152432 0 986.40352282 0 -7946.84004116 0 1308
0.03750000 0.03744890 52725.08210742 0 1286.19446791 0 16473.84775817 0 -1157.09116052 0 -6224.55098795 0 1579
0.03850000 0.03847530 51709.86064479 0 1202.04479929 0 19487.73457381 0 -392.28028877 0 -5003.46178997 0 1662
0.03950000 0.03950240 50752.43671773 0 2026.74476875 0 20827.26443037 0 -3848.25292467 0 -1009.36752449 0 1683
0.04050000 0.04050350 48308.33173726 0 2096.02430514 0 22170.44815412 0 -2050.20702504 0 1670.61451329 0 1822
0.04150000 0.04152450 49271.95616622 0 2176.73048075 0 24521.87777586 0 1384.90424367 0 -624.21227674 0 1887
0.04250000 0.04250150 44551.60264954 0 1993.73816847 0 24380.04129493 0 3746.60898283 0 6227.18620125 0 1920
0.04350000 0.04349210 45573.13533731 0 1969.85516384 0 24637.02995397 0 9809.42652216 0 -294.52826911 0 2005
0.04450000 0.04448520 43595.72884795 0 -203.22255695 0 17166.31095233 0 5644.81513277 0 2712.43170012 0 2151
0.04550000 0.04548030 41795.03666269 0 -151.74178271 0 15144.39371720 0 7173.09491051 0 4450.37702063 0 2274
0.04650000 0.04648670 43425.65793873 0 -159.15359694 0 12194.61566226 0 422.70150121 0 -267.47415064 0 2311
0.04750000 0.04749250 39973.08561378 0 2120.07339465 0 12319.29003972 0 -1137.01703563 0 1402.12170876 0 2568
0.04850000 0.04851840 40714.59920689 0 2269.31726088 0 11085.61160843 0 -1710.18700219 0 2344.42084013 0 2493
0.04950000 0.04949480 38613.84701904 0 874.61290252 0 10537.83048268 0 -1034.00233998 0 1429.11603667 0 2644
0.05050000 0.05050630 39570.05299038 0 -1542.55200443 0 10690.82786702 0 1596.03133331 0 -1650.13071237 0 2829
0.05150000 0.05149060 39116.86273555 0 -466.87786277 0 10423.59730752 0 1088.27666178 0 -3695.75379494 0 2784
0.05250000 0.05249300 40046.93802032 0 193.12459672 0 7574.15666009 0 1228.23084748 0 -2751.64987463 0 3055
0.05350000 0.05348950 39736.91292540 0 467.62856639 0 8178.55058264 0 158.44386092 0 -3047.11486242 0 3009
0.05450000 0.05448610 38004.09409128 0 1836.50008372 0 8994.97952547 0 751.80089009 0 -1266.71824855 0 3336
0.05550000 0.05550870 37083.76245235 0 2886.40006767 0 10774.46820870 0 852.66201856 0 1963.26713057 0 3349
0.05650000 0.05647670 34380.45434788 0 1603.91482858 0 10260.74555409 0 2790.22585430 0 5073.56067840 0 3324
0.05750000 0.05747970 34025.36489095 0 727.76619461 0 11784.49675098 0 1755.47281070 0 3498.31209878 0 3639
0.05850000 0.05849280 33566.08485747 0 -559.72041360 0 10814.43930130 0 3270.69831748 0 7380.10309532 0 3846
0.05950000 0.05951020 33586.12576539 0 -225.10036356 0 11153.81712931 0 1876.96943093 0 5680.47909101 0 3787
0.06050000 0.06049470 34345.57652470 0 -162.19737904 0 9776.69672999 0 666.93152036 0 7478.86823270 0 3930
0.06150000 0.06148310 33590.55469532 0 517.92570911 0 11593.60987111 0 -1857.32712670 0 5952.59254575 0 4083
0.06250000 0.06249100 33273.66475901 0 1585.14723801 0 10779.96008181 0 -452.62224456 0 6915.96231125 0 4303
0.06350000 0.06350600 32736.87845180 0 719.72215063 0 13037.55175071 0 -754.61436783 0 7934.88193036 0 4470
0.06450000 0.06451750 32901.08102886 0 59.91533912 0 12098.17571309 0 -595.51723974 0 6352.12631451 0 4479
0.06550000 0.06550280 32337.61041884 0 -500.43254313 0 13786.37307819 0 823.13987890 0 4653.67597663 0 4636
0.06650000 0.06648880 32921.23266003 0 846.85015527 0 13231.09598854 0 554.41123385 0 2339.30542606 0 4653
0.06750000 0.06749660 32001.23319085 0 924.80817985 0 13232.86756051 0 -1074.96662011 0 2042.40103605 0 5220
0.06850000 0.06852730 31192.17841635 0 702.83574805 0 11895.77361541 0 -1124.73782740 0 1132.08985108 0 5029
0.06950000 0.06949320 30677.20458904 0 860.62523457 0 11578.21933961 0 811.63905511 0 134.05042211 0 5040
0.07050000 0.07048030 29451.27678512 0 -301.50494097 0 10254.24609942 0 4146.24240251 0 854.41255312 0 5475
0.07150000 0.07148790 30136.65369139 0 -59.86806029 0 9397.23708613 0 4202.37908934 0 87.67088936 0 5509
0.07250000 0.07249820 29214.43975725 0 254.62250323 0 7895.44230936 0 2709.34252150 0 -395.23327780 0 5916
0.07350000 0.07351270 29341.55004616 0 1131.07119720 0 8294.75463162 0 1463.92742590 0 1588.83432218 0 5721
0.07450000 0.07449140 27819.10538360 0 1373.11221773 0 8065.49107392 0 -1109.31407893 0 3626.95036852 0 6028
0.07550000 0.07549160 26872.53233485 0 1263.06438136 0 9508.35893801 0 169.88932309 0 3920.26732529 0 6183
0.07650000 0.07648840 26777.42106466 0 100.25757604 0 10146.57881288 0 93.53700705 0 4914.05276706 0 6330
0.07750000 0.07749960 26029.26407667 0 475.27954284 0 10339.30369868 0 -485.95437120 0 2964.54853624 0 6583
0.07850000 0.07848650 26586.97707778 0 1073.05775131 0 9710.08562388 0 -1273.85989806 0 2662.03047755 0 6549
0.07950000 0.07947320 25528.79499486 0 654.94351428 0 10459.49378458 0 -2139.91500073 0 1951.19829652 0 6828
0.08050000 0.08048110 24256.91704295 0 823.74221337 0 10228.49187189 0 365.34132248 0 2185.23402621 0 7147
0.08150000 0.08149960 24685.74818317 0 413.42289301 0 10038.81187542 0 930.08524986 0 1487.53362241 0 7386
0.08250000 0.08250610 24111.53741808 0 -201.90605753 0 9852.54215500 0 1712.97722804 0 -82.97910244 0 7227
0.08350000 0.08350160 23707.28683895 0 571.86011054 0 9097.36531307 0 1478.96364300 0 579.74249857 0 7798
0.08450000 0.08449610 23167.95389703 0 1043.55775630 0 8854.27242168 0 1206.88340523 0 1397.74814046 0 7371
0.08550000 0.08548940 22500.18198722 0 576.25028733 0 8835.49375878 0 511.97101282 0 2993.11513428 0 8256
0.08650000 0.08650700 22021.85755505 0 380.03319029 0 8362.32902998 0 786.00662316 0 1013.66137205 0 8037
0.08750000 0.08749060 21089.23563558 0 474.16788143 0 7901.70924520 0 626.38023794 0 2545.64927138 0 8155
0.08850000 0.08849210 21460.15851700 0 20.27121228 0 6531.61977214 0 184.93107635 0 111.90798694 0 8718
0.08950000 0.08949900 21057.67950985 0 -156.66343109 0 6514.35801775 0 571.59437474 0 55.12932672 0 8571
0.09050000 0.09049190 20600.61394133 0 307.98225099 0 5992.97331437 0 328.16709914 0 -1606.26216144 0 8932
0.09150000 0.09150830 20674.24490138 0 359.87270126 0 5082.97215450 0 934.07793019 0 -1866.84932605 0 9285
0.09250000 0.09250820 19893.53527841 0 191.73501995 0 4271.60326411 0 1137.50421792 0 -1433.99893191 0 9204
0.09350000 0.09350330 20038.47201029 0 -15.36196490 0 3546.31062686 0 750.35484447 0 -1828.63873310 0 9349
0.09450000 0.09448040 20214.63269815 0 -78.33094048 0 3792.63663711 0 -44.53798369 0 -1921.01513906 0 9564
0.09550000 0.09549270 19992.85403204 0 1072.33694297 0 4447.09961249 0 -1500.33322990 0 -2089.90130952 0 10155
0.09650000 0.09649430 19021.92186869 0 1074.49051014 0 4904.37555517 0 -838.94119365 0 -191.90331929 0 9913
0.09750000 0.09749140 18571.49969507 0 646.69795399 0 5895.29326482 0 -1295.56165470 0 -441.91862816 0 10476
0.09850000 0.09850240 18314.84320577 0 284.42698717 0 6321.74385521 0 420.27223314 0 -800.97087015 0 10575
0.09950000 0.09950330 18156.95185386 0 -62.16733927 0 6902.13297755 0 686.74766009 0 -419.89355963 0 10882
0.10050000 0.10051200 17747.49728206 0 297.15241009 0 6474.05475541 0 550.59349626 0 -1155.95071107 0 10875
0.10150000 0.10150300 17397.83326429 0 441.79793982 0 6344.45319341 0 44.33425291 0 -378.99017729 0 11118
0.10250000 0.10250800 17239.94191238 0 305.32378580 0 5995.47565978 0 758.35017022 0 -473.72388120 0 11575
0.10350000 0.10349800 16869.68337044 0 206.80666850 0 5402.74089526 0 685.54299115 0 306.43323275 0 11364
0.10450000 0.10450100 16816.86838106 0 -35.03582525 0 5593.91565558 0 693.57707003 0 -547.54971416 0 12093
0.10550000 0.10551000 16856.72875040 0 141.18099930 0 4735.60010796 0 284.64843367 0 39.15705527 0 12067
0.10650000 0.10649700 16584.46028311 0 347.76179237 0 5193.03106319 0 293.54061773 0 -14.69939698 0 12054
0.10750000 0.10749900 16325.58932885 0 226.59180572 0 5222.68274906 0 -347.65106912 0 644.69718489 0 12807
0.10850000 0.10850100 16576.37748600 0 34.48176612 0 5256.90730507 0 184.17151487 0 168.80312802 0 12736
0.10950000 0.10950300 15818.91974515 0 291.89527026 0 5550.25747882 0 -567.01486120 0 568.43101154 0 12933
0.11050000 0.11050200 16428.56194967 0 109.28251728 0 5388.18078812 0 419.29565409 0 342.76153048 0 13428
0.11150000 0.11150900 16290.26861268 0 -165.69844814 0 5777.76053687 0 157.20486778 0 778.98123306 0 13453
0.11250000 0.11250000 16174.11992533 0 284.79569559 0 4996.67445486 0 -60.93709326 0 318.98924910 0 13668
0.11350000 0.11349100 15994.74826327 0 369.24320975 0 5712.78813483 0 -54.19172225 0 -391.03465223 0 13791
0.11450000 0.11448600 15573.88919692 0 487.85770383 0 5478.97385163 0 97.70894832 0 617.52016362 0 14205
0.11550000 0.11549300 15149.59770986 0 220.98035150 0 5299.97864862 0 728.70180606 0 288.49938824 0 14776
0.11650000 0.11649800 15120.25604910 0 -119.76933756 0 4286.76127679 0 1034.23375157 0 -97.10650312 0 14553
0.11750000 0.11747300 15049.61461675 0 98.72638425 0 4573.60092354 0 536.68665628 0 -779.80501403 0 14568
0.11850000 0.11849100 15026.14128814 0 326.42210075 0 4289.96117866 0 -157.78284313 0 -511.88132699 0 16015
0.11950000 0.11950300 14544.82732827 0 833.25334039 0 4513.69964627 0 -835.31057834 0 -19.84791730 0 15270
0.12050000 0.12050700 13968.95571445 0 514.22201646 0 4909.96707920 0 -387.09179736 0 389.60742956 0 15999
0.12150000 0.12150000 13815.49329247 0 17.45839888 0 5130.35063239 0 -318.83977271 0 579.35275274 0 15670
0.12250000 0.12250700 13846.05290897 0 2.44528972 0 5533.09537535 0 696.98623885 0 -400.00766426 0 16887
0.12350000 0.12352200 13703.77353505 0 178.31868397 0 5193.56253478 0 78.29528760 0 -37.32613564 0 16407
0.12450000 0.12449800 13552.74702452 0 309.95866097 0 5182.65629484 0 465.87581737 0 105.99060439 0 16306
0.12550000 0.12549900 13134.98820911 0 179.64736295 0 4357.50236005 0 376.86429092 0 182.80961892 0 17523
0.12650000 0.12650100 13101.99268115 0 280.50074079 0 4255.28265733 0 649.49925216 0 272.66374929 0 17154
0.12750000 0.12750600 12739.48476659 0 202.08653643 0 3707.10292788 0 417.89943393 0 -83.26011805 0 18007
0.12850000 0.12850300 12740.25982933 0 97.62313780 0 3633.77092061 0 409.40917526 0 -32.11981779 0 17496
0.12950000 0.12949900 12561.10961376 0 153.56318014 0 3573.07243595 0 214.33363491 0 265.28847372 0 18405
0.13050000 0.13049000 12478.95296361 0 7.37593990 0 3356.70813667 0 207.17316245 0 427.42274051 0 18100
0.13150000 0.13148800 12537.52556190 0 52.64912596 0 3591.60750770 0 408.58428706 0 979.18768873 0 19059
0.13250000 0.13249300 12532.54301573 0 121.74464031 0 3493.18561239 0 368.10497476 0 1216.01807321 0 18957
0.13350000 0.13349100 12455.70108149 0 81.55985185 0 3765.94126197 0 165.07950519 0 1327.84855388 0 19468
0.13450000 0.13450700 12314.75038655 0 225.80013449 0 3915.52837027 0 -158.26227480 0 1428.25239533 0 19953
0.13550000 0.13551000 12219.63911635 0 180.99375765 0 3696.28526653 0 -104.04265028 0 1602.71901750 0 19956
0.13650000 0.13649900 12140.69344040 0 42.78556684 0 4025.25510922 0 413.29223958 0 1463.13021851 0 19723
0.13750000 0.13749600 12202.47701289 0 -15.59614457 0 4103.96826636 0 -271.92079629 0 1148.82013388 0 20946
0.13850000 0.13851100 11924.89382968 0 338.49979266 0 3825.44393554 0 213.78112590 0 629.61114233 0 20955
0.13950000 0.13949800 11748.17952558 0 497.35665130 0 4064.13004166 0 -376.62180701 0 705.81973959 0 20506
0.14050000 0.14048300 11399.40129379 0 211.35407230 0 3839.87117478 0 -83.95191690 0 827.67621038 0 21447
0.14150000 0.14148400 11327.43118247 0 182.27704009 0 3866.13472925 0 46.37078562 0 814.49350045 0 21771
0.14250000 0.14249400 11113.73531347 0 22.15372894 0 3491.63548691 0 608.14854790 0 977.45486990 0 22470
0.14350000 0.14350900 11030.85896220 0 -3.47535917 0 3325.24058954 0 765.79298697 0 440.22345523 0 22519
0.14450000 0.14449900 11011.34952587 0 130.15185655 0 2993.03762800 0 514.38035070 0 288.58575238 0 22218
0.14550000 0.14550500 10866.04740727 0 136.63802442 0 2716.32915846 0 120.80570717 0 328.11948814 0 23559
0.14650000 0.14650700 10769.88426622 0 217.69297826 0 2952.61257009 0 -163.39872628 0 362.25435832 0 23044
0.14750000 0.14750500 10536.77861182 0 175.64028860 0 3076.32365529 0 -428.45800288 0 233.93940047 0 23649
0.14850000 0.14849900 10443.32819035 0 121.93951323 0 2976.42914077 0 -427.90770834 0 133.82343946 0 23640
0.14950000 0.14949500 10497.09539967 0 70.64386825 0 3436.87176836 0 -316.84896871 0 -117.90475806 0 24457
0.15050000 0.15050000 10397.54412722 0 137.79286790 0 3551.29317303 0 -26.71154073 0 -104.63358026 0 24591
0.15150000 0.15149900 10235.31242398 0 212.24982338 0 3416.32153349 0 293.54947559 0 -68.55994600 0 25020
0.15250000 0.15250500 10190.17055570 0 -6.08182872 0 3221.76971411 0 596.57796846 0 -64.37759675 0 25297
0.15350000 0.15350100 10040.78274924 0 179.47242022 0 2963.00948309 0 421.05283204 0 92.40674413 0 25452
0.15450000 0.15450400 9973.99448594 0 144.57355962 0 2937.03380907 0 310.62521493 0 -33.21464927 0 26061
0.15550000 0.15549900 9594.10302141 0 369.46908518 0 3044.22498564 0 -1.52749364 0 520.21657312 0 26128
0.15650000 0.15649500 9431.78273957 0 353.06654319 0 3046.93770522 0 -193.08473635 0 716.86438359 0 26331
0.15750000 0.15749700 9169.31327974 0 251.07935929 0 3099.45374183 0 129.17417026 0 1040.31245789 0 27345
0.15850000 0.15849900 9172.31387977 0 -25.88554530 0 3275.71408062 0 -43.49862456 0 792.78620764 0 26980
0.15950000 0.15949700 9125.59974136 0 137.05212937 0 3421.56981546 0 -47.72293792 0 814.32520111 0 27777
0.16050000 0.16050000 9130.90338494 0 119.52906811 0 3324.36587588 0 -12.27455785 0 663.07281516 0 28224
0.16150000 0.16150500 9047.49556209 0 -42.28055811 0 3311.00157982 0 -261.60692572 0 784.43103133 0 28075
0.16250000 0.16249700 9148.49730908 0 80.98995929 0 3406.92112972 0 18.30498884 0 343.83222429 0 28590
0.16350000 0.16349900 9010.50292487 0 75.71366434 0 3218.95734360 0 264.36947076 0 176.77852359 0 29163
0.16450000 0.16449100 8807.17075190 0 284.62850349 0 2894.93683011 0 289.16815666 0 -103.04769118 0 28996
0.16550000 0.16550500 8619.27339972 0 90.22959290 0 2626.99764182 0 265.05484767 0 -249.13395181 0 30777
0.16650000 0.16650700 8480.61467602 0 105.38505894 0 2479.06030992 0 288.01442042 0 -192.10040667 0 29211
0.16750000 0.16749900 8453.34353999 0 117.11751577 0 2348.76119145 0 207.02811499 0 -112.09400200 0 30922
0.16850000 0.16850800 8371.60763818 0 165.74605914 0 2451.74488459 0 39.41869431 0 133.56988322 0 30867
0.16950000 0.16949900 8273.81686538 0 36.89819029 0 2409.43753146 0 58.91229722 0 189.71321344 0 30852
0.17050000 0.17049200 8232.70532333 0 28.94737528 0 2562.31312023 0 31.73605101 0 569.76190498 0 31257
0.17150000 0.17149500 8286.51682195 0 88.66175171 0 2695.95608079 0 22.42998345 0 670.39605079 0 32608
0.17250000 0.17250900 8228.86322662 0 42.16064483 0 2924.10133368 0 13.80586037 0 594.41554342 0 32361
0.17350000 0.17350400 8305.22905089 0 59.65192851 0 2891.16116735 0 145.41837801 0 805.61238871 0 32508
0.17450000 0.17449800 8128.07185380 0 52.50374633 0 2776.17507410 0 164.51813832 0 744.49315571 0 32791
0.17550000 0.17549800 8192.10310822 0 22.94805753 0 2565.42444351 0 190.00109389 0 889.89492523 0 33633
0.17650000 0.17650100 8185.31577311 0 -84.27567168 0 2586.46186066 0 92.96589654 0 574.49864554 0 33984
0.17750000 0.17750300 8263.57496493 0 31.39867727 0 2491.21772257 0 -71.21542166 0 489.60602392 0 34069
0.17850000 0.17849800 8181.29651920 0 96.03979535 0 2462.83935406 0 -17.17527954 0 502.43552669 0 34536
