### header ###
fiducial parameters:
Omega_m = 0.31
Omega_nu = 0
Omega_de = 0.69
Omega_k = 0
H_0 = 100
w_de = -1
zeff = 0
beta = 0
fgrowth = 0
b_1 = 2
gamma = 0.55
Lx = 3500 Ly = 3500 Lz = 3500
nx = 700 ny = 700 nz = 700
xoffset = -685.467585 yoffset = -31.7331281 zoffset = 572.489161
bins = 400 dk = 0.001
kx_ny = 0.628318531 ky_ny = 0.628318531 kz_ny = 0.628318531
############################
A(data) = 8.07243784 (not used)
A(ran) = 8.06847376 (used)
Ngal = 480130
weighted Ngal = 0
Nran = 23820508
weighted Nran = 0
SN(data) = 3493.09782
SN(ran) = 70.2793326
SN(data+ran) = 3563.37716
############################
13 columns: k_central k_mean P_0(k) sigma^{lin}_{P_0(k)} P^img_1(k) sigma^{lin}_{P_1(k)} P_2(k) sigma^{lin}_{P_2(k)} P^img_3(k) sigma^{lin}_{P_3(k)} P_4(k) sigma^{lin}_{P_4(k)} N_modes
### header ###
0.00050000 0 0 0 0 0 0 0 0 0 0 0 0
0.00150000 0.00179520 25357.06323693 0 -20332.33151098 0 17520.95751627 0 13132.55229765 0 -51841.39986364 0 3
0.00250000 0.00253879 45214.17056669 0 -18882.07840623 0 3752.44409801 0 -12476.07415915 0 31960.48703552 0 6
0.00350000 0.00331552 39563.40959549 0 3413.11055930 0 4628.48643766 0 -10943.93014005 0 26242.40632943 0 7
0.00450000 0.00420575 35317.94809028 0 11611.65776056 0 -2817.09838663 0 -13577.99192511 0 17931.07642756 0 24
0.00550000 0.00557378 32827.22862232 0 -5631.14081162 0 -2712.60885732 0 13912.15468813 0 -426.43508914 0 45
0.00650000 0.00659388 37768.25357264 0 -7336.16811044 0 -2302.43458441 0 21357.73951243 0 28469.38302020 0 40
0.00750000 0.00754703 43540.92084009 0 -4665.98840183 0 -9374.14021656 0 10356.91976746 0 -9453.44020691 0 57
0.00850000 0.00846663 58072.01848559 0 -14148.21665327 0 578.50350543 0 15951.12330349 0 30917.03114461 0 75
0.00950000 0.00948925 65774.92413867 0 -9661.97637255 0 10100.82796673 0 9590.29414167 0 21972.47498636 0 112
0.01050000 0.01054430 69942.65792366 0 -410.18977416 0 9557.58649416 0 491.49939147 0 26965.65058658 0 105
0.01150000 0.01145670 75094.94283152 0 4073.78510890 0 38158.99591549 0 2436.34328077 0 38119.13554615 0 144
0.01250000 0.01249090 69051.66794550 0 4678.55549049 0 30534.92521512 0 7027.05094615 0 51919.68120011 0 169
0.01350000 0.01339930 67144.34927224 0 5306.78812838 0 37784.52989013 0 33884.63564250 0 32480.66485550 0 180
0.01450000 0.01448870 69376.97284867 0 -5089.03978850 0 27884.87499302 0 20657.85786064 0 36114.49113773 0 267
0.01550000 0.01550050 76573.20891806 0 -2376.36449723 0 9082.01907087 0 16828.38359887 0 32654.16818541 0 238
0.01650000 0.01653350 66875.95611864 0 4811.09121857 0 14534.53006619 0 -1356.82482793 0 13135.87399510 0 315
0.01750000 0.01747870 67305.34087511 0 8622.93833924 0 1900.30989165 0 77.92657918 0 4041.83037947 0 297
0.01850000 0.01844180 60178.19611259 0 5450.72835102 0 10089.83314819 0 -14667.39796401 0 -3444.64454038 0 388
0.01950000 0.01947590 57680.83324975 0 -4727.81626361 0 17189.89500420 0 -11950.13873027 0 -9654.63542119 0 399
0.02050000 0.02045430 64913.16509804 0 -6772.93001924 0 22461.65029685 0 -4768.80601009 0 -13152.37175908 0 462
0.02150000 0.02154770 75867.23748762 0 -6029.40126302 0 32006.21573702 0 -4743.48360323 0 -8829.09395504 0 571
0.02250000 0.02255340 83273.18338907 0 -1894.45263182 0 43040.67320479 0 -6501.64698886 0 -1545.08756682 0 510
0.02350000 0.02348930 82430.13657738 0 -480.84670776 0 42724.00471497 0 9733.92433922 0 -120.39603115 0 555
0.02450000 0.02439640 81866.77669060 0 8563.85641401 0 53797.54748935 0 265.94727705 0 4597.71644699 0 592
0.02550000 0.02547300 79542.58498792 0 7034.50262076 0 51212.71326044 0 -1945.65106178 0 -10012.94692465 0 837
0.02650000 0.02652900 67838.03042213 0 8026.67150311 0 51220.57461106 0 4197.62906200 0 3348.12708494 0 723
0.02750000 0.02749970 65903.69527631 0 7886.16370116 0 44588.14132144 0 3581.88600651 0 -5411.76483999 0 826
0.02850000 0.02848090 60507.59777595 0 -1567.89655594 0 43929.00582499 0 6559.21200559 0 -293.50407906 0 831
0.02950000 0.02946900 62117.95669757 0 -1189.93167594 0 34261.98047232 0 14473.52155644 0 -18633.50471405 0 996
0.03050000 0.03053250 62222.03655086 0 -1311.30650060 0 23343.11807566 0 13873.51227452 0 -22766.69284560 0 1041
0.03150000 0.03150510 62992.67035824 0 -1172.72528317 0 22320.58887866 0 1195.05816233 0 -27192.41179887 0 1036
0.03250000 0.03246190 61085.01951524 0 2059.51885022 0 21395.16397032 0 -2496.66530638 0 -24414.36550187 0 1059
0.03350000 0.03345080 60190.81856288 0 3958.43362894 0 23774.71729709 0 -4105.14193279 0 -10563.56256555 0 1302
0.03450000 0.03451200 58562.19030531 0 3212.86756495 0 23181.24068681 0 6401.01062858 0 -5595.21111758 0 1339
0.03550000 0.03553350 55997.06481457 0 497.45962392 0 24093.93242162 0 10681.17279978 0 37.99745070 0 1365
0.03650000 0.03647120 55382.99368013 0 2065.65291817 0 20704.36162488 0 9355.53871087 0 1241.48442029 0 1308
0.03750000 0.03744890 53688.59581313 0 1964.34114608 0 23863.51734214 0 5993.13939924 0 5587.33869463 0 1579
0.03850000 0.03847530 50685.44915257 0 2822.57918742 0 24285.92653397 0 1186.39960432 0 8477.95731806 0 1662
0.03950000 0.03950240 48634.63314966 0 790.83747847 0 20607.70022922 0 -14.46687816 0 13064.12533027 0 1683
0.04050000 0.04050350 49313.47738429 0 -4.63112165 0 20215.18631440 0 1320.88406157 0 11549.54201833 0 1822
0.04150000 0.04152450 50126.62891898 0 -2422.17070500 0 17415.77043050 0 1493.26908667 0 5762.77968139 0 1887
0.04250000 0.04250150 52354.60211898 0 -785.94904707 0 15945.03352484 0 1857.80323667 0 5588.55665036 0 1920
0.04350000 0.04349210 51187.13619011 0 1150.31489773 0 15374.03373394 0 1570.90822830 0 -60.98271123 0 2005
0.04450000 0.04448520 49019.83933010 0 3190.22466070 0 14569.74005911 0 132.47483029 0 3966.06246074 0 2151
0.04550000 0.04548030 46318.08135111 0 3892.25434350 0 14438.20084027 0 1358.69605082 0 2579.70774252 0 2274
0.04650000 0.04648670 44373.67038970 0 1618.43064642 0 17028.79267809 0 1320.70690437 0 3770.22625167 0 2311
0.04750000 0.04749250 42475.43102279 0 672.63819657 0 17332.94944085 0 2304.51618148 0 4188.00721173 0 2568
0.04850000 0.04851840 42624.02162186 0 1024.97507355 0 19930.40612006 0 -1368.32897341 0 6790.32464153 0 2493
0.04950000 0.04949480 40902.71800555 0 2224.86187673 0 22985.92487701 0 -1406.92709773 0 6145.45029944 0 2644
0.05050000 0.05050630 40137.95253033 0 2062.01012330 0 22943.18570321 0 -494.54206633 0 4890.54622147 0 2829
0.05150000 0.05149060 37483.14120856 0 1565.67101866 0 24009.56130650 0 1709.46730108 0 10054.63422759 0 2784
0.05250000 0.05249300 37634.49988883 0 460.65743068 0 19122.01568505 0 4707.39889665 0 5197.89181379 0 3055
0.05350000 0.05348950 36376.57306619 0 -124.85042742 0 19095.22065899 0 6123.11742028 0 6740.88671122 0 3009
0.05450000 0.05448610 36189.45077675 0 272.27732515 0 15466.81981592 0 3592.83653575 0 3645.57401886 0 3336
0.05550000 0.05550870 35639.37767976 0 72.62127474 0 14071.81761202 0 2103.36525650 0 1858.00253852 0 3349
0.05650000 0.05647670 35750.21165120 0 774.11716077 0 11909.50329818 0 1135.65513967 0 1341.13534366 0 3324
0.05750000 0.05747970 34755.80615923 0 942.77081240 0 11821.03542288 0 -958.18681025 0 -187.86856413 0 3639
0.05850000 0.05849280 35228.48370574 0 -588.68672256 0 10616.35541029 0 -1020.30476695 0 -1450.13130917 0 3846
0.05950000 0.05951020 35257.49319677 0 -383.83985556 0 10440.82584494 0 2050.59455641 0 -2541.37535400 0 3787
0.06050000 0.06049470 35672.59465422 0 -411.11984945 0 9785.88675959 0 1935.74133107 0 -2886.43328465 0 3930
0.06150000 0.06148310 35885.29401398 0 684.09030213 0 8245.77066662 0 1529.40915487 0 -3038.50059371 0 4083
0.06250000 0.06249100 35105.02728401 0 989.88909067 0 8382.12634676 0 -348.92881540 0 -3541.08448955 0 4303
0.06350000 0.06350600 33103.48312655 0 1024.61965193 0 8172.47187632 0 1.94883989 0 -472.09071329 0 4470
0.06450000 0.06451750 33523.67785342 0 461.93185527 0 9562.89013774 0 214.84296185 0 -1150.97923722 0 4479
0.06550000 0.06550280 32547.87386715 0 958.68506487 0 8580.88564958 0 375.15361674 0 -679.31923737 0 4636
0.06650000 0.06648880 31388.93362838 0 947.35807658 0 7430.43788395 0 1833.37768812 0 -555.05232146 0 4653
0.06750000 0.06749660 30805.75428018 0 875.85964629 0 8112.72561160 0 675.74730538 0 190.68868526 0 5220
0.06850000 0.06852730 30489.86085311 0 323.60087238 0 6252.51968044 0 1053.20396568 0 -1026.36465032 0 5029
0.06950000 0.06949320 29632.86291214 0 -53.15978158 0 6933.03583612 0 183.22483110 0 88.84865255 0 5040
0.07050000 0.07048030 30089.70703416 0 679.64587095 0 8439.11560260 0 -1153.38193171 0 608.54825882 0 5475
0.07150000 0.07148790 29368.01290248 0 844.02781967 0 8960.01312369 0 -653.41553345 0 3525.79360898 0 5509
0.07250000 0.07249820 29450.83389212 0 595.61356897 0 9872.04051901 0 416.75455555 0 2564.05147523 0 5916
0.07350000 0.07351270 28321.12459088 0 327.00561226 0 10395.57325341 0 1910.70680465 0 3615.85589905 0 5721
0.07450000 0.07449140 28712.86344296 0 855.50539158 0 9707.07395153 0 887.30953739 0 2585.19961563 0 6028
0.07550000 0.07549160 27365.02934279 0 618.96953094 0 9433.06712925 0 1544.11320223 0 2806.61289503 0 6183
0.07650000 0.07648840 27235.37241916 0 233.20862703 0 9636.20000037 0 1013.01917722 0 3536.79949985 0 6330
0.07750000 0.07749960 26686.18510816 0 268.07869958 0 8399.55418602 0 460.50020367 0 3508.69793946 0 6583
0.07850000 0.07848650 26739.66443703 0 285.88078342 0 7572.71725787 0 781.17355337 0 2537.59969124 0 6549
0.07950000 0.07947320 26093.48356061 0 339.25492521 0 6701.24778837 0 1358.33066410 0 1263.72872085 0 6828
0.08050000 0.08048110 25941.34981761 0 227.84408565 0 5667.31409680 0 1120.23139120 0 2156.46812633 0 7147
0.08150000 0.08149960 25310.22730294 0 580.58067356 0 5171.22965563 0 1005.79669974 0 1786.05457185 0 7386
0.08250000 0.08250610 24885.49292290 0 404.34247942 0 3920.40019319 0 1501.21901589 0 629.84476838 0 7227
0.08350000 0.08350160 24247.06267386 0 1030.31636305 0 4661.08336193 0 154.41353469 0 710.77460494 0 7798
0.08450000 0.08449610 23033.97876673 0 995.16505345 0 4171.63124332 0 -976.60119365 0 -159.44479909 0 7371
0.08550000 0.08548940 22073.12241896 0 1171.05336212 0 5843.68515884 0 -2265.69661067 0 330.71373385 0 8256
0.08650000 0.08650700 21856.65846876 0 259.40353308 0 5956.16890667 0 -1979.85347315 0 128.53640435 0 8037
0.08750000 0.08749060 21997.94133345 0 115.45555981 0 8257.29695675 0 -1413.99124097 0 -570.93778588 0 8155
0.08850000 0.08849210 22026.72937797 0 738.67354179 0 9200.20506598 0 -2583.84879200 0 -683.14140389 0 8718
0.08950000 0.08949900 21183.57184303 0 951.11934532 0 10411.97136646 0 -712.57385773 0 -1125.44645619 0 8571
0.09050000 0.09049190 20530.30467873 0 1068.69968426 0 11129.79018446 0 -104.18027928 0 -84.28729762 0 8932
0.09150000 0.09150830 20027.28896222 0 280.49188293 0 10682.24681529 0 1446.44422501 0 -202.40099045 0 9285
0.09250000 0.09250820 19850.46393487 0 -60.99721598 0 10154.09692144 0 2010.92241659 0 -1075.07955782 0 9204
0.09350000 0.09350330 19991.41462981 0 -104.93352954 0 8905.02795864 0 1678.39835763 0 -1744.25654566 0 9349
0.09450000 0.09448040 19335.60083080 0 322.28769466 0 8748.47635803 0 189.38104370 0 -2502.32326436 0 9564
0.09550000 0.09549270 19298.06564967 0 868.94387221 0 8177.62050736 0 -423.85191576 0 -2347.34393388 0 10155
0.09650000 0.09649430 18374.96592954 0 929.28029184 0 7455.43919339 0 516.07884533 0 -1039.63815331 0 9913
0.09750000 0.09749140 17979.13031727 0 463.96251964 0 7665.75800332 0 828.75908375 0 -1121.39398531 0 10476
0.09850000 0.09850240 17616.06878647 0 -302.90780453 0 6795.57292350 0 1315.90151540 0 -422.35493744 0 10575
0.09950000 0.09950330 17824.67138605 0 274.08654303 0 7391.40793896 0 1068.28779378 0 -391.56944551 0 10882
0.10050000 0.10051200 17377.90307962 0 386.08532303 0 6683.57635795 0 557.31993358 0 350.67602826 0 10875
0.10150000 0.10150300 16996.90438261 0 268.10527316 0 6807.78569777 0 187.13225453 0 1219.08510718 0 11118
0.10250000 0.10250800 16969.44501706 0 312.19969952 0 6657.22422489 0 103.31021600 0 307.54489416 0 11575
0.10350000 0.10349800 16587.44981081 0 25.64892972 0 6768.58966791 0 444.74649992 0 373.82383053 0 11364
0.10450000 0.10450100 16493.22432661 0 157.38866837 0 6329.82665232 0 455.10798149 0 53.77606718 0 12093
0.10550000 0.10551000 16285.61823626 0 121.72360289 0 6152.49229803 0 674.32672611 0 348.96203238 0 12067
0.10650000 0.10649700 16237.23217680 0 -25.22729559 0 5538.73118868 0 1061.07749586 0 -267.15083876 0 12054
0.10750000 0.10749900 15802.31125792 0 91.34535107 0 4607.40473121 0 697.94399494 0 375.99400619 0 12807
0.10850000 0.10850100 16036.04803485 0 182.00133921 0 4691.56547216 0 35.55899260 0 -262.65547488 0 12736
0.10950000 0.10950300 15628.36503502 0 461.52439372 0 4607.49330981 0 -296.31202063 0 257.66185639 0 12933
0.11050000 0.11050200 15415.22278226 0 325.84301816 0 4797.38368045 0 -245.19663311 0 -40.54729638 0 13428
0.11150000 0.11150900 15117.15579815 0 142.70565843 0 4632.62748715 0 65.22451887 0 70.89055965 0 13453
0.11250000 0.11250000 15004.10736175 0 75.47549864 0 4949.00809652 0 642.93114908 0 158.14269369 0 13668
0.11350000 0.11349100 15066.22310398 0 142.46981791 0 4895.11909162 0 919.89760379 0 -167.66378580 0 13791
0.11450000 0.11448600 14867.58559673 0 137.03773535 0 4506.91231116 0 614.49077555 0 907.38809121 0 14205
0.11550000 0.11549300 14639.16353573 0 366.80729829 0 4335.78953108 0 559.12361530 0 636.31654224 0 14776
0.11650000 0.11649800 14477.50759337 0 56.19182701 0 3863.83168569 0 99.94046466 0 1146.71639217 0 14553
0.11750000 0.11747300 14479.83278158 0 123.84284586 0 3664.67377918 0 135.05357474 0 1498.53951328 0 14568
0.11850000 0.11849100 14289.38879470 0 69.34342370 0 3763.18425309 0 -82.96470842 0 1372.54752917 0 16015
0.11950000 0.11950300 14366.12000570 0 76.91645099 0 3985.05149780 0 -126.67182486 0 752.85497542 0 15270
0.12050000 0.12050700 14339.87859588 0 93.92918879 0 3582.61677995 0 28.98513191 0 588.59703673 0 15999
0.12150000 0.12150000 14204.13189360 0 207.76553183 0 4405.50088814 0 -513.00848966 0 106.38190035 0 15670
0.12250000 0.12250700 14022.76721307 0 363.25972542 0 4114.02193729 0 -40.29938703 0 538.54902132 0 16887
0.12350000 0.12352200 13829.33369849 0 174.82868719 0 4702.40527815 0 -344.00605979 0 327.00450503 0 16407
0.12450000 0.12449800 13679.74659019 0 367.95217668 0 4591.11734140 0 317.77240060 0 1170.97585585 0 16306
0.12550000 0.12549900 13548.65026434 0 166.45025900 0 4973.81010411 0 617.77704156 0 1030.73711139 0 17523
0.12650000 0.12650100 13245.93290379 0 355.80362188 0 4615.50967298 0 447.84342917 0 1847.51704691 0 17154
0.12750000 0.12750600 13094.90639327 0 224.08613861 0 4954.92071797 0 371.86845796 0 1602.70794517 0 18007
0.12850000 0.12850300 12899.92275321 0 152.07173799 0 4849.85542776 0 302.68192910 0 2130.17135488 0 17496
0.12950000 0.12949900 12917.74919617 0 121.32721367 0 4871.12536374 0 263.77710139 0 2040.68482570 0 18405
0.13050000 0.13049000 12762.18303247 0 136.37561033 0 4920.57436638 0 137.19385513 0 2822.13629443 0 18100
0.13150000 0.13148800 12764.95111367 0 -23.14171249 0 4769.44820493 0 85.27948865 0 2142.14053801 0 19059
0.13250000 0.13249300 12552.14103066 0 125.92222847 0 4710.06732693 0 398.21616210 0 2000.12689989 0 18957
0.13350000 0.13349100 12694.75257432 0 86.52003192 0 4520.88558508 0 327.36657005 0 2127.06003161 0 19468
0.13450000 0.13450700 12429.23822517 0 -10.21600229 0 3949.88579418 0 432.16723169 0 1974.59411886 0 19953
0.13550000 0.13551000 12451.71504455 0 33.12861730 0 3796.91055449 0 518.61219325 0 1663.67216563 0 19956
0.13650000 0.13649900 12349.96037947 0 80.07903913 0 3439.56234329 0 1.49918171 0 1018.10469600 0 19723
0.13750000 0.13749600 12159.73783909 0 408.12810728 0 3398.97120050 0 27.54107931 0 1233.08052575 0 20946
0.13850000 0.13851100 11925.89033892 0 269.21472011 0 3136.31351116 0 -242.29014784 0 1186.26673642 0 20955
0.13950000 0.13949800 11800.66234522 0 139.94975678 0 3485.53463594 0 -38.15888519 0 1148.44367484 0 20506
0.14050000 0.14048300 11737.21792401 0 108.90572607 0 3276.69951753 0 96.42411575 0 853.04733547 0 21447
0.14150000 0.14148400 11671.11614484 0 78.78390929 0 3559.02165576 0 -5.48076757 0 519.85450810 0 21771
0.14250000 0.14249400 11392.31500591 0 279.66478027 0 3566.93836800 0 172.38170340 0 515.71899478 0 22470
0.14350000 0.14350900 11359.09803145 0 300.92585839 0 3585.87204344 0 71.58346574 0 527.08141450 0 22519
0.14450000 0.14449900 10825.32339659 0 286.10998055 0 3195.66117218 0 -13.96153726 0 369.80125492 0 22218
0.14550000 0.14550500 10825.88808516 0 230.00208176 0 3254.16733652 0 -55.06001397 0 111.08309874 0 23559
0.14650000 0.14650700 10717.36822961 0 72.48154200 0 3170.54913949 0 119.10831977 0 30.90806256 0 23044
0.14750000 0.14750500 10491.80282840 0 110.75203623 0 3030.30707334 0 104.51887097 0 99.59401162 0 23649
0.14850000 0.14849900 10638.98724222 0 12.83924641 0 2844.28094406 0 44.60796078 0 302.62213855 0 23640
0.14950000 0.14949500 10513.08383671 0 -59.38364608 0 3213.17759005 0 481.08144105 0 331.73128050 0 24457
0.15050000 0.15050000 10581.94262475 0 47.46628143 0 3342.24768046 0 42.75943615 0 -105.55944806 0 24591
0.15150000 0.15149900 10558.35857289 0 229.07532817 0 3385.71762770 0 124.79728026 0 435.95175232 0 25020
0.15250000 0.15250500 10299.90836697 0 324.40693763 0 3354.93656470 0 -280.01798743 0 986.08906879 0 25297
0.15350000 0.15350100 10174.40356515 0 165.34081205 0 3325.42881906 0 82.93636327 0 1106.92467123 0 25452
0.15450000 0.15450400 10003.81225667 0 129.95919809 0 3428.43465685 0 145.37962487 0 938.07393222 0 26061
0.15550000 0.15549900 9867.43443188 0 203.56690626 0 3225.76682337 0 39.10335450 0 775.14356528 0 26128
0.15650000 0.15649500 9647.23910821 0 261.05773841 0 3343.21097272 0 329.10049612 0 578.55111642 0 26331
0.15750000 0.15749700 9432.17027094 0 183.35105560 0 2763.33117731 0 39.70624259 0 514.58851041 0 27345
0.15850000 0.15849900 9344.04563770 0 -44.18156555 0 2872.54858933 0 205.28865277 0 197.57456406 0 26980
0.15950000 0.15949700 9352.27237504 0 43.49142755 0 2648.94298961 0 225.21662297 0 153.10589313 0 27777
0.16050000 0.16050000 9293.98765720 0 111.04434561 0 2742.07231366 0 54.23335419 0 56.99722792 0 28224
0.16150000 0.16150500 9188.30231680 0 221.34130929 0 2587.60231012 0 75.25028755 0 441.55324144 0 28075
0.16250000 0.16249700 9089.48181780 0 141.21643074 0 2862.15167632 0 17.39384723 0 447.23888024 0 28590
0.16350000 0.16349900 8858.25845861 0 266.70573130 0 2554.54034821 0 3.26071108 0 582.18173173 0 29163
0.16450000 0.16449100 8784.05173768 0 245.32950101 0 2936.96737512 0 38.14072658 0 752.56709497 0 28996
0.16550000 0.16550500 8540.05091565 0 209.81169745 0 2781.72230884 0 180.34713388 0 871.30449186 0 30777
0.16650000 0.16650700 8433.59051252 0 23.03442166 0 2755.69127319 0 146.79577521 0 1078.52194361 0 29211
0.16750000 0.16749900 8380.84195708 0 -67.93624194 0 2558.32708330 0 422.84876313 0 805.24146583 0 30922
0.16850000 0.16850800 8462.35641240 0 -4.33599991 0 2324.64566800 0 395.97069463 0 743.71477128 0 30867
0.16950000 0.16949900 8419.94940834 0 51.06345832 0 2275.26309931 0 351.34258222 0 414.82243487 0 30852
0.17050000 0.17049200 8332.27874043 0 155.29157005 0 2085.67168144 0 -66.93176064 0 421.75371020 0 31257
0.17150000 0.17149500 8258.27132134 0 130.21939773 0 2170.77356999 0 -278.65830594 0 519.00526078 0 32608
0.17250000 0.17250900 8219.06421915 0 69.69452712 0 2216.57977777 0 -130.33565714 0 426.97098966 0 32361
0.17350000 0.17350400 8232.07420082 0 33.99901276 0 2455.56483666 0 -237.37182116 0 597.27331046 0 32508
0.17450000 0.17449800 8244.86273598 0 92.43088180 0 2460.80204629 0 135.75223844 0 496.04568804 0 32791
0.17550000 0.17549800 8027.31369795 0 113.61866113 0 2501.74750347 0 187.57846922 0 621.76750742 0 33633
0.17650000 0.17650100 7998.29313460 0 191.91549885 0 2270.96703728 0 190.09410142 0 502.63039961 0 33984
0.17750000 0.17750300 7853.83251269 0 130.94795670 0 2518.94282392 0 63.53621078 0 547.28840730 0 34069
0.17850000 0.17849800 7722.18257059 0 77.56672862 0 2288.99278208 0 73.93035571 0 514.77784717 0 34536
