### header ###
fiducial parameters:
Omega_m = 0.31
Omega_nu = 0
Omega_de = 0.69
Omega_k = 0
H_0 = 100
w_de = -1
zeff = 0
beta = 0
fgrowth = 0
b_1 = 2
gamma = 0.55
Lx = 3500 Ly = 3500 Lz = 3500
nx = 700 ny = 700 nz = 700
xoffset = -685.467585 yoffset = -31.7331281 zoffset = 572.489161
bins = 400 dk = 0.001
kx_ny = 0.628318531 ky_ny = 0.628318531 kz_ny = 0.628318531
############################
A(data) = 8.03077118 (not used)
A(ran) = 8.02338159 (used)
Ngal = 477374
weighted Ngal = 0
Nran = 23820508
weighted Nran = 0
SN(data) = 3497.02953
SN(ran) = 69.8865635
SN(data+ran) = 3566.91609
############################
13 columns: k_central k_mean P_0(k) sigma^{lin}_{P_0(k)} P^img_1(k) sigma^{lin}_{P_1(k)} P_2(k) sigma^{lin}_{P_2(k)} P^img_3(k) sigma^{lin}_{P_3(k)} P_4(k) sigma^{lin}_{P_4(k)} N_modes
### header ###
0.00050000 0 0 0 0 0 0 0 0 0 0 0 0
0.00150000 0.00179520 15682.17653364 0 -23015.59870753 0 10672.09349343 0 -35598.85297093 0 31601.52226490 0 3
0.00250000 0.00253879 31994.36834946 0 -27596.21948500 0 -5764.73948288 0 -14959.48589273 0 13806.63543261 0 6
0.00350000 0.00331552 44680.59523368 0 -15193.77628589 0 -18652.54911274 0 16971.21658903 0 -37823.61519674 0 7
0.00450000 0.00420575 59321.64106462 0 -7238.35519299 0 -3443.09441491 0 -44292.28880229 0 -26061.26309539 0 24
0.00550000 0.00557378 59329.28096875 0 8707.87414292 0 -4240.35716347 0 -39452.68634730 0 -17786.02897243 0 45
0.00650000 0.00659388 70354.88057666 0 -8572.98000966 0 27937.91142890 0 -53767.54148909 0 2729.75988846 0 40
0.00750000 0.00754703 68287.56680977 0 -25809.81059876 0 13783.93716673 0 -11071.30616476 0 -23305.58289453 0 57
0.00850000 0.00846663 91285.11762784 0 -21188.00077296 0 22319.70309268 0 8424.11260247 0 -25960.06204655 0 75
0.00950000 0.00948925 99259.18451573 0 -5681.79669766 0 -10521.43236962 0 10309.34198772 0 -45515.66997150 0 112
0.01050000 0.01054430 96621.53529744 0 11451.77339018 0 1818.55184519 0 4540.59432325 0 -20300.22176900 0 105
0.01150000 0.01145670 93467.69429609 0 8414.41324593 0 -23901.27396977 0 -5712.50025438 0 -24075.10946942 0 144
0.01250000 0.01249090 85946.04260029 0 1977.19611519 0 -15227.21470684 0 -9893.94157750 0 -25725.32876039 0 169
0.01350000 0.01339930 93932.73193848 0 9785.10062453 0 -12925.49982354 0 -25623.79554181 0 -12275.88652643 0 180
0.01450000 0.01448870 70795.44838119 0 11764.67728956 0 -2329.42891232 0 -11375.37434893 0 -9470.55802108 0 267
0.01550000 0.01550050 74954.98864581 0 7926.88771184 0 16139.35282540 0 -8282.74115919 0 4665.92196788 0 238
0.01650000 0.01653350 65440.42920590 0 101.19008724 0 9793.77025486 0 13691.37253125 0 -12166.82412697 0 315
0.01750000 0.01747870 67370.66759154 0 -2493.34360894 0 16052.21362908 0 13892.44594996 0 -16386.93000835 0 297
0.01850000 0.01844180 66076.75571323 0 -2630.21968834 0 3409.32382421 0 10645.03273157 0 -16374.97189754 0 388
0.01950000 0.01947590 68578.43678275 0 4750.01627487 0 2089.56913977 0 -10616.27790402 0 -18875.43501134 0 399
0.02050000 0.02045430 62214.83953973 0 6750.57499543 0 9485.70496143 0 -19865.74374312 0 -7339.91055623 0 462
0.02150000 0.02154770 57930.95706740 0 -2166.92040096 0 8462.27890612 0 -5933.20490499 0 3829.30817690 0 571
0.02250000 0.02255340 62044.99007701 0 -5278.32118127 0 10428.05945442 0 1477.95606144 0 -4054.41961279 0 510
0.02350000 0.02348930 69812.22593730 0 -4942.53078650 0 10296.12163188 0 5158.79543485 0 -17395.50807608 0 555
0.02450000 0.02439640 73324.36736977 0 -4100.63549659 0 17167.75035456 0 -1042.87016493 0 -5109.39072151 0 592
0.02550000 0.02547300 70317.01322578 0 5457.31638429 0 18429.88466064 0 -4962.38346490 0 -3845.77272391 0 837
0.02650000 0.02652900 69326.92594049 0 3708.02193084 0 21540.43287194 0 -1886.93452327 0 -2211.13219396 0 723
0.02750000 0.02749970 68005.00108040 0 -183.31119523 0 19315.11702989 0 3925.65954748 0 1632.09389524 0 826
0.02850000 0.02848090 67219.30891126 0 -104.86465968 0 24770.67291453 0 4873.60556450 0 3976.08291470 0 831
0.02950000 0.02946900 69332.79427265 0 -1982.62155435 0 16369.43573513 0 15586.06875422 0 2000.87981798 0 996
0.03050000 0.03053250 69505.30109332 0 -1432.74775921 0 11747.18301634 0 10376.06381708 0 -1266.05390906 0 1041
0.03150000 0.03150510 66400.51049093 0 6998.01931048 0 9728.93072072 0 1668.40004832 0 755.45475728 0 1036
0.03250000 0.03246190 62145.74823286 0 4628.35356977 0 9773.53004509 0 -3452.12943196 0 -1235.35035234 0 1059
0.03350000 0.03345080 56255.16070610 0 5232.19387608 0 6382.07695314 0 -1338.56656430 0 2611.93928007 0 1302
0.03450000 0.03451200 52158.73269294 0 3976.58116932 0 6340.03533581 0 -3213.83085721 0 -4592.10277831 0 1339
0.03550000 0.03553350 49623.61320246 0 3578.80790021 0 8122.10387072 0 -534.42790202 0 -4629.32793435 0 1365
0.03650000 0.03647120 46963.59788803 0 1657.17271096 0 6304.05028015 0 5235.06160820 0 -10176.17513712 0 1308
0.03750000 0.03744890 46818.21826316 0 69.05155722 0 7953.06268771 0 -461.52771542 0 -1365.68268778 0 1579
0.03850000 0.03847530 47133.89024374 0 -1856.75136581 0 7931.51594361 0 2128.87589288 0 -2135.00996083 0 1662
0.03950000 0.03950240 49069.22189879 0 -2481.67337858 0 9575.28006922 0 6147.79763231 0 -555.61811726 0 1683
0.04050000 0.04050350 52126.18005797 0 -2004.73298701 0 7679.43232447 0 -506.74044658 0 4799.98567678 0 1822
0.04150000 0.04152450 53058.35908446 0 732.42764336 0 14457.35596220 0 -1294.85302592 0 4631.02200005 0 1887
0.04250000 0.04250150 52401.10588322 0 2579.82953809 0 12961.26343271 0 -3710.33604673 0 8908.81469373 0 1920
0.04350000 0.04349210 50047.68324302 0 4127.70733077 0 16043.24504598 0 115.12892623 0 6734.13259308 0 2005
0.04450000 0.04448520 46587.02812095 0 3279.89941940 0 13924.44496868 0 96.44094568 0 3248.64224644 0 2151
0.04550000 0.04548030 46132.28774065 0 1464.38139121 0 17103.19870087 0 -250.67854113 0 2435.61250733 0 2274
0.04650000 0.04648670 43052.96348534 0 1544.50073360 0 17420.42080692 0 -2154.68548203 0 2339.60437883 0 2311
0.04750000 0.04749250 42483.95671290 0 1767.25376430 0 18063.16926264 0 464.99778201 0 4732.94275000 0 2568
0.04850000 0.04851840 41971.08662731 0 665.39025274 0 19033.32636325 0 -280.71000773 0 2062.28693142 0 2493
0.04950000 0.04949480 41788.39326780 0 -13.10874680 0 20097.26605508 0 1996.51732200 0 1352.35160870 0 2644
0.05050000 0.05050630 40885.22373234 0 1995.02255815 0 21542.97950665 0 -599.63614458 0 -723.23207760 0 2829
0.05150000 0.05149060 39183.73957746 0 1867.40294229 0 22674.79254961 0 835.19210447 0 1774.98224703 0 2784
0.05250000 0.05249300 39502.51180899 0 -473.32970644 0 20802.46242278 0 2805.72710904 0 -1222.24071976 0 3055
0.05350000 0.05348950 38146.59491170 0 63.10737964 0 18429.33104440 0 3409.21310096 0 -1464.41460819 0 3009
0.05450000 0.05448610 39301.54911353 0 -338.06465029 0 14722.31669511 0 3723.40139001 0 -3781.71932483 0 3336
0.05550000 0.05550870 38494.26591100 0 236.27455377 0 13228.77080033 0 2183.71711771 0 -1675.98459082 0 3349
0.05650000 0.05647670 37494.65642637 0 1263.27475553 0 11868.31424986 0 334.88800030 0 -3684.49324060 0 3324
0.05750000 0.05747970 36765.21166732 0 1853.26358350 0 12303.78878498 0 -441.93855835 0 -1739.94941130 0 3639
0.05850000 0.05849280 34776.73285314 0 1399.78544822 0 13598.58644927 0 -755.99397950 0 -790.90280519 0 3846
0.05950000 0.05951020 34663.90586324 0 702.20130384 0 13665.35256793 0 -1779.65476810 0 -3237.87994672 0 3787
0.06050000 0.06049470 33634.84399459 0 880.78018744 0 15120.03460260 0 -550.01884260 0 -3453.55776186 0 3930
0.06150000 0.06148310 33468.20550607 0 1025.66266493 0 15696.57055591 0 777.22184064 0 -577.84913103 0 4083
0.06250000 0.06249100 31978.31347848 0 624.22888523 0 14380.40330471 0 1669.78408893 0 -1237.83055310 0 4303
0.06350000 0.06350600 31398.89872072 0 949.29905512 0 11951.57813250 0 3752.66554451 0 -3843.01571503 0 4470
0.06450000 0.06451750 30531.38207118 0 351.23075173 0 10702.60882063 0 3162.98674164 0 -5095.38423062 0 4479
0.06550000 0.06550280 30188.14000180 0 -650.91318804 0 9088.17528347 0 2740.42253726 0 -4001.48282783 0 4636
0.06650000 0.06648880 29988.61670857 0 -561.23842934 0 7823.93723568 0 1080.94788998 0 -1943.50303077 0 4653
0.06750000 0.06749660 31089.87013503 0 163.86154946 0 7881.05935942 0 583.79275499 0 -2981.62206111 0 5220
0.06850000 0.06852730 30508.13018906 0 406.72856542 0 7544.25031076 0 -600.78766636 0 -822.28177373 0 5029
0.06950000 0.06949320 30331.30516170 0 283.87558540 0 6771.04772402 0 188.65248473 0 203.69313076 0 5040
0.07050000 0.07048030 29687.56019675 0 177.62334197 0 7134.21997807 0 1788.39083238 0 88.02531448 0 5475
0.07150000 0.07148790 30301.85277769 0 63.19551535 0 7415.49024544 0 861.19988823 0 -1640.20990933 0 5509
0.07250000 0.07249820 29089.21176355 0 1186.86464196 0 6704.25946072 0 56.67712700 0 -992.42243859 0 5916
0.07350000 0.07351270 28687.17564938 0 1857.80323667 0 8174.15486969 0 -2648.38937337 0 -295.19371583 0 5721
0.07450000 0.07449140 27168.27413076 0 1519.52156881 0 8213.38411652 0 -1674.36803140 0 49.35533077 0 6028
0.07550000 0.07549160 26118.61773795 0 1083.13578136 0 9892.25858412 0 -442.43238403 0 411.06670229 0 6183
0.07650000 0.07648840 25343.77644714 0 -134.92845747 0 9548.42968153 0 1055.82257050 0 660.55053957 0 6330
0.07750000 0.07749960 26203.32102282 0 -105.66662817 0 10838.46624615 0 1589.43222772 0 -3.91453186 0 6583
0.07850000 0.07848650 26157.48159807 0 290.74596295 0 9495.11643753 0 2015.46206976 0 959.03384310 0 6549
0.07950000 0.07947320 25486.83088380 0 626.18647226 0 9140.38129499 0 1664.44722836 0 576.00669618 0 6828
0.08050000 0.08048110 24558.52717101 0 354.87576106 0 8746.62727979 0 113.12594267 0 2239.53270712 0 7147
0.08150000 0.08149960 24681.42997649 0 475.01380704 0 8785.74580337 0 669.46486828 0 805.49945100 0 7386
0.08250000 0.08250610 24437.61738399 0 256.90008044 0 8354.60054726 0 -298.72910914 0 855.91285313 0 7227
0.08350000 0.08350160 23682.59555460 0 747.25237906 0 7830.17095455 0 -622.81494935 0 1185.25915486 0 7798
0.08450000 0.08449610 23212.90753580 0 731.15764770 0 8263.41995238 0 -503.25377149 0 -909.21723927 0 7371
0.08550000 0.08548940 22444.59891663 0 1120.31996980 0 8992.82042213 0 -388.43929929 0 464.27033027 0 8256
0.08650000 0.08650700 21903.60512599 0 426.98095475 0 8157.84533523 0 73.88960955 0 -667.09539077 0 8037
0.08750000 0.08749060 21495.14706343 0 193.91183901 0 9270.83542600 0 822.18655173 0 665.29945968 0 8155
0.08850000 0.08849210 21681.49429013 0 24.10522619 0 8367.07905733 0 497.29353904 0 -757.47434933 0 8718
0.08950000 0.08949900 21710.28233466 0 -101.88653647 0 9391.73414070 0 161.69690995 0 -287.06773664 0 8571
0.09050000 0.09049190 21133.19276511 0 433.56788078 0 8497.48889904 0 -435.38595652 0 -178.89887379 0 8932
0.09150000 0.09150830 21380.32705506 0 360.45289108 0 8733.80552765 0 60.33940916 0 -417.57169312 0 9285
0.09250000 0.09250820 20901.78117640 0 -40.52548390 0 8482.28659707 0 -10.51542010 0 -1372.52538452 0 9204
0.09350000 0.09350330 20486.23682596 0 644.11920953 0 8035.69544783 0 683.83231696 0 -2475.36215343 0 9349
0.09450000 0.09448040 19742.06587489 0 1054.50164215 0 7484.51511836 0 165.93207420 0 -2988.08829881 0 9564
0.09550000 0.09549270 18802.80056053 0 1005.77123339 0 7147.69499738 0 617.82243809 0 -2172.08010432 0 10155
0.09650000 0.09649430 18163.81669524 0 607.86177468 0 6833.80566109 0 348.46267053 0 -2468.26479322 0 9913
0.09750000 0.09749140 17559.15703690 0 342.20348531 0 6571.30298429 0 1053.61696340 0 -1552.41744585 0 10476
0.09850000 0.09850240 17377.68163312 0 -26.57811922 0 6290.15451250 0 1407.38106305 0 -1148.63190436 0 10575
0.09950000 0.09950330 17344.24321217 0 189.87708385 0 6392.90568682 0 1038.28954415 0 -523.84275949 0 10882
0.10050000 0.10051200 17368.38088027 0 -42.74360273 0 5161.84032418 0 797.28046429 0 466.51136882 0 10875
0.10150000 0.10150300 17395.06518309 0 -297.90532818 0 5565.31584057 0 900.76241204 0 1158.64128600 0 11118
0.10250000 0.10250800 17332.94944085 0 283.69842820 0 4860.89453561 0 879.87225681 0 647.98787983 0 11575
0.10350000 0.10349800 17281.02023745 0 268.67992682 0 4717.72937570 0 214.51411380 0 241.10319462 0 11364
0.10450000 0.10450100 16514.92608325 0 781.71499006 0 4536.56399702 0 -525.88228173 0 -582.25038015 0 12093
0.10550000 0.10551000 16106.02512770 0 708.82698301 0 5004.93440917 0 -1126.33224218 0 501.55859856 0 12067
0.10650000 0.10649700 15610.87076181 0 258.06046008 0 5838.10470713 0 -568.96248313 0 -447.98515493 0 12054
0.10750000 0.10749900 15810.61550154 0 -34.02503272 0 6131.45488087 0 -330.84992344 0 -317.74693425 0 12807
0.10850000 0.10850100 15716.94363357 0 0.94204779 0 6091.97097057 0 289.46378773 0 -124.49611303 0 12736
0.10950000 0.10950300 15790.68531686 0 -82.33347518 0 5986.27455785 0 255.87146147 0 -278.89082476 0 12933
0.11050000 0.11050200 15835.30678588 0 97.34101496 0 6080.52218671 0 901.01596828 0 526.29970837 0 13428
0.11150000 0.11150900 15642.31616429 0 144.91458723 0 5286.34861676 0 802.83212795 0 -332.80529600 0 13453
0.11250000 0.11250000 15451.65073092 0 385.62582155 0 5176.90975826 0 879.72278042 0 877.94677952 0 13668
0.11350000 0.11349100 15154.24808629 0 337.21208128 0 5083.18252867 0 94.03980132 0 220.40569784 0 13791
0.11450000 0.11448600 14772.69577304 0 228.02235008 0 4867.10610983 0 715.03855723 0 1029.27888621 0 14205
0.11550000 0.11549300 14787.97558129 0 126.23668249 0 5058.25872550 0 203.80053231 0 845.06308204 0 14776
0.11650000 0.11649800 14546.04528400 0 131.66322888 0 4560.39164003 0 252.50990365 0 1382.60120010 0 14553
0.11750000 0.11747300 14444.62278866 0 274.88596488 0 4915.54753091 0 444.28699844 0 2176.01077963 0 14568
0.11850000 0.11849100 14499.76296626 0 -41.54757020 0 4474.81364151 0 502.72783607 0 1864.09231717 0 16015
0.11950000 0.11950300 14638.16702649 0 40.31278454 0 4682.39758721 0 545.95087046 0 1952.31660132 0 15270
0.12050000 0.12050700 14476.06819115 0 10.49085061 0 4648.22839282 0 -144.39750966 0 1402.24350433 0 15999
0.12150000 0.12150000 14157.40668287 0 301.40529005 0 4198.88023470 0 -85.44579496 0 1594.76908828 0 15670
0.12250000 0.12250700 14246.31745116 0 45.60336278 0 4287.92387089 0 142.26497990 0 1486.44853458 0 16887
0.12350000 0.12352200 14170.80419590 0 23.28078089 0 4148.25756563 0 766.83378550 0 1526.35319322 0 16407
0.12450000 0.12449800 13867.64394236 0 330.68937473 0 3828.96493484 0 348.45381267 0 874.74577042 0 16306
0.12550000 0.12549900 13882.37013437 0 286.07344187 0 3709.31739285 0 166.05054807 0 769.08368190 0 17523
0.12650000 0.12650100 13303.73043935 0 291.07702546 0 3515.06452623 0 -225.33841855 0 762.64401779 0 17154
0.12750000 0.12750600 13427.74047732 0 150.88699923 0 4090.37145148 0 -90.29547324 0 1411.93178855 0 18007
0.12850000 0.12850300 13076.41561082 0 220.72679526 0 3662.59218211 0 133.09155879 0 1051.72470308 0 17496
0.12950000 0.12949900 13210.72291087 0 106.74883719 0 3873.45353596 0 273.60378966 0 1177.02134520 0 18405
0.13050000 0.13049000 12734.50222042 0 358.68131911 0 3479.52236356 0 28.87263709 0 695.62434289 0 18100
0.13150000 0.13148800 12657.21739319 0 256.06633438 0 3664.71806848 0 -12.16328098 0 703.95737455 0 19059
0.13250000 0.13249300 12240.89798001 0 382.06828359 0 3545.33626228 0 -391.32253267 0 875.86186076 0 18957
0.13350000 0.13349100 12085.33181630 0 380.92561967 0 3894.69025496 0 -29.20469611 0 1036.84460576 0 19468
0.13450000 0.13450700 11952.57464173 0 53.78093900 0 3644.57750963 0 -55.43924109 0 833.35299131 0 19953
0.13550000 0.13551000 11903.96713577 0 81.29754847 0 4072.20176645 0 -89.47711771 0 500.28195951 0 19956
0.13650000 0.13649900 11955.67489268 0 100.64876128 0 4050.69931165 0 259.91396726 0 346.22163199 0 19723
0.13750000 0.13749600 11705.44035178 0 29.65246093 0 4063.85323354 0 40.49636368 0 621.61249488 0 20946
0.13850000 0.13851100 11813.06334901 0 140.28081929 0 3673.27697556 0 289.45825157 0 742.16021687 0 20955
0.13950000 0.13949800 11749.61892780 0 101.66187900 0 4098.84177997 0 475.71136351 0 1090.13902681 0 20506
0.14050000 0.14048300 11546.55249063 0 191.98414726 0 3614.41649682 0 472.72183581 0 1276.52832834 0 21447
0.14150000 0.14148400 11362.97334514 0 189.89479957 0 3877.40635592 0 116.76763030 0 1030.67842807 0 21771
0.14250000 0.14249400 11223.79422217 0 210.26123384 0 3928.53835193 0 -87.18060682 0 1185.42523973 0 22470
0.14350000 0.14350900 10981.27709166 0 162.63473587 0 3713.11520026 0 121.01940304 0 1284.97651218 0 22519
0.14450000 0.14449900 11043.18245972 0 31.17523776 0 3785.84930199 0 -15.13752888 0 1274.69032242 0 22218
0.14550000 0.14550500 10857.15633045 0 86.04093242 0 3889.80735971 0 63.02478010 0 1127.81593370 0 23559
0.14650000 0.14650700 11025.66604186 0 214.79977978 0 3846.17132760 0 179.41705859 0 726.72650331 0 23044
0.14750000 0.14750500 10630.01865912 0 147.91740172 0 3499.39718661 0 -186.37490751 0 628.52494726 0 23649
0.14850000 0.14849900 10696.86228405 0 132.32313944 0 3621.30348286 0 -17.85556317 0 714.89350978 0 23640
0.14950000 0.14949500 10428.31411789 0 139.77370681 0 3542.57925340 0 160.62732338 0 793.86797378 0 24457
0.15050000 0.15050000 10497.17290594 0 31.06628608 0 3361.86784004 0 355.81801591 0 680.95240528 0 24591
0.15150000 0.15149900 10348.54908990 0 67.62566323 0 3248.43187227 0 503.40656958 0 335.01201034 0 25020
0.15250000 0.15250500 10286.51085394 0 54.05520049 0 2755.53626064 0 318.80987743 0 88.31463433 0 25297
0.15350000 0.15350100 10091.97010688 0 289.45935880 0 2593.39313600 0 -22.17753444 0 181.29935381 0 25452
0.15450000 0.15450400 10049.24200540 0 267.09104821 0 2347.02283646 0 -182.56602777 0 -187.50649911 0 26061
0.15550000 0.15549900 9687.61987683 0 198.54339249 0 2329.46212930 0 -124.30013288 0 -247.46645970 0 26128
0.15650000 0.15649500 9458.77706747 0 312.90279214 0 2201.42176509 0 -67.90667884 0 -691.01604130 0 26331
0.15750000 0.15749700 9286.07094495 0 138.27008510 0 2380.16230464 0 77.45035849 0 -574.22515912 0 27345
0.15850000 0.15849900 9160.93152985 0 78.06155082 0 2157.67500973 0 238.86326331 0 -897.39531806 0 26980
0.15950000 0.15949700 9228.29555405 0 -39.13823232 0 2236.75355359 0 477.41539430 0 -850.35786777 0 27777
0.16050000 0.16050000 9155.09641467 0 -14.14644508 0 2251.16972050 0 -80.38961784 0 -471.38651343 0 28224
0.16150000 0.16150500 9238.58174381 0 49.29709034 0 2427.81759066 0 148.28943183 0 -245.47787016 0 28075
0.16250000 0.16249700 9198.13454124 0 218.21005583 0 2765.93317365 0 -394.56008045 0 249.86693972 0 28590
0.16350000 0.16349900 8976.48874302 0 380.76285649 0 2987.84470766 0 -82.60651871 0 598.43369010 0 29163
0.16450000 0.16449100 8690.61238853 0 295.66539686 0 3096.46421413 0 54.57404963 0 994.71662429 0 28996
0.16550000 0.16550500 8684.16829549 0 95.91202072 0 3042.17660555 0 188.09665402 0 807.56001065 0 30777
0.16650000 0.16650700 8491.36590342 0 39.80821870 0 3038.76632950 0 542.47194600 0 883.24045802 0 29211
0.16750000 0.16749900 8516.38935751 0 90.82074432 0 2567.51711290 0 515.05908422 0 732.24384277 0 30922
0.16850000 0.16850800 8313.58865613 0 83.04110746 0 2387.84649806 0 345.56172143 0 1102.57214035 0 30867
0.16950000 0.16949900 8364.89780934 0 2.21659085 0 2113.19748094 0 294.44411944 0 906.48348228 0 30852
0.17050000 0.17049200 8239.82482819 0 98.72826654 0 2123.82691276 0 78.43369166 0 1079.87387447 0 31257
0.17150000 0.17149500 8184.37462550 0 76.75191624 0 2057.31545758 0 -117.17066293 0 938.24555325 0 32608
0.17250000 0.17250900 8258.27132134 0 54.31207842 0 2067.60164733 0 -116.36681215 0 825.10300209 0 32361
0.17350000 0.17350400 8195.84555401 0 23.17271500 0 2222.27095273 0 -307.87817114 0 584.43494983 0 32508
0.17450000 0.17449800 8269.53187568 0 -4.99214587 0 2333.24886438 0 -152.83019224 0 555.17633150 0 32791
0.17550000 0.17549800 8221.69943246 0 1.99477897 0 2256.03047110 0 8.91120632 0 369.63074112 0 33633
0.17650000 0.17650100 8253.22234122 0 106.81294595 0 2255.48792718 0 138.98535729 0 236.08410978 0 33984
0.17750000 0.17750300 8078.57856186 0 140.06158726 0 2047.00712317 0 155.81750548 0 -108.40791434 0 34069
0.17850000 0.17849800 7987.33153303 0 167.30061354 0 2049.26587744 0 -28.96808053 0 -497.44301543 0 34536
