### header ###
fiducial parameters:
Omega_m = 0.31
Omega_nu = 0
Omega_de = 0.69
Omega_k = 0
H_0 = 100
w_de = -1
zeff = 0
beta = 0
fgrowth = 0
b_1 = 2
gamma = 0.55
Lx = 3500 Ly = 3500 Lz = 3500
nx = 700 ny = 700 nz = 700
xoffset = -685.467585 yoffset = -31.7331281 zoffset = 572.489161
bins = 400 dk = 0.001
kx_ny = 0.628318531 ky_ny = 0.628318531 kz_ny = 0.628318531
############################
A(data) = 8.03485656 (not used)
A(ran) = 8.03778229 (used)
Ngal = 477032
weighted Ngal = 0
Nran = 23820508
weighted Nran = 0
SN(data) = 3487.84571
SN(ran) = 70.0119988
SN(data+ran) = 3557.85771
############################
13 columns: k_central k_mean P_0(k) sigma^{lin}_{P_0(k)} P^img_1(k) sigma^{lin}_{P_1(k)} P_2(k) sigma^{lin}_{P_2(k)} P^img_3(k) sigma^{lin}_{P_3(k)} P_4(k) sigma^{lin}_{P_4(k)} N_modes
### header ###
0.00050000 0 0 0 0 0 0 0 0 0 0 0 0
0.00150000 0.00179520 56824.61037152 0 -60436.73489711 0 -15385.10605876 0 59832.96102475 0 -130233.79174940 0 3
0.00250000 0.00253879 90676.47193256 0 -41145.86625857 0 8778.61522619 0 3815.87744690 0 109370.76370987 0 6
0.00350000 0.00331552 120624.12103930 0 -24281.60832729 0 36265.62837151 0 -175561.67509197 0 22539.04584733 0 7
0.00450000 0.00420575 113025.18451626 0 23029.21766705 0 35750.10092795 0 -67271.90245415 0 60554.65515642 0 24
0.00550000 0.00557378 95050.48312892 0 25200.38984074 0 75343.84869344 0 -12927.71428851 0 57869.72711115 0 45
0.00650000 0.00659388 73873.00106453 0 6542.43743349 0 62047.20454198 0 23265.94397168 0 8470.80459623 0 40
0.00750000 0.00754703 92221.28269126 0 10301.59136035 0 90785.20216228 0 54632.62222717 0 -53482.09695527 0 57
0.00850000 0.00846663 89010.97283334 0 -790.48759301 0 84644.93371085 0 12580.26473570 0 -14059.52733147 0 75
0.00950000 0.00948925 76820.12176151 0 25179.90603983 0 83824.91733478 0 27728.42304334 0 -25777.70085679 0 112
0.01050000 0.01054430 67681.46774919 0 662.59670519 0 53437.14331650 0 10277.09937785 0 2663.94598974 0 105
0.01150000 0.01145670 68271.73338528 0 -8094.83273469 0 48832.82776392 0 48114.67677618 0 -22008.90293502 0 144
0.01250000 0.01249090 76681.27480829 0 -11377.36736740 0 30528.39254348 0 31318.95653553 0 -19891.54225995 0 169
0.01350000 0.01339930 84559.67680975 0 -10955.19069439 0 18137.79673192 0 25031.64761051 0 -32141.18737656 0 180
0.01450000 0.01448870 87869.63759103 0 -8376.98878804 0 -5538.45438056 0 13000.34873932 0 -20507.16351986 0 267
0.01550000 0.01550050 93280.12911366 0 -3642.37411699 0 -11417.11701350 0 -1073.67558704 0 -19378.00783486 0 238
0.01650000 0.01653350 93553.83698318 0 4198.59235426 0 -11068.63773448 0 -15685.83040083 0 -34071.09359245 0 315
0.01750000 0.01747870 86911.77077097 0 7954.05919695 0 -4360.48081543 0 -24225.69308696 0 -13648.74408070 0 297
0.01850000 0.01844180 83076.09600730 0 8205.69992310 0 4879.21923318 0 -14367.33796143 0 -16290.71150567 0 388
0.01950000 0.01947590 77842.09734227 0 2647.55894901 0 -6633.85054719 0 -1760.69894801 0 -14832.48632706 0 399
0.02050000 0.02045430 73577.92360812 0 251.72598305 0 1085.97251098 0 9095.31693298 0 -17325.19881348 0 462
0.02150000 0.02154770 73400.10207153 0 4529.40020286 0 8106.21508460 0 -1736.39519503 0 -11563.27170111 0 571
0.02250000 0.02255340 68051.17267489 0 9078.22126346 0 4027.86817788 0 2644.20403459 0 5128.91123017 0 510
0.02350000 0.02348930 59543.75190048 0 4564.17837512 0 708.19253880 0 8881.01208611 0 5968.76921231 0 555
0.02450000 0.02439640 62784.17848191 0 -4417.16004618 0 2026.78905805 0 -2.57875552 0 6938.91524060 0 592
0.02550000 0.02547300 66351.46009198 0 -3697.76895806 0 18099.26504155 0 -2887.68445735 0 -6627.61682832 0 837
0.02650000 0.02652900 67618.02332798 0 3063.33581828 0 15093.90391603 0 -17801.19805743 0 560.39028926 0 723
0.02750000 0.02749970 66681.30464833 0 3140.43241599 0 15177.27852191 0 -5413.40354406 0 3561.78973696 0 826
0.02850000 0.02848090 65959.49979340 0 -1748.77405418 0 23454.94855633 0 -10007.22253272 0 4192.28112911 0 831
0.02950000 0.02946900 66997.30879865 0 379.96675634 0 22868.55823394 0 4803.76133954 0 -16905.55770285 0 996
0.03050000 0.03053250 66176.96025284 0 1596.85068535 0 25214.89458626 0 -4214.86867174 0 -12196.27651099 0 1041
0.03150000 0.03150510 62633.81631087 0 3128.29714799 0 23909.24604364 0 -1270.30568179 0 -4023.31745238 0 1036
0.03250000 0.03246190 63659.99937506 0 6659.81514889 0 27747.68888852 0 3005.77080154 0 -17488.62632780 0 1059
0.03350000 0.03345080 58446.70595745 0 1767.07660711 0 25091.10599478 0 5246.68754926 0 4646.64505037 0 1302
0.03450000 0.03451200 56342.74279541 0 479.60992908 0 22915.83706091 0 4167.20231340 0 -5181.87015978 0 1339
0.03550000 0.03553350 55167.74768566 0 2489.33542735 0 22085.30197626 0 5014.62269339 0 7152.37859078 0 1365
0.03650000 0.03647120 54043.79599332 0 3216.49928749 0 27599.76262894 0 5805.03167289 0 -4043.04833520 0 1308
0.03750000 0.03744890 51372.59763082 0 2190.73697164 0 23179.35839160 0 2106.63159232 0 9003.37234768 0 1579
0.03850000 0.03847530 49604.01518754 0 1321.08336341 0 22869.88691291 0 357.20205651 0 2403.21488491 0 1662
0.03950000 0.03950240 47772.09904629 0 1511.87059236 0 22313.05969778 0 1542.08696679 0 1753.90054057 0 1683
0.04050000 0.04050350 46314.09531417 0 2425.24881130 0 22449.13856981 0 1466.05331226 0 106.54798522 0 1822
0.04150000 0.04152450 45376.26940203 0 -381.03412845 0 20401.64426434 0 -2023.82167500 0 -9653.79392451 0 1887
0.04250000 0.04250150 45755.93942006 0 -93.90383317 0 23496.24832790 0 48.53874682 0 -2212.99234453 0 1920
0.04350000 0.04349210 45511.68393456 0 1653.83994119 0 23246.01378700 0 3675.36964495 0 -9641.91331998 0 2005
0.04450000 0.04448520 43682.86804427 0 2076.33771162 0 19110.16829749 0 845.81821459 0 -3722.32737451 0 2151
0.04550000 0.04548030 44446.74773351 0 887.71810617 0 22207.65116551 0 3468.09572435 0 -7139.98865930 0 2274
0.04650000 0.04648670 42631.10790974 0 -628.72535634 0 19838.61654731 0 -822.10129483 0 948.73547378 0 2311
0.04750000 0.04749250 43397.31278720 0 2290.43218431 0 22166.57284043 0 2670.29043186 0 -3323.84547661 0 2568
0.04850000 0.04851840 39711.88947131 0 2799.27194368 0 19589.04634590 0 -267.67455972 0 2884.66171268 0 2493
0.04950000 0.04949480 38434.03246399 0 2190.82555024 0 21700.20651907 0 4536.16539333 0 5830.15477791 0 2644
0.05050000 0.05050630 37497.09233783 0 409.66162427 0 20705.91175036 0 2788.40999303 0 2825.57978744 0 2829
0.05150000 0.05149060 36049.38586780 0 -193.96055724 0 18884.40359444 0 5983.15216225 0 4955.03144122 0 2784
0.05250000 0.05249300 36075.40583112 0 1510.98480638 0 17410.78788433 0 2053.81660294 0 2057.96872474 0 3055
0.05350000 0.05348950 34443.78804584 0 1712.49004575 0 14903.90282214 0 2616.71145207 0 5066.93942816 0 3009
0.05450000 0.05448610 32955.44614372 0 764.69571958 0 11991.10633210 0 519.40275724 0 4055.65971317 0 3336
0.05550000 0.05550870 33258.38495076 0 -53.11172769 0 11955.56416943 0 -794.66296670 0 2516.56227408 0 3349
0.05650000 0.05647670 33264.91762240 0 -653.67905478 0 11386.22522725 0 -903.32897693 0 340.29572374 0 3324
0.05750000 0.05747970 34049.17038931 0 -419.73190369 0 12505.19437343 0 -2624.83853848 0 -2923.86881486 0 3639
0.05850000 0.05849280 34840.28799760 0 -142.93153385 0 12880.32473828 0 -1507.77383218 0 -3712.58372867 0 3846
0.05950000 0.05951020 34552.29682907 0 30.92289948 0 13873.84444426 0 -1250.30906317 0 -3666.67786997 0 3787
0.06050000 0.06049470 35249.18895315 0 -1029.46933020 0 14940.88438703 0 914.69804006 0 -2603.36930066 0 3930
0.06150000 0.06148310 36953.44118924 0 -811.84721482 0 14425.57838997 0 403.12784539 0 -6131.18914508 0 4083
0.06250000 0.06249100 35792.95082500 0 1598.97657171 0 13922.67339671 0 2259.06428810 0 -4425.25391562 0 4303
0.06350000 0.06350600 34721.59267554 0 1878.91816010 0 13994.86495453 0 -915.00585069 0 -4398.80213163 0 4470
0.06450000 0.06451750 33036.05266840 0 1674.44553767 0 14752.76558836 0 470.70777992 0 -4482.06601426 0 4479
0.06550000 0.06550280 32671.77318187 0 599.39808959 0 13711.41343917 0 878.14054520 0 -3826.03076876 0 4636
0.06650000 0.06648880 31093.19183247 0 574.21740849 0 13545.88218313 0 2103.24346093 0 -2537.17894289 0 4653
0.06750000 0.06749660 31480.39103138 0 107.52157474 0 11448.89458573 0 2018.89449046 0 -3495.92047662 0 5220
0.06850000 0.06852730 30366.18298488 0 943.77728673 0 10614.87171876 0 2876.54569859 0 -3511.78711808 0 5029
0.06950000 0.06949320 29665.85844010 0 1536.25185161 0 9924.27974750 0 2425.75813824 0 -814.82013403 0 5040
0.07050000 0.07048030 27849.77572335 0 1038.95831257 0 7988.12874041 0 2460.80204629 0 547.87081158 0 5475
0.07150000 0.07148790 27968.13887566 0 -978.01623677 0 6957.90427766 0 2082.89252791 0 1626.79025165 0 5509
0.07250000 0.07249820 28709.54174552 0 -1126.33224218 0 6635.25673245 0 1211.55592631 0 -1446.38886338 0 5916
0.07350000 0.07351270 29247.32456196 0 -219.07369716 0 7371.34488639 0 -1393.41886145 0 -1259.00083815 0 5721
0.07450000 0.07449140 29489.47630574 0 998.56979333 0 7540.50786497 0 -3239.83974821 0 -1016.47706426 0 6028
0.07550000 0.07549160 28732.79362764 0 987.15311921 0 9006.26222446 0 -2436.66437819 0 -2225.05010626 0 6183
0.07650000 0.07648840 27813.34777469 0 443.32702788 0 8694.24411107 0 -1035.06860486 0 -2719.41833708 0 6330
0.07750000 0.07749960 27103.50103057 0 794.08942027 0 8925.81071233 0 1478.60932861 0 -4298.34292855 0 6583
0.07850000 0.07848650 26207.19633650 0 1367.13316233 0 8308.14107232 0 2046.63066413 0 -4496.44896420 0 6549
0.07950000 0.07947320 25009.39223762 0 733.86261666 0 6640.89254578 0 2563.01067670 0 -3923.19041904 0 6828
0.08050000 0.08048110 24425.99144293 0 24.63758357 0 5725.97527369 0 1731.42372119 0 -1856.54099164 0 7147
0.08150000 0.08149960 23995.83162372 0 204.82029343 0 5172.55833460 0 1089.21670215 0 -3009.12571596 0 7386
0.08250000 0.08250610 23932.83009550 0 727.86584553 0 5957.88511702 0 -742.41709481 0 -1799.70674835 0 7227
0.08350000 0.08350160 23517.95008455 0 536.28805259 0 6419.54570033 0 -699.46201068 0 -1378.22763180 0 7798
0.08450000 0.08449610 22977.17774041 0 820.98409726 0 7329.77937902 0 -1322.09094497 0 -1378.86982664 0 7371
0.08550000 0.08548940 22859.47892758 0 852.27005827 0 8137.93729521 0 -1322.99887561 0 -1135.38940388 0 8256
0.08650000 0.08650700 21563.79547731 0 544.23798181 0 8483.16131073 0 -373.69206986 0 -930.63554440 0 8037
0.08750000 0.08749060 21602.21644443 0 687.89475294 0 8047.15530402 0 1647.79445184 0 -1303.88804297 0 8155
0.08850000 0.08849210 21249.56289895 0 -54.76216843 0 6785.92892858 0 1685.93861084 0 -2137.63410181 0 8718
0.08950000 0.08949900 21110.16232949 0 -94.05319883 0 5904.58294534 0 1702.05991577 0 -671.93731841 0 8571
0.09050000 0.09049190 21175.48904592 0 91.87560471 0 5255.01393753 0 672.22519885 0 -1898.70440455 0 8932
0.09150000 0.09150830 21166.29901632 0 68.69292462 0 5882.27221083 0 -1304.08734482 0 -1533.91559108 0 9285
0.09250000 0.09250820 20636.82044349 0 869.10220645 0 7692.89627145 0 -814.47799919 0 -786.65989032 0 9204
0.09350000 0.09350330 20216.51499337 0 1624.16611067 0 7826.91569105 0 -1363.02532982 0 197.87573130 0 9349
0.09450000 0.09448040 19092.78474753 0 649.88346184 0 8194.43936876 0 246.09016972 0 743.23423238 0 9564
0.09550000 0.09549270 19116.81169239 0 -331.46222300 0 8650.81845313 0 1437.47564191 0 469.02257209 0 10155
0.09650000 0.09649430 19013.61762508 0 -73.70248726 0 7588.51746538 0 1539.16387304 0 731.50199700 0 9913
0.09750000 0.09749140 18824.28087068 0 474.52551752 0 7550.94906727 0 1438.94826111 0 198.54892865 0 10476
0.09850000 0.09850240 18465.86971630 0 569.39208933 0 6169.92013729 0 -22.02551142 0 484.12633037 0 10575
0.09950000 0.09950330 17775.73171035 0 664.11361369 0 6579.61830023 0 -130.62575205 0 467.63520979 0 10882
0.10050000 0.10051200 17375.91006115 0 853.26435303 0 6932.09468851 0 -413.42067854 0 1263.49620203 0 10875
0.10150000 0.10150300 16717.10673444 0 363.40145118 0 7203.14520007 0 -209.53046040 0 1464.76892258 0 11118
0.10250000 0.10250800 16703.04488192 0 107.26270379 0 7284.17247309 0 565.71275580 0 1999.15253531 0 11575
0.10350000 0.10349800 17016.61312078 0 -401.88220885 0 7469.34603336 0 727.76951631 0 1984.97995954 0 11364
0.10450000 0.10450100 16900.57515669 0 35.74932587 0 7163.92702556 0 1155.19779298 0 1908.35947179 0 12093
0.10550000 0.10551000 16924.82354804 0 342.34188937 0 6999.40335108 0 926.52328296 0 2329.06352560 0 12067
0.10650000 0.10649700 16641.81492567 0 24.88925751 0 6361.82567105 0 152.37954862 0 1968.18324279 0 12054
0.10750000 0.10749900 16357.58834758 0 188.48529262 0 5764.61768731 0 875.84635950 0 1993.05168433 0 12807
0.10850000 0.10850100 16091.52038219 0 287.70550255 0 5788.40104102 0 -104.74496785 0 1154.44487489 0 12736
0.10950000 0.10950300 16027.19017499 0 196.97001513 0 5359.50346684 0 124.87035761 0 199.50114858 0 12933
0.11050000 0.11050200 15319.44717258 0 626.31380399 0 5166.61249618 0 -58.86424333 0 593.07911382 0 13428
0.11150000 0.11150900 15140.73985001 0 330.36938454 0 4747.45856784 0 114.41697575 0 -335.40064894 0 13453
0.11250000 0.11250000 15081.17074249 0 -273.80973491 0 4945.66425442 0 171.72179284 0 -264.26539091 0 13668
0.11350000 0.11349100 14904.89933137 0 115.63382424 0 4663.74071989 0 229.45843061 0 -1880.32434535 0 13791
0.11450000 0.11448600 15058.80464635 0 331.37142994 0 4921.46015237 0 -614.73215223 0 -1447.78397631 0 14205
0.11550000 0.11549300 14573.83681930 0 425.25367208 0 4533.68519257 0 -393.18600494 0 -1638.16152924 0 14776
0.11650000 0.11649800 14280.86310459 0 342.71281225 0 4978.08402149 0 -464.93245530 0 -986.70358282 0 14553
0.11750000 0.11747300 14581.47672342 0 -299.65254103 0 4683.25015622 0 250.48809714 0 -1540.72507084 0 14568
0.11850000 0.11849100 14372.43123084 0 65.72066975 0 4626.78129964 0 734.93663216 0 -1502.97951553 0 16015
0.11950000 0.11950300 14633.62737332 0 120.49678930 0 4477.48207179 0 147.94618976 0 -1395.40080759 0 15270
0.12050000 0.12050700 14117.65703677 0 337.38480955 0 4507.82024179 0 391.51076219 0 -975.55485896 0 15999
0.12150000 0.12150000 13890.78510123 0 494.82551784 0 4178.87254375 0 41.01510210 0 -786.10627408 0 15670
0.12250000 0.12250700 13318.34590811 0 451.06769016 0 4603.96123819 0 360.29787853 0 -533.39042519 0 16887
0.12350000 0.12352200 13225.67054938 0 291.09141948 0 4649.46849320 0 159.91758736 0 -505.26450568 0 16407
0.12450000 0.12449800 12877.55665708 0 89.96108903 0 4444.73013497 0 298.71360789 0 -763.27071137 0 16306
0.12550000 0.12549900 12898.48335099 0 5.89674374 0 4365.66266344 0 -7.55662917 0 -615.87813785 0 17523
0.12650000 0.12650100 12910.55218504 0 -6.11069427 0 4394.77180539 0 -357.95608183 0 -1237.23264756 0 17154
0.12750000 0.12750600 12780.23092192 0 362.17795928 0 4272.31189290 0 243.39738033 0 -604.76152373 0 18007
0.12850000 0.12850300 12685.56254472 0 234.89604933 0 4154.36948893 0 203.04318529 0 -501.11681280 0 17496
0.12950000 0.12949900 12307.66409866 0 341.22690626 0 4137.78314635 0 354.16823951 0 -64.64654352 0 18405
0.13050000 0.13049000 12194.94783201 0 232.73362429 0 4304.03410350 0 1047.65451648 0 -8.66555572 0 18100
0.13150000 0.13148800 11844.39802825 0 117.24595474 0 4019.22069219 0 410.00818803 0 515.86182777 0 19059
0.13250000 0.13249300 12060.52980871 0 90.08709208 0 3954.07113296 0 409.33720515 0 820.08281002 0 18957
0.13350000 0.13349100 11847.49827920 0 -5.68871690 0 3673.16625231 0 207.25952658 0 594.84625686 0 19468
0.13450000 0.13450700 11828.12171077 0 61.85975008 0 3838.66429138 0 -71.95981406 0 780.71405189 0 19953
0.13550000 0.13551000 11985.90233943 0 52.94387125 0 3458.08634271 0 -485.96876522 0 313.92255326 0 19956
0.13650000 0.13649900 11887.58009504 0 -41.29036010 0 3840.14798290 0 371.35248763 0 313.22167510 0 19723
0.13750000 0.13749600 11908.50678895 0 -103.10249918 0 3583.76830173 0 -305.12559119 0 154.39581897 0 20946
0.13850000 0.13851100 12018.89786739 0 93.25565928 0 3650.61192666 0 216.24471817 0 -387.37414164 0 20955
0.13950000 0.13949800 11960.87888534 0 242.62785375 0 3797.07663936 0 33.24565178 0 -238.49344766 0 20506
0.14050000 0.14048300 11661.04032925 0 322.69515621 0 3460.66619439 0 -35.07070308 0 -453.72615535 0 21447
0.14150000 0.14148400 11356.88356649 0 442.73687297 0 3578.34286257 0 -111.09417107 0 -111.02884435 0 21771
0.14250000 0.14249400 11178.17624391 0 27.79363904 0 3553.49656567 0 243.05192379 0 -610.01091293 0 22470
0.14350000 0.14350900 11155.47797803 0 4.26895698 0 3680.85044574 0 19.43480886 0 -744.93604871 0 22519
0.14450000 0.14449900 11078.30387405 0 170.38093431 0 3472.23677383 0 -9.28801967 0 -1119.69991961 0 22218
0.14550000 0.14550500 10994.55280912 0 139.81467441 0 3747.55013044 0 -225.29412925 0 -732.67344897 0 23559
0.14650000 0.14650700 10746.33343134 0 252.18659177 0 3690.54980228 0 -117.82171563 0 -673.88051142 0 23044
0.14750000 0.14750500 10740.19936339 0 137.69875314 0 3909.52717022 0 97.14171312 0 -663.29647612 0 23649
0.14850000 0.14849900 10535.63816236 0 165.07064733 0 3904.91001077 0 159.94637540 0 -394.04300288 0 23640
0.14950000 0.14949500 10452.51821995 0 259.31606172 0 3960.92490202 0 328.93441125 0 -334.58683307 0 24457
0.15050000 0.15050000 10113.01859636 0 323.05279230 0 3894.53524241 0 80.18090451 0 -144.83929542 0 24591
0.15150000 0.15149900 9876.20371314 0 256.89786598 0 3432.49820005 0 434.04066905 0 232.25640709 0 25020
0.15250000 0.15250500 9751.98330100 0 -11.32820625 0 3089.72116832 0 585.06939404 0 -20.44482633 0 25297
0.15350000 0.15350100 9595.25454319 0 13.53890662 0 2676.94489908 0 671.94949797 0 -249.69199699 0 25452
0.15450000 0.15450400 9720.59326014 0 48.15808029 0 2280.44494732 0 666.72668235 0 -246.16656876 0 26061
0.15550000 0.15549900 9456.30793904 0 -12.44307863 0 2112.28955030 0 265.36708723 0 -240.47096488 0 26128
0.15650000 0.15649500 9489.71314302 0 194.31487164 0 1919.34321801 0 -16.27886412 0 -283.25885691 0 26331
0.15750000 0.15749700 9261.84469825 0 214.79202916 0 2085.16235450 0 -168.92603083 0 -36.33815210 0 27345
0.15850000 0.15849900 9113.80771542 0 189.57591661 0 2110.07508534 0 -271.17009267 0 -232.01835211 0 26980
0.15950000 0.15949700 9100.90845701 0 173.67384371 0 2488.10639930 0 -299.38791247 0 185.14809392 0 27777
0.16050000 0.16050000 9018.43070944 0 198.69951227 0 2502.19039647 0 33.46278007 0 -270.60318964 0 28224
0.16150000 0.16150500 8860.62793612 0 260.98687553 0 2765.04738766 0 8.49051333 0 288.44734832 0 28075
0.16250000 0.16249700 8683.69218552 0 237.52683371 0 2830.44053804 0 -81.27927914 0 381.75050786 0 28590
0.16350000 0.16349900 8635.15111351 0 154.07582878 0 2878.74909122 0 147.89193537 0 255.37209962 0 29163
0.16450000 0.16449100 8381.06340358 0 2.59345957 0 3020.30876403 0 300.58593801 0 822.89296606 0 28996
0.16550000 0.16550500 8525.66796571 0 -67.43676937 0 2753.37715730 0 169.64462471 0 448.49448187 0 30777
0.16650000 0.16650700 8648.63720514 0 -132.54569317 0 2912.71898377 0 141.90180764 0 694.24473122 0 29211
0.16750000 0.16749900 8575.82559714 0 4.24009143 0 2850.37072271 0 11.90618160 0 773.40188858 0 30922
0.16850000 0.16850800 8736.66218745 0 87.51831272 0 2787.36919450 0 51.56669548 0 1026.25946323 0 30867
0.16950000 0.16949900 8631.30901680 0 -4.61199975 0 2388.64370545 0 198.52346230 0 749.42698365 0 30852
0.17050000 0.17049200 8553.79167075 0 13.02747594 0 2634.60432897 0 184.70409369 0 608.66230377 0 31257
0.17150000 0.17149500 8556.59296893 0 117.44414935 0 2376.38664188 0 211.19905975 0 223.21031772 0 32608
0.17250000 0.17250900 8523.32063285 0 70.80397407 0 2280.13492223 0 207.10562127 0 181.35582267 0 32361
0.17350000 0.17350400 8463.43042790 0 -51.26519608 0 1975.87850854 0 289.78267069 0 199.54100895 0 32508
0.17450000 0.17449800 8529.96402774 0 8.74708125 0 1885.30689152 0 40.21723038 0 -51.07109823 0 32791
0.17550000 0.17549800 8407.62591082 0 213.02931505 0 2137.53445089 0 -225.82781530 0 101.58392983 0 33633
0.17650000 0.17650100 8212.55369216 0 427.97635675 0 2133.26053351 0 -235.12746092 0 -44.10461290 0 33984
0.17750000 0.17750300 7952.05510615 0 298.12123851 0 2150.17904583 0 -265.91406008 0 412.36880769 0 34069
