### header ###
fiducial parameters:
Omega_m = 0.31
Omega_nu = 0
Omega_de = 0.69
Omega_k = 0
H_0 = 100
w_de = -1
zeff = 0
beta = 0
fgrowth = 0
b_1 = 2
gamma = 0.55
Lx = 3500 Ly = 3500 Lz = 3500
nx = 700 ny = 700 nz = 700
xoffset = -685.467585 yoffset = -31.7331281 zoffset = 572.489161
bins = 400 dk = 0.001
kx_ny = 0.628318531 ky_ny = 0.628318531 kz_ny = 0.628318531
############################
A(data) = 8.07776805 (not used)
A(ran) = 8.08305446 (used)
Ngal = 480191
weighted Ngal = 0
Nran = 23820508
weighted Nran = 0
SN(data) = 3480.0887
SN(ran) = 70.4063358
SN(data+ran) = 3550.49503
############################
13 columns: k_central k_mean P_0(k) sigma^{lin}_{P_0(k)} P^img_1(k) sigma^{lin}_{P_1(k)} P_2(k) sigma^{lin}_{P_2(k)} P^img_3(k) sigma^{lin}_{P_3(k)} P_4(k) sigma^{lin}_{P_4(k)} N_modes
### header ###
0.00050000 0 0 0 0 0 0 0 0 0 0 0 0
0.00150000 0.00179520 12561.88467650 0 -17725.90624867 0 -7781.95097996 0 -32477.34315805 0 14537.74104039 0 3
0.00250000 0.00253879 20253.49655827 0 -10999.20318554 0 -10294.93689313 0 9704.54946147 0 -5570.44232696 0 6
0.00350000 0.00331552 24855.37619939 0 -10083.11224702 0 -13940.49983967 0 -8740.31605464 0 10959.75249222 0 7
0.00450000 0.00420575 25323.95698572 0 -6922.51712754 0 -13116.38670342 0 -14345.52548153 0 1526.71857994 0 24
0.00550000 0.00557378 35660.19365042 0 -8527.84921370 0 -2530.95629635 0 -23536.77303674 0 -4502.41694728 0 45
0.00650000 0.00659388 38563.46794112 0 -11464.39584047 0 17933.51233902 0 -18645.79499460 0 5549.50456073 0 40
0.00750000 0.00754703 41068.69215459 0 7664.28538412 0 25421.61489062 0 -25562.78703206 0 15152.25506782 0 57
0.00850000 0.00846663 49344.81206353 0 17058.79867834 0 44844.57636424 0 -22258.69458292 0 34111.50757804 0 75
0.00950000 0.00948925 43159.70069659 0 -941.56503623 0 47623.17627748 0 8611.76636350 0 31686.88988925 0 112
0.01050000 0.01054430 49041.54108675 0 -4830.30170213 0 46170.37653803 0 33173.23877291 0 8040.62263238 0 105
0.01150000 0.01145670 65026.32425768 0 -10858.50715407 0 46995.92907650 0 33725.96922785 0 -826.98197561 0 144
0.01250000 0.01249090 70740.97254308 0 -10577.61334575 0 34979.91001356 0 10627.93706205 0 -14183.53736944 0 169
0.01350000 0.01339930 83675.77311947 0 -5527.07203065 0 31444.51669897 0 -5388.60153647 0 15439.80334336 0 180
0.01450000 0.01448870 87386.44133595 0 -8264.10643652 0 29118.66414757 0 -2733.21445381 0 8.74844314 0 267
0.01550000 0.01550050 90087.09208246 0 -6834.01603527 0 28081.85165155 0 6029.76664974 0 4642.14968649 0 238
0.01650000 0.01653350 101422.16316906 0 774.72392417 0 27291.50910599 0 5671.12297654 0 -8242.22752268 0 315
0.01750000 0.01747870 97992.84272622 0 7821.74491536 0 20289.03872094 0 -4144.75871099 0 -3124.74293172 0 297
0.01850000 0.01844180 93358.41045013 0 10048.04619432 0 40030.99387258 0 -3239.15326407 0 -14787.64341154 0 388
0.01950000 0.01947590 85310.60187895 0 9691.89379421 0 44597.55279754 0 6462.91599664 0 4832.71546894 0 399
0.02050000 0.02045430 74977.46546519 0 9642.33406832 0 42275.46483657 0 20490.99792563 0 9438.53685771 0 462
0.02150000 0.02154770 67693.20441350 0 504.29678449 0 40070.63279543 0 11086.82956416 0 4490.14881138 0 571
0.02250000 0.02255340 77779.76015354 0 -3265.76006061 0 28640.45043865 0 16111.89345985 0 -2245.50069020 0 510
0.02350000 0.02348930 69075.58416711 0 -1581.32728595 0 25150.89654880 0 2446.47445798 0 -4617.31446192 0 555
0.02450000 0.02439640 74866.41004726 0 -463.78757691 0 20424.12108372 0 635.28681603 0 6088.99251519 0 592
0.02550000 0.02547300 75307.42074479 0 -1043.60647453 0 18412.50111067 0 -1925.18940552 0 -7009.15806925 0 837
0.02650000 0.02652900 75848.85742842 0 3598.32840886 0 22847.85298652 0 1994.61288213 0 -4777.71923157 0 723
0.02750000 0.02749970 70985.56019833 0 3369.23093604 0 26427.53560039 0 -413.36420969 0 -10964.40286864 0 826
0.02850000 0.02848090 66864.99451707 0 6870.98652784 0 22992.01465566 0 7140.46476927 0 1957.13306262 0 831
0.02950000 0.02946900 62554.53846517 0 3146.07930165 0 27747.46744202 0 3643.79137457 0 806.34205492 0 996
0.03050000 0.03053250 58238.76769736 0 3306.12975690 0 24289.69112441 0 7127.51014923 0 -97.63487446 0 1041
0.03150000 0.03150510 56447.59771144 0 2314.53663544 0 24937.75429604 0 -2999.90246939 0 6534.34356405 0 1036
0.03250000 0.03246190 55512.31843401 0 -216.79501272 0 23545.18800360 0 6292.52399001 0 -2842.47615512 0 1059
0.03350000 0.03345080 56003.26531647 0 -102.51156921 0 25856.97870249 0 -1661.42448369 0 1696.72305521 0 1302
0.03450000 0.03451200 55135.63794368 0 2831.60313215 0 23937.70191842 0 -3289.78700547 0 -8076.74055594 0 1339
0.03550000 0.03553350 52155.30027225 0 3573.24959315 0 23317.09811234 0 944.42391050 0 -845.61116212 0 1365
0.03650000 0.03647120 51686.27659293 0 3715.59540102 0 22582.22791413 0 1618.66316524 0 505.93327410 0 1308
0.03750000 0.03744890 46776.03270561 0 2127.87938365 0 19611.30171879 0 4213.85001786 0 3140.28847577 0 1579
0.03850000 0.03847530 46845.23473572 0 1120.28675283 0 20347.16842623 0 6757.24053497 0 -2659.86030188 0 1662
0.03950000 0.03950240 44187.43388625 0 1791.26963684 0 18892.48639156 0 3773.45937052 0 2378.32429872 0 1683
0.04050000 0.04050350 45600.26253311 0 -121.38257529 0 19668.43491485 0 -1767.94024844 0 3957.84679572 0 1822
0.04150000 0.04152450 44229.73016706 0 -936.15731279 0 24909.96276075 0 1198.53487232 0 2097.08724833 0 1887
0.04250000 0.04250150 45472.70935120 0 1110.39916676 0 23281.77739617 0 -1195.03601768 0 3390.78875246 0 1920
0.04350000 0.04349210 43267.76658682 0 2456.53920124 0 21976.01813030 0 558.93981471 0 5607.11386676 0 2005
0.04450000 0.04448520 44215.66831454 0 561.57724248 0 22819.39711174 0 1847.46168529 0 3663.73263157 0 2151
0.04550000 0.04548030 42556.25899397 0 140.94515878 0 23350.75797979 0 844.31016395 0 -1271.32433568 0 2274
0.04650000 0.04648670 42090.77845859 0 1513.91897245 0 21881.90336935 0 1989.53068504 0 322.87674234 0 2311
0.04750000 0.04749250 41714.87303100 0 483.65464933 0 17652.27528862 0 1656.09869545 0 858.02655994 0 2568
0.04850000 0.04851840 41149.29867927 0 -516.34125943 0 17887.23002127 0 1525.20167144 0 3310.76906100 0 2493
0.04950000 0.04949480 42232.17204653 0 -1167.32198866 0 17555.39244646 0 3268.87138388 0 -1614.45568181 0 2644
0.05050000 0.05050630 41492.43002540 0 877.26250985 0 15575.66076889 0 1610.46964487 0 -3172.56430261 0 2829
0.05150000 0.05149060 40735.08300780 0 3001.40830556 0 16719.21047616 0 -2059.34169302 0 -2371.85806103 0 2784
0.05250000 0.05249300 39792.16382624 0 1648.75774409 0 18909.75921828 0 -3002.34945317 0 -2924.90961339 0 3055
0.05350000 0.05348950 39386.69529139 0 876.98016556 0 19170.40174451 0 -1816.30416325 0 1451.32712025 0 3009
0.05450000 0.05448610 38182.57996736 0 -525.72837641 0 20229.35889016 0 -207.64041456 0 -2044.94767076 0 3336
0.05550000 0.05550870 39199.90517169 0 503.52725792 0 19269.38832839 0 3379.36211325 0 -3692.98571374 0 3349
0.05650000 0.05647670 38308.14013080 0 473.11933227 0 19130.87354491 0 2652.27575938 0 -3914.19969129 0 3324
0.05750000 0.05747970 36922.99229599 0 530.54926664 0 15697.12417215 0 4503.01485282 0 -2385.08948918 0 3639
0.05850000 0.05849280 36059.46168338 0 632.95166272 0 12696.52414629 0 3765.97447894 0 -1392.07911015 0 3846
0.05950000 0.05951020 35846.98377011 0 -344.03484784 0 12251.97030482 0 2723.33794007 0 -5267.48137527 0 3787
0.06050000 0.06049470 35918.84315819 0 526.33956874 0 10477.53060171 0 1384.82673739 0 -5157.07922451 0 3930
0.06150000 0.06148310 34716.72085262 0 1036.43603697 0 11139.09093730 0 -1438.83753786 0 -2553.62134525 0 4083
0.06250000 0.06249100 33882.64262404 0 892.22454237 0 10579.82781071 0 -1825.32810798 0 -2780.46006381 0 4303
0.06350000 0.06350600 34426.84738887 0 204.56230826 0 11550.64925081 0 -739.00460430 0 -5362.10546317 0 4470
0.06450000 0.06451750 32904.84561930 0 951.59324082 0 12120.98470222 0 612.98383214 0 -4991.60333009 0 4479
0.06550000 0.06550280 33037.04917764 0 1570.16638253 0 10876.27823541 0 -332.09223829 0 -6902.79731704 0 4636
0.06650000 0.06648880 31901.02865124 0 374.47599046 0 10775.23219911 0 -725.76210382 0 -5519.40998187 0 4653
0.06750000 0.06749660 31787.42659860 0 478.40968907 0 10202.94801854 0 -208.86722815 0 -4411.20313542 0 5220
0.06850000 0.06852730 30795.34629485 0 1087.09635195 0 11066.34576324 0 429.07805307 0 -6734.18795470 0 5029
0.06950000 0.06949320 29782.00712745 0 959.94952436 0 10526.18239697 0 28.87175130 0 -3881.75777957 0 5040
0.07050000 0.07048030 29480.61844589 0 919.43699508 0 11450.66615770 0 287.37111834 0 -3983.16920258 0 5475
0.07150000 0.07148790 28673.55668986 0 48.04813210 0 11294.43565451 0 2144.11141183 0 -3957.24889018 0 5509
0.07250000 0.07249820 28611.88384062 0 -384.61823999 0 11466.49958219 0 1297.58789015 0 -1717.94870189 0 5916
0.07350000 0.07351270 28929.65956291 0 681.09855996 0 10969.75080153 0 1080.83384503 0 -2966.12080637 0 5721
0.07450000 0.07449140 27958.72739956 0 836.30930204 0 10532.44933281 0 448.58748940 0 -2150.36727535 0 6028
0.07550000 0.07549160 27391.71364560 0 928.97026675 0 9530.58109392 0 -128.11676324 0 -2048.95585234 0 6183
0.07650000 0.07648840 26297.54650702 0 1046.68347359 0 8488.53138827 0 743.96389859 0 -2506.18750573 0 6330
0.07750000 0.07749960 26048.97281484 0 473.63751707 0 9603.25983403 0 595.60471111 0 -2624.79424918 0 6583
0.07850000 0.07848650 26208.63573873 0 -575.09987278 0 7682.65437099 0 1988.08021049 0 -2891.86979613 0 6549
0.07950000 0.07947320 26312.27269903 0 -798.85605611 0 8388.50400585 0 879.52015688 0 -4371.22097050 0 6828
0.08050000 0.08048110 26196.01328844 0 1017.19233644 0 7475.65725851 0 467.15356366 0 -2151.33056761 0 7147
0.08150000 0.08149960 25320.30311853 0 1297.84255362 0 7863.07790391 0 -813.34419313 0 -2302.27957187 0 7386
0.08250000 0.08250610 24461.75505209 0 1058.65044226 0 8339.67505340 0 -751.92379290 0 -739.40763692 0 7227
0.08350000 0.08350160 23528.02590013 0 1028.03878583 0 8826.28158453 0 -426.01434079 0 -2189.50794359 0 7798
0.08450000 0.08449610 23017.81317249 0 626.70576429 0 8691.60889777 0 -970.17703079 0 -2090.43278111 0 7371
0.08550000 0.08548940 22521.33012762 0 480.76477256 0 9199.33035232 0 627.38781950 0 -1300.86529829 0 8256
0.08650000 0.08650700 21879.02456489 0 613.72346344 0 8922.57759348 0 1353.28168398 0 -2013.36940037 0 8037
0.08750000 0.08749060 21495.36850993 0 520.23207437 0 8176.60185348 0 1953.94423307 0 -1731.97733743 0 8155
0.08850000 0.08849210 20747.65441492 0 380.53587383 0 7624.20356827 0 1614.62176668 0 -2186.56270519 0 8718
0.08950000 0.08949900 20555.54957932 0 355.11049435 0 7043.41584224 0 1235.10676120 0 -1342.28686544 0 8571
0.09050000 0.09049190 20035.59320584 0 218.88989657 0 6415.34928922 0 395.90315345 0 -294.99884291 0 8932
0.09150000 0.09150830 20228.47310418 0 -59.81646326 0 6223.84235916 0 455.50326348 0 -225.87431907 0 9285
0.09250000 0.09250820 19933.72781751 0 0.78417415 0 6267.74412707 0 -289.21798212 0 26.04886209 0 9204
0.09350000 0.09350330 20343.18238930 0 184.56236794 0 6997.02280125 0 64.86322891 0 21.30060632 0 9349
0.09450000 0.09448040 20054.41615803 0 119.86345232 0 6498.50244861 0 430.06902614 0 1096.42810731 0 9564
0.09550000 0.09549270 20058.95581120 0 -28.54179602 0 6991.94060415 0 470.43982966 0 450.41995916 0 10155
0.09650000 0.09649430 19980.45302824 0 332.75879224 0 6892.62185053 0 740.66102409 0 516.45419714 0 9913
0.09750000 0.09749140 19701.87333580 0 683.26541393 0 7275.11531139 0 -310.48127470 0 218.37281900 0 10476
0.09850000 0.09850240 18977.96473916 0 878.80931362 0 6703.72798912 0 -611.25544224 0 1271.96653052 0 10575
0.09950000 0.09950330 17858.33125350 0 766.13733627 0 7532.83474387 0 -195.47635851 0 1185.85706040 0 10882
0.10050000 0.10051200 17736.31423400 0 244.34406410 0 6545.53768444 0 657.08600913 0 450.20294159 0 10875
0.10150000 0.10150300 17575.32263113 0 115.52420823 0 6378.46737525 0 1347.96696807 0 -89.41788077 0 11118
0.10250000 0.10250800 17286.00278362 0 66.36873292 0 5269.93943138 0 618.18450311 0 -880.31182810 0 11575
0.10350000 0.10349800 17305.15790556 0 9.60982572 0 5913.65117937 0 -246.78772619 0 -671.10025065 0 11364
0.10450000 0.10450100 17068.65304743 0 288.27683451 0 5428.40654419 0 -160.39923349 0 -632.47998169 0 12093
0.10550000 0.10551000 16737.92270510 0 742.20672064 0 6094.35152041 0 -756.90744630 0 75.73735912 0 12067
0.10650000 0.10649700 16375.19334404 0 728.67080355 0 6120.01716934 0 -163.03223233 0 382.10260779 0 12054
0.10750000 0.10749900 16313.29904830 0 330.88756935 0 7348.20372752 0 -0.93911252 0 759.78514352 0 12807
0.10850000 0.10850100 15592.37997936 0 156.94134644 0 6661.39849134 0 272.58402855 0 1605.09956734 0 12736
0.10950000 0.10950300 15958.09886812 0 -224.00088171 0 7069.49116718 0 1178.98114669 0 1015.23364218 0 12933
0.11050000 0.11050200 15926.87491213 0 -183.82605834 0 6694.02863258 0 755.38610887 0 1018.75464147 0 13428
0.11150000 0.11150900 15892.55070520 0 357.09133326 0 6178.70049087 0 324.16666818 0 600.89063898 0 13453
0.11250000 0.11250000 15695.90621642 0 400.00987872 0 6080.33395719 0 -144.16388360 0 906.76582656 0 13668
0.11350000 0.11349100 15244.70898006 0 234.98794963 0 5930.20430497 0 -384.20967121 0 324.98159129 0 13791
0.11450000 0.11448600 15436.70309241 0 39.95559134 0 6148.10765740 0 -114.77018291 0 588.88713164 0 14205
0.11550000 0.11549300 15362.73996262 0 -28.27882831 0 6278.22961867 0 232.58193344 0 442.02713695 0 14776
0.11650000 0.11649800 15466.93053917 0 134.77676662 0 6349.97828349 0 264.23881733 0 292.57843271 0 14553
0.11750000 0.11747300 15218.02467724 0 218.92864971 0 6370.50637371 0 596.50378388 0 508.12116548 0 14568
0.11850000 0.11849100 14964.35771565 0 431.55382490 0 6111.58005782 0 151.25238595 0 -4.15106994 0 16015
0.11950000 0.11950300 14620.22986029 0 297.77246028 0 5938.46425928 0 378.21732902 0 486.40722928 0 15270
0.12050000 0.12050700 14314.52297204 0 191.84131427 0 5933.17168802 0 465.94335855 0 560.81989546 0 15999
0.12150000 0.12150000 14384.83223464 0 182.24493035 0 5284.23380272 0 222.39871631 0 442.16111208 0 15670
0.12250000 0.12250700 13828.44791250 0 275.86143669 0 5497.29854921 0 171.22353823 0 651.31179174 0 16887
0.12350000 0.12352200 13989.32879212 0 266.34366628 0 5702.72339157 0 -103.78300427 0 934.60940178 0 16407
0.12450000 0.12449800 13786.81597119 0 91.79544108 0 5548.24231570 0 740.71860018 0 985.03166177 0 16306
0.12550000 0.12549900 13519.19788032 0 168.48978123 0 5171.08571540 0 511.73849400 0 968.28809218 0 17523
0.12650000 0.12650100 13448.55644798 0 56.55610649 0 4922.60060182 0 753.89245225 0 662.13720371 0 17154
0.12750000 0.12750600 13416.66815250 0 -84.13472098 0 4603.28582638 0 652.59285972 0 538.74721593 0 18007
0.12850000 0.12850300 13374.59331819 0 125.33539525 0 4170.25827505 0 681.45176713 0 1393.07561938 0 17496
0.12950000 0.12949900 13130.22710944 0 146.59425890 0 3858.39517420 0 214.70455779 0 995.07093868 0 18405
0.13050000 0.13049000 13045.52382458 0 213.95939033 0 3447.60085111 0 644.11699507 0 1138.35678693 0 18100
0.13150000 0.13148800 12865.70926952 0 69.89637561 0 3515.41884062 0 -66.58597193 0 832.47163426 0 19059
0.13250000 0.13249300 12802.15412506 0 274.44307188 0 3565.24430230 0 -244.09604402 0 856.70009543 0 18957
0.13350000 0.13349100 12544.50112653 0 382.17236344 0 3780.16919936 0 73.00825250 0 630.39838462 0 19468
0.13450000 0.13450700 12194.28349252 0 190.46613153 0 3843.39217407 0 -51.45586151 0 220.50091983 0 19953
0.13550000 0.13551000 12177.45355880 0 229.99654560 0 3583.83473568 0 92.67558018 0 321.19707066 0 19956
0.13650000 0.13649900 11885.47635333 0 234.87390468 0 3498.94322129 0 463.47644458 0 248.00789638 0 19723
0.13750000 0.13749600 11838.19752635 0 66.43494542 0 3430.58268786 0 211.67074079 0 199.47236054 0 20946
0.13850000 0.13851100 11830.77906872 0 22.99655431 0 3246.04025011 0 190.36205168 0 -427.18911446 0 20955
0.13950000 0.13949800 11617.19392297 0 77.43153554 0 3189.15064519 0 -184.41842771 0 -312.94597421 0 20506
0.14050000 0.14048300 11751.83339277 0 269.78051590 0 3208.72651547 0 -247.60929269 0 -369.86325994 0 21447
0.14150000 0.14148400 11438.92949339 0 222.63344959 0 3753.16379913 0 -51.35178166 0 278.71698926 0 21771
0.14250000 0.14249400 11149.60964588 0 274.24598450 0 3254.85382066 0 293.65798438 0 481.16891241 0 22470
0.14350000 0.14350900 11008.55930002 0 244.24109148 0 3471.06310740 0 516.72657633 0 344.00052363 0 22519
0.14450000 0.14449900 10788.78472469 0 158.11390564 0 2991.86396157 0 318.06360274 0 565.29643638 0 22218
0.14550000 0.14550500 10613.67590768 0 173.73917043 0 3134.96268753 0 148.63931730 0 219.34718359 0 23559
0.14650000 0.14650700 10382.23110200 0 304.02500210 0 3092.20136908 0 -553.12130801 0 -12.65123834 0 23044
0.14750000 0.14750500 10381.01314627 0 252.54754956 0 3530.74293817 0 -441.96734639 0 38.74649347 0 23649
0.14850000 0.14849900 10036.98494183 0 178.55784619 0 3482.00256432 0 -639.81761134 0 85.62239855 0 23640
0.14950000 0.14949500 9978.30162029 0 229.31670485 0 3838.13281979 0 -166.43586498 0 -333.54382007 0 24457
0.15050000 0.15050000 9962.64535300 0 139.07172142 0 4054.91786741 0 -23.61560799 0 -255.80724198 0 24591
0.15150000 0.15149900 9954.62898983 0 38.61196472 0 4044.44344813 0 218.82014093 0 -307.98778716 0 25020
0.15250000 0.15250500 9873.56849983 0 -8.00403967 0 3937.93875570 0 291.74247218 0 145.84355528 0 25297
0.15350000 0.15350100 9968.45832353 0 -34.32686430 0 3892.74152579 0 547.85641756 0 55.30316222 0 25452
0.15450000 0.15450400 9754.99497335 0 119.46706310 0 3504.98871064 0 513.45581158 0 145.28108118 0 26061
0.15550000 0.15549900 9859.16340524 0 102.23675411 0 3176.51712257 0 692.76768309 0 39.77489100 0 26128
0.15650000 0.15649500 9649.78574292 0 -77.92026796 0 2658.91915427 0 211.54340906 0 166.72263819 0 26331
0.15750000 0.15749700 9658.86504927 0 114.00065633 0 2548.29555701 0 191.68298003 0 -251.24987309 0 27345
0.15850000 0.15849900 9513.35255651 0 111.00891417 0 2404.33318972 0 -211.63309489 0 -343.90419440 0 26980
0.15950000 0.15949700 9360.60983563 0 105.68434388 0 2364.80499012 0 -40.70862015 0 -449.52863701 0 27777
0.16050000 0.16050000 9355.93731456 0 235.56592498 0 2825.41370257 0 -514.46339314 0 -339.34128934 0 28224
0.16150000 0.16150500 9065.45487294 0 247.38673896 0 2926.41544957 0 -93.01251102 0 -257.85783654 0 28075
0.16250000 0.16249700 9051.94663666 0 323.04171998 0 3370.55961502 0 102.01918292 0 -48.60185907 0 28590
0.16350000 0.16349900 8769.63557076 0 144.07973394 0 3323.63510244 0 79.36587068 0 252.68484638 0 29163
0.16450000 0.16449100 8821.05544722 0 133.73596809 0 3530.54363632 0 249.17270495 0 252.99376425 0 28996
0.16550000 0.16550500 8761.60813527 0 -103.47707593 0 3308.14492002 0 268.11523825 0 376.30735298 0 30777
0.16650000 0.16650700 8761.54170132 0 -51.54056480 0 3287.12964751 0 342.42382457 0 124.41307059 0 29211
0.16750000 0.16749900 8792.66600638 0 101.50133029 0 2744.54144210 0 75.59618698 0 131.26351796 0 30922
0.16850000 0.16850800 8710.91903225 0 127.08592980 0 2711.30232299 0 106.37968588 0 -91.85722465 0 30867
0.16950000 0.16949900 8421.26701499 0 178.91216058 0 2403.38096979 0 87.13819981 0 -138.04531691 0 30852
0.17050000 0.17049200 8424.57764011 0 240.00592723 0 2374.39362341 0 215.76417928 0 -181.09340857 0 31257
0.17150000 0.17149500 8118.93718582 0 132.63316454 0 2497.15248867 0 -1.63448552 0 47.57047201 0 32608
0.17250000 0.17250900 8251.68328807 0 65.39005013 0 2479.33711804 0 317.84215624 0 267.81960718 0 32361
0.17350000 0.17350400 8219.39638890 0 -63.34189148 0 2537.26752149 0 246.02927194 0 334.86807012 0 32508
0.17450000 0.17449800 8224.71110481 0 37.72307849 0 2555.28219397 0 286.46318771 0 583.13838060 0 32791
0.17550000 0.17549800 8107.95343960 0 187.08021460 0 2436.31006380 0 78.02069394 0 658.36375541 0 33633
0.17650000 0.17650100 8036.71410172 0 81.52718849 0 2263.30498850 0 4.75895164 0 571.07729717 0 33984
0.17750000 0.17750300 7953.07376004 0 69.02498364 0 2396.05109076 0 -71.51238141 0 450.47421355 0 34069
0.17850000 0.17849800 7879.86354834 0 165.09168474 0 2315.53314467 0 -98.96809310 0 165.30759508 0 34536
