### header ###
fiducial parameters:
Omega_m = 0.31
Omega_nu = 0
Omega_de = 0.69
Omega_k = 0
H_0 = 100
w_de = -1
zeff = 0
beta = 0
fgrowth = 0
b_1 = 2
gamma = 0.55
Lx = 3500 Ly = 3500 Lz = 3500
nx = 700 ny = 700 nz = 700
xoffset = -685.467585 yoffset = -31.7331281 zoffset = 572.489161
bins = 400 dk = 0.001
kx_ny = 0.628318531 ky_ny = 0.628318531 kz_ny = 0.628318531
############################
A(data) = 7.99974688 (not used)
A(ran) = 7.99308614 (used)
Ngal = 475046
weighted Ngal = 0
Nran = 23820508
weighted Nran = 0
SN(data) = 3489.12834
SN(ran) = 69.6226791
SN(data+ran) = 3558.75102
############################
13 columns: k_central k_mean P_0(k) sigma^{lin}_{P_0(k)} P^img_1(k) sigma^{lin}_{P_1(k)} P_2(k) sigma^{lin}_{P_2(k)} P^img_3(k) sigma^{lin}_{P_3(k)} P_4(k) sigma^{lin}_{P_4(k)} N_modes
### header ###
0.00050000 0 0 0 0 0 0 0 0 0 0 0 0
0.00150000 0.00179520 9535.91795449 0 -17340.92151472 0 -4848.65961668 0 -5912.08998157 0 25512.85084712 0 3
0.00250000 0.00253879 24009.89347624 0 -25139.82422398 0 -7125.42855217 0 4035.00982739 0 8814.38990768 0 6
0.00350000 0.00331552 38705.52586854 0 -21381.32356430 0 -2968.61207945 0 -10305.76562680 0 3664.95058730 0 7
0.00450000 0.00420575 49134.32716873 0 -1290.25801112 0 9710.16313016 0 -27933.37177573 0 -8613.11718713 0 24
0.00550000 0.00557378 44178.68674965 0 14031.18217993 0 19415.10012300 0 -16277.86760888 0 13786.04090845 0 45
0.00650000 0.00659388 41942.18785953 0 -5142.84021479 0 4885.86262807 0 10307.95794712 0 10585.48576870 0 40
0.00750000 0.00754703 54727.29060437 0 -23065.09199947 0 29853.31289928 0 14360.69456654 0 -18362.78637224 0 57
0.00850000 0.00846663 75648.11617946 0 -19918.33728601 0 26801.00511653 0 15328.74792543 0 -25672.51377101 0 75
0.00950000 0.00948925 84356.61037257 0 -1118.62590410 0 51240.50479573 0 -4425.74109791 0 -14216.86506714 0 112
0.01050000 0.01054430 84672.72524614 0 13964.74823102 0 12411.63322871 0 -2104.39498271 0 -1928.26751182 0 105
0.01150000 0.01145670 81476.03434775 0 7426.82830606 0 45224.24638227 0 -16701.16258670 0 3195.86047403 0 144
0.01250000 0.01249090 68073.42804777 0 7600.02161087 0 19779.82250253 0 7559.16473229 0 -20819.84597274 0 169
0.01350000 0.01339930 68638.11661353 0 -2808.46197328 0 34290.87924010 0 5753.98825548 0 -14949.41007714 0 180
0.01450000 0.01448870 66481.11701561 0 -1023.77926247 0 12150.99070248 0 -3295.87678412 0 -35886.84413946 0 267
0.01550000 0.01550050 80760.31927148 0 768.80355209 0 24991.45507141 0 -21057.56878660 0 -32268.18694223 0 238
0.01650000 0.01653350 82960.83310593 0 -11965.08636877 0 20960.79666768 0 -12652.56701676 0 -34666.12032820 0 315
0.01750000 0.01747870 82443.09119741 0 1282.00912913 0 31387.71567265 0 -15201.85908301 0 -26004.35134582 0 297
0.01850000 0.01844180 85998.19325019 0 7301.26814261 0 35182.09066475 0 467.68946418 0 -12200.48399442 0 388
0.01950000 0.01947590 89280.36249618 0 4800.55036535 0 40610.51935359 0 3057.58928169 0 -21218.78183596 0 399
0.02050000 0.02045430 85676.32076771 0 8035.04218067 0 49375.15023353 0 10517.01451202 0 -2131.59968479 0 462
0.02150000 0.02154770 72973.48539627 0 12242.44810548 0 59124.88585259 0 18675.02593212 0 10997.71949402 0 571
0.02250000 0.02255340 66373.05112538 0 6162.14736527 0 52446.05952199 0 19040.52337439 0 16564.53009844 0 510
0.02350000 0.02348930 62768.67722716 0 2813.14556667 0 45256.57757074 0 16416.60383886 0 18854.61904068 0 555
0.02450000 0.02439640 59448.86207679 0 -306.92927290 0 46060.31762933 0 24779.30932789 0 23639.19204131 0 592
0.02550000 0.02547300 62681.31658434 0 -4892.58352924 0 29235.69862090 0 18071.58422951 0 17556.94257193 0 837
0.02650000 0.02652900 62111.75619567 0 -3673.93024272 0 25179.79531658 0 6136.23812519 0 15609.87425258 0 723
0.02750000 0.02749970 64086.06243408 0 4837.42120699 0 20092.83712515 0 -1547.72278012 0 9811.96208454 0 826
0.02850000 0.02848090 58806.11362106 0 5620.58888607 0 20344.17889853 0 -710.31953239 0 12671.05779921 0 831
0.02950000 0.02946900 54399.77123624 0 4330.34194727 0 14177.66903728 0 -3134.13226317 0 11790.36508314 0 996
0.03050000 0.03053250 54919.39543997 0 342.70173993 0 16423.69012675 0 4601.23744629 0 -3101.02601196 0 1041
0.03150000 0.03150510 51788.25270451 0 -803.82531549 0 16603.72612830 0 -1114.26340812 0 -5538.62046543 0 1036
0.03250000 0.03246190 51624.16085070 0 3674.29562944 0 16194.16083326 0 -1010.98519115 0 -7174.87755481 0 1059
0.03350000 0.03345080 49953.45775881 0 1808.98535655 0 13027.80810487 0 2105.65722774 0 -3148.09446476 0 1302
0.03450000 0.03451200 48214.88131579 0 -1265.94318582 0 12899.92275321 0 -263.77710139 0 -3727.14383580 0 1339
0.03550000 0.03553350 50649.35337366 0 1279.41820512 0 15919.56717775 0 2369.22284772 0 -2189.41936499 0 1365
0.03650000 0.03647120 48400.12131000 0 2152.14991965 0 15075.96674982 0 3676.97513205 0 -1844.87076128 0 1308
0.03750000 0.03744890 48472.09142133 0 -375.31195098 0 19934.05998725 0 1859.96234001 0 6841.50092684 0 1579
0.03850000 0.03847530 48157.74811972 0 -1243.77639153 0 18443.94651316 0 4185.52701097 0 9112.61190434 0 1662
0.03950000 0.03950240 50588.23414066 0 -2152.69246357 0 21265.83921644 0 6948.08312555 0 10287.96132849 0 1683
0.04050000 0.04050350 49171.08728713 0 2004.64440842 0 18471.84877170 0 6895.73317380 0 7398.56066079 0 1822
0.04150000 0.04152450 47770.99181381 0 1842.67844097 0 16407.19236277 0 2065.87436466 0 8251.08538253 0 1887
0.04250000 0.04250150 46580.16327956 0 2444.30428231 0 16601.17949359 0 2522.95100550 0 6776.40672923 0 1920
0.04350000 0.04349210 43396.98061745 0 1625.48371733 0 14020.33130161 0 -3040.60433542 0 5531.91063659 0 2005
0.04450000 0.04448520 43554.31835312 0 1827.37648807 0 13255.67654964 0 -2062.41979932 0 3397.99683592 0 2151
0.04550000 0.04548030 42141.26825977 0 432.16280276 0 11996.86394100 0 -1110.22200957 0 2810.24461757 0 2274
0.04650000 0.04648670 41813.85961488 0 -188.21180620 0 12501.31905974 0 202.87377872 0 1003.56562629 0 2311
0.04750000 0.04749250 42388.62399622 0 1045.06802140 0 13231.76032803 0 2023.36770968 0 -281.24701549 0 2568
0.04850000 0.04851840 40612.51237206 0 2292.76844485 0 13319.23169409 0 -908.38127875 0 -350.31396324 0 2493
0.04950000 0.04949480 39848.96485256 0 3639.29601069 0 13341.70851348 0 -839.51363284 0 5150.86765028 0 2644
0.05050000 0.05050630 36948.56936632 0 1294.64265175 0 16753.42395985 0 1511.67129052 0 7526.62316965 0 2829
0.05150000 0.05149060 36999.50206048 0 -886.06390084 0 17000.00463356 0 4729.05636399 0 8699.02735539 0 2784
0.05250000 0.05249300 36754.80368199 0 -1051.93618449 0 15911.48438064 0 4100.66871356 0 5368.56062854 0 3055
0.05350000 0.05348950 36817.47304047 0 481.24309699 0 14667.06579427 0 4172.79383743 0 7771.37690976 0 3009
0.05450000 0.05448610 37010.46366206 0 1212.46385694 0 14971.99761977 0 1074.35099885 0 7166.48473260 0 3336
0.05550000 0.05550870 35615.79362790 0 1459.08881995 0 14012.02705800 0 -1869.62847958 0 8323.46516987 0 3349
0.05650000 0.05647670 34728.78968668 0 2051.80143982 0 15023.59465343 0 176.31348595 0 8682.91712278 0 3324
0.05750000 0.05747970 33386.27030242 0 686.58821861 0 12510.06619635 0 -444.92808605 0 8130.49669293 0 3639
0.05850000 0.05849280 33352.94260471 0 -493.80464949 0 12402.99681535 0 2573.07541996 0 5593.36203934 0 3846
0.05950000 0.05951020 34467.92571395 0 -885.86349177 0 11101.22358642 0 1565.38313821 0 2017.13399081 0 3787
0.06050000 0.06049470 32683.62056942 0 663.74047635 0 11852.25937887 0 -660.16854436 0 711.89512421 0 3930
0.06150000 0.06148310 33457.02245801 0 1170.10114218 0 11257.34336637 0 -863.47746545 0 1588.70145428 0 4083
0.06250000 0.06249100 32149.15945043 0 799.19154755 0 11248.26406001 0 395.33182149 0 1932.27569340 0 4303
0.06350000 0.06350600 32208.95000445 0 -341.28669682 0 10296.69739278 0 521.77887815 0 189.42754746 0 4470
0.06450000 0.06451750 32086.49009196 0 -341.46385401 0 8415.16616402 0 3217.09719303 0 1591.41417386 0 4479
0.06550000 0.06550280 32580.98011836 0 524.04206134 0 9733.39286763 0 1735.01115443 0 703.52333942 0 4636
0.06650000 0.06648880 31916.19773624 0 -112.42949344 0 8018.13474067 0 1406.66136194 0 2649.17550843 0 4653
0.06750000 0.06749660 32113.06367152 0 205.77472782 0 8787.94919601 0 -121.56969758 0 2284.61921378 0 5220
0.06850000 0.06852730 31765.50339546 0 1163.23630080 0 9327.39286118 0 -393.92452900 0 2274.20015613 0 5029
0.06950000 0.06949320 30742.42058222 0 1772.66813114 0 8916.04492184 0 -551.99303811 0 2240.17490196 0 5040
0.07050000 0.07048030 29428.24634949 0 1056.46476534 0 10196.39320224 0 -366.83830080 0 3135.15091705 0 5475
0.07150000 0.07148790 28545.44989170 0 -170.44958272 0 8952.55037677 0 1887.78709228 0 2083.53472275 0 5509
0.07250000 0.07249820 28629.93173007 0 163.07984332 0 9124.38178563 0 1535.72038002 0 1084.24965724 0 5916
0.07350000 0.07351270 29031.19278150 0 -346.77967716 0 6782.79546065 0 1482.18568952 0 -1601.99931639 0 5721
0.07450000 0.07449140 28326.43930679 0 -68.16001363 0 7404.70580107 0 261.37329967 0 -571.96308316 0 6028
0.07550000 0.07549160 28624.06339792 0 1323.68535974 0 7394.17602017 0 -1721.49184583 0 -1011.26864266 0 6183
0.07650000 0.07648840 27257.95996179 0 970.85797877 0 7143.91933461 0 -1379.51202148 0 1289.92584137 0 6330
0.07750000 0.07749960 26760.36968444 0 1039.85295641 0 9261.37966061 0 355.14814026 0 -389.59525000 0 6583
0.07850000 0.07848650 25964.82314622 0 699.71003075 0 9220.30133553 0 -641.73201630 0 214.16201387 0 6549
0.07950000 0.07947320 25980.10295447 0 654.16402261 0 10050.34923789 0 255.14954589 0 -996.04087434 0 6828
0.08050000 0.08048110 23884.11186630 0 1291.56454545 0 8735.66567822 0 993.34476324 0 182.60588814 0 7147
0.08150000 0.08149960 24000.59272339 0 244.09604402 0 7829.88307410 0 1015.87472979 0 -1529.63060137 0 7386
0.08250000 0.08250610 22691.95465308 0 317.50334310 0 6826.76366251 0 41.20023137 0 -398.42653627 0 7227
0.08350000 0.08350160 22788.17315575 0 488.75124045 0 6525.77358464 0 1555.83879422 0 -2295.13792236 0 7798
0.08450000 0.08449610 22125.71596185 0 592.98499906 0 6474.04368309 0 317.19331801 0 -1421.64221741 0 7371
0.08550000 0.08548940 21678.72620892 0 678.92284814 0 5936.64839801 0 136.92701210 0 -110.31434723 0 8256
0.08650000 0.08650700 21303.81729056 0 219.27632071 0 6463.71320403 0 789.35600141 0 572.84886914 0 8037
0.08750000 0.08749060 21447.97895970 0 -230.81368317 0 6678.62702876 0 -128.29059874 0 660.18626008 0 8155
0.08850000 0.08849210 22169.45164489 0 -164.30333522 0 8102.66086834 0 309.47147868 0 297.39821570 0 8718
0.08950000 0.08949900 21616.49974344 0 321.90127052 0 7824.22511612 0 -1279.00852910 0 373.38647370 0 8571
0.09050000 0.09049190 21480.08870168 0 1277.74628407 0 8279.03193037 0 -541.88179109 0 1136.77344448 0 8932
0.09150000 0.09150830 20442.05824993 0 560.97822970 0 8123.38826040 0 358.00369283 0 2074.04574038 0 9285
0.09250000 0.09250820 20303.21129670 0 109.15828580 0 8514.10845860 0 1367.43211510 0 803.18090618 0 9204
0.09350000 0.09350330 20307.08661039 0 -2.76121636 0 7747.99215975 0 1533.40626413 0 813.75940531 0 9349
0.09450000 0.09448040 20051.75880007 0 407.25782255 0 7347.30686921 0 1196.28719038 0 1243.20063064 0 9564
0.09550000 0.09549270 19668.54563810 0 525.20686991 0 7139.12501797 0 625.92184370 0 2118.41254593 0 10155
0.09650000 0.09649430 18943.64053222 0 290.78471608 0 6434.20545839 0 555.78530936 0 3036.30827339 0 9913
0.09750000 0.09749140 18928.80361697 0 91.30803734 0 7440.14831281 0 205.57099705 0 1185.64668623 0 10476
0.09850000 0.09850240 18872.33476039 0 380.99094638 0 6695.91092780 0 -454.91753750 0 752.00794257 0 10575
0.09950000 0.09950330 18406.74350177 0 418.26592788 0 6687.11950190 0 -561.07123723 0 407.12384742 0 10882
0.10050000 0.10051200 17985.22009592 0 508.98259236 0 6334.79812617 0 -310.01180813 0 -161.73787756 0 10875
0.10150000 0.10150300 17703.54015253 0 75.12140569 0 5442.74520483 0 299.15650088 0 -270.67958868 0 11118
0.10250000 0.10250800 17678.07380545 0 47.60723213 0 5407.75665840 0 1122.81124288 0 -1839.26816492 0 11575
0.10350000 0.10349800 17534.90864555 0 104.47247793 0 5030.07965884 0 -27.27523279 0 -2007.60071914 0 11364
0.10450000 0.10450100 16898.91430796 0 727.13396486 0 5016.89251998 0 311.77120055 0 -1770.18793038 0 12093
0.10550000 0.10551000 16510.38643008 0 885.72730217 0 5236.64495065 0 34.26220192 0 -359.86937956 0 12067
0.10650000 0.10649700 15764.77607679 0 442.86199024 0 5125.78883457 0 149.47417059 0 -1050.20447289 0 12054
0.10750000 0.10749900 15527.05326293 0 276.36633471 0 5628.58310458 0 33.87400621 0 308.28563269 0 12807
0.10850000 0.10850100 15271.72545261 0 413.89235958 0 5707.79451634 0 175.93481244 0 485.84586241 0 12736
0.10950000 0.10950300 15149.92987961 0 126.26104160 0 5478.79669444 0 229.16722847 0 1008.31676086 0 12933
0.11050000 0.11050200 15295.19878123 0 -42.93194298 0 5641.09483163 0 614.46641644 0 715.32090151 0 13428
0.11150000 0.11150900 15185.69348877 0 -175.51960026 0 5772.23544678 0 344.82319736 0 414.87004586 0 13453
0.11250000 0.11250000 15310.03569649 0 -40.09499191 0 5695.78104391 0 95.35087530 0 207.12001529 0 13668
0.11350000 0.11349100 15212.70996133 0 79.31560233 0 5112.63491269 0 134.33387363 0 369.61634710 0 13791
0.11450000 0.11448600 14977.53378218 0 267.70556223 0 4984.67205476 0 536.80180846 0 798.34119300 0 14205
0.11550000 0.11549300 14985.28440956 0 179.68279439 0 4368.12071955 0 403.14223941 0 527.97384388 0 14776
0.11650000 0.11649800 14630.08422937 0 271.14351909 0 4570.37887702 0 531.76168621 0 553.11134292 0 14553
0.11750000 0.11747300 14429.89659665 0 553.20213598 0 4769.79144700 0 -63.01525790 0 459.68417333 0 14568
0.11850000 0.11849100 13871.07636306 0 445.45512871 0 4620.23755568 0 -26.81030587 0 588.39109149 0 16015
0.11950000 0.11950300 13676.75706249 0 149.82627052 0 4786.73210397 0 377.63713919 0 948.37340876 0 15270
0.12050000 0.12050700 13499.04624915 0 18.29945267 0 4948.38804633 0 -150.58361753 0 620.97583620 0 15999
0.12150000 0.12150000 13714.40296687 0 133.53777348 0 5097.60976791 0 -19.90460760 0 832.91784895 0 15670
0.12250000 0.12250700 13598.69717252 0 55.59203917 0 4958.25348774 0 74.00121859 0 1040.34678210 0 16887
0.12350000 0.12352200 13693.14410322 0 214.42110628 0 4916.56618480 0 -35.24619943 0 1417.47902328 0 16407
0.12450000 0.12449800 13522.51957776 0 22.08640921 0 4691.73155703 0 484.37656491 0 1356.72517700 0 16306
0.12550000 0.12549900 13696.57652391 0 -219.35050528 0 4324.28538560 0 597.39067710 0 1414.99882252 0 17523
0.12650000 0.12650100 13544.88567390 0 133.17681569 0 4320.66473538 0 996.71850062 0 1737.26990870 0 17154
0.12750000 0.12750600 13638.11464887 0 109.01168822 0 3847.45571728 0 333.79626908 0 848.90185706 0 18007
0.12850000 0.12850300 13165.99071860 0 97.85410650 0 3308.72068091 0 594.18302460 0 1124.13992186 0 17496
0.12950000 0.12949900 13052.38866596 0 444.02790604 0 3445.22030127 0 245.26971045 0 1149.10801433 0 18405
0.13050000 0.13049000 12715.12565199 0 393.60010989 0 2941.86134269 0 149.45202594 0 1079.95913137 0 18100
0.13150000 0.13148800 12269.46457804 0 178.14927740 0 2970.10684330 0 151.27231614 0 459.26563946 0 19059
0.13250000 0.13249300 12239.12640804 0 66.35157082 0 2741.07580443 0 155.63481212 0 789.14673447 0 18957
0.13350000 0.13349100 12158.63060660 0 -26.97373338 0 2899.13324122 0 72.11394082 0 210.22580240 0 19468
0.13450000 0.13450700 12328.36934607 0 97.90758583 0 2941.20807553 0 -466.40396727 0 46.21876260 0 19953
0.13550000 0.13551000 12326.81922060 0 172.05506982 0 3230.61650164 0 -580.92613010 0 -248.65230568 0 19956
0.13650000 0.13649900 11928.32625038 0 219.06373207 0 3246.37241985 0 -240.56397240 0 175.43877229 0 19723
0.13750000 0.13749600 12131.06051781 0 93.61063801 0 3042.15446090 0 -103.63828898 0 -270.64526447 0 20946
0.13850000 0.13851100 11894.44493643 0 89.61939708 0 3036.18647782 0 210.35977753 0 -956.88913378 0 20955
0.13950000 0.13949800 12021.00160911 0 165.56558025 0 2979.61797032 0 -21.17471398 0 -1016.97088994 0 20506
0.14050000 0.14048300 11710.09072820 0 112.82034651 0 2859.15107629 0 90.39744935 0 -927.84642578 0 21447
0.14150000 0.14148400 11578.21933961 0 284.37162555 0 2893.10989651 0 222.87371904 0 -976.35095911 0 21771
0.14250000 0.14249400 11325.54888725 0 148.53302298 0 2817.02088036 0 49.03866228 0 -1069.71390922 0 22470
0.14350000 0.14350900 11148.17024365 0 387.64098467 0 2956.63182400 0 -203.31777895 0 -1013.69680349 0 22519
0.14450000 0.14449900 10842.61836796 0 213.12121534 0 2949.80019959 0 223.29778908 0 -750.37366742 0 22218
0.14550000 0.14550500 10741.41731912 0 136.05008398 0 2914.68985759 0 201.37126424 0 -448.42804792 0 23559
0.14650000 0.14650700 10632.78674032 0 130.00127293 0 2535.56238347 0 431.78523649 0 -418.05112478 0 23044
0.14750000 0.14750500 10584.94322478 0 105.78233396 0 2594.60001940 0 163.06766377 0 -451.67223909 0 23649
0.14850000 0.14849900 10345.26060943 0 281.89806819 0 2334.76577288 0 586.57080129 0 -378.79308991 0 23640
0.14950000 0.14949500 10273.58945088 0 218.10929767 0 2420.15554189 0 50.12640747 0 11.22191193 0 24457
0.15050000 0.15050000 9918.22318582 0 230.89672561 0 2409.98007538 0 305.00822455 0 58.35591289 0 24591
0.15150000 0.15149900 10012.90263535 0 -6.40826300 0 2563.95182431 0 39.32258653 0 563.80167253 0 25020
0.15250000 0.15250500 9884.84012650 0 -53.78680733 0 2749.40219269 0 -66.37858729 0 595.55931458 0 25297
0.15350000 0.15350100 10088.26087806 0 123.94581848 0 2970.40579607 0 -20.88672281 0 890.91025742 0 25452
0.15450000 0.15450400 9991.51090380 0 52.57970248 0 2990.60171654 0 -104.84960132 0 691.15887429 0 26061
0.15550000 0.15549900 9759.65642210 0 245.76242891 0 3067.11148104 0 -81.16146960 0 991.77470759 0 26128
0.15650000 0.15649500 9787.58082529 0 169.13861946 0 3189.39423634 0 -71.30942570 0 374.59114264 0 26331
0.15750000 0.15749700 9444.50484078 0 249.29892945 0 2878.36155986 0 126.61203430 0 565.87109004 0 27345
0.15850000 0.15849900 9305.64681523 0 256.13055387 0 2702.98700705 0 271.88425762 0 -120.17015572 0 26980
0.15950000 0.15949700 8965.56035843 0 191.96975324 0 2253.89351241 0 355.12710284 0 263.70623851 0 27777
0.16050000 0.16050000 8961.74040637 0 47.62051892 0 2057.60333802 0 416.51539333 0 156.08656297 0 28224
0.16150000 0.16150500 8925.38996399 0 -73.80534916 0 1967.02064868 0 341.26455217 0 -38.98787015 0 28075
0.16250000 0.16249700 8853.30912942 0 205.38498199 0 1868.67625964 0 233.72902629 0 349.11593769 0 28590
0.16350000 0.16349900 8655.76778233 0 237.75603083 0 1663.22927263 0 -101.15808822 0 196.83050384 0 29163
0.16450000 0.16449100 8620.32527058 0 87.13930705 0 1981.39252630 0 -109.24907886 0 801.93748411 0 28996
0.16550000 0.16550500 8735.92034169 0 -120.33070443 0 2039.34507440 0 213.69254730 0 749.46020063 0 30777
0.16650000 0.16650700 8763.06968214 0 -102.26000599 0 2085.81562166 0 -131.90128387 0 834.41482726 0 29211
0.16750000 0.16749900 8864.94614280 0 120.65180185 0 2115.98770679 0 50.36103004 0 656.31537532 0 30922
0.16850000 0.16850800 8609.48546459 0 278.67491443 0 2308.41363982 0 -259.16879980 0 625.78233240 0 30867
0.16950000 0.16949900 8450.17685509 0 337.95171258 0 2113.83967578 0 -60.30397772 0 547.64050723 0 30852
0.17050000 0.17049200 8168.31975451 0 140.15459479 0 2197.61288536 0 81.57513165 0 471.20935624 0 31257
0.17150000 0.17149500 8167.82149989 0 -54.44693934 0 2127.02681464 0 353.00121647 0 318.00381219 0 32608
0.17250000 0.17250900 8108.97209348 0 -27.17303523 0 2005.30874791 0 437.03019675 0 44.87856840 0 32361
0.17350000 0.17350400 8164.30050060 0 -8.84713077 0 1594.08260414 0 298.40801172 0 188.54729764 0 32508
0.17450000 0.17449800 8240.56667395 0 -28.75095224 0 1523.19758065 0 51.72015791 0 506.12814702 0 32791
0.17550000 0.17549800 8238.99440383 0 37.15230014 0 1484.97591538 0 105.93125673 0 241.32464112 0 33633
0.17650000 0.17650100 8130.65170548 0 153.52110531 0 1621.88521176 0 -224.32197913 0 464.75308364 0 33984
0.17750000 0.17750300 8110.45578501 0 236.38084809 0 1596.98355324 0 -3.74798195 0 634.28255617 0 34069
0.17850000 0.17849800 7846.40298273 0 82.02699323 0 1719.06700669 0 45.19822642 0 707.46065812 0 34536
