### header ###
fiducial parameters:
Omega_m = 0.31
Omega_nu = 0
Omega_de = 0.69
Omega_k = 0
H_0 = 100
w_de = -1
zeff = 0
beta = 0
fgrowth = 0
b_1 = 2
gamma = 0.55
Lx = 3500 Ly = 3500 Lz = 3500
nx = 700 ny = 700 nz = 700
xoffset = -685.467585 yoffset = -31.7331281 zoffset = 572.489161
bins = 400 dk = 0.001
kx_ny = 0.628318531 ky_ny = 0.628318531 kz_ny = 0.628318531
############################
A(data) = 8.02811204 (not used)
A(ran) = 8.02032145 (used)
Ngal = 476877
weighted Ngal = 0
Nran = 23820508
weighted Nran = 0
SN(data) = 3493.4868
SN(ran) = 69.8599085
SN(data+ran) = 3563.34671
############################
13 columns: k_central k_mean P_0(k) sigma^{lin}_{P_0(k)} P^img_1(k) sigma^{lin}_{P_1(k)} P_2(k) sigma^{lin}_{P_2(k)} P^img_3(k) sigma^{lin}_{P_3(k)} P_4(k) sigma^{lin}_{P_4(k)} N_modes
### header ###
0.00050000 0 0 0 0 0 0 0 0 0 0 0 0
0.00150000 0.00179520 75506.39042178 0 -28810.41062461 0 52497.10293940 0 52227.15966032 0 -239993.74767664 0 3
0.00250000 0.00253879 121483.33344522 0 -4179.70296812 0 51956.88421150 0 28863.88995349 0 193777.86388361 0 6
0.00350000 0.00331552 97627.56673046 0 30703.99961510 0 61077.93322735 0 -87963.53090549 0 27175.69258839 0 7
0.00450000 0.00420575 73736.59002277 0 32358.09421976 0 30915.48101914 0 -2.29067578 0 52806.24224834 0 24
0.00550000 0.00557378 71382.72448957 0 -14977.42305893 0 24354.46422460 0 56311.40811618 0 -6742.82436806 0 45
0.00650000 0.00659388 83342.49614243 0 -20624.86233269 0 34756.24905223 0 35444.17259321 0 10046.98325114 0 40
0.00750000 0.00754703 109851.52405349 0 -17523.06125799 0 10355.93433056 0 6168.55824134 0 -50861.38839394 0 57
0.00850000 0.00846663 101485.60759027 0 3063.31367363 0 10363.96176605 0 20511.48172654 0 3074.14240730 0 75
0.00950000 0.00948925 109232.02747989 0 8129.13479698 0 533.11693876 0 -33760.40415804 0 -25393.38046233 0 112
0.01050000 0.01054430 88137.58785164 0 9203.62641435 0 15562.15253261 0 -30895.88300421 0 -24331.54451222 0 105
0.01150000 0.01145670 87829.11288220 0 12311.31796585 0 24886.04653914 0 -27362.03981509 0 -26262.89013034 0 144
0.01250000 0.01249090 76801.74170231 0 -406.14394667 0 20170.78629187 0 -10362.12376013 0 -16332.34344699 0 169
0.01350000 0.01339930 85131.56238663 0 -4049.09382455 0 23063.98476698 0 -1924.87938042 0 -44490.48341654 0 180
0.01450000 0.01448870 80879.45748652 0 5886.19181382 0 25612.61249374 0 -9438.12718169 0 -43509.58616086 0 267
0.01550000 0.01550050 82438.88371398 0 8794.69224183 0 42010.50410366 0 -22446.37048860 0 -49138.09175917 0 238
0.01650000 0.01653350 75114.54084645 0 4544.12639487 0 35030.62126123 0 -14907.66741258 0 -37212.53359000 0 315
0.01750000 0.01747870 74195.20571676 0 5284.58811712 0 48640.50148182 0 -14800.26586184 0 -43490.20959242 0 297
0.01850000 0.01844180 75826.26988579 0 2640.25121463 0 56539.83017718 0 -12656.22088395 0 -32349.67925289 0 388
0.01950000 0.01947590 72346.34891854 0 5590.20642676 0 66666.35700982 0 8605.62122322 0 -18107.12639217 0 399
0.02050000 0.02045430 71114.99567546 0 1359.29395636 0 56633.50204515 0 17609.64683807 0 -2711.16945509 0 462
0.02150000 0.02154770 75934.00360628 0 -4188.37259845 0 60813.41538744 0 30982.80075403 0 -8332.86557364 0 571
0.02250000 0.02255340 77438.73254913 0 -5094.04447931 0 47546.88795948 0 27729.30882932 0 7821.26880540 0 510
0.02350000 0.02348930 80494.69419908 0 4960.93299034 0 53006.31915781 0 20989.14181922 0 2641.29201316 0 555
0.02450000 0.02439640 70935.07039715 0 6367.59435228 0 37004.70605315 0 5189.88652294 0 26577.78704818 0 592
0.02550000 0.02547300 69421.48359445 0 5362.67015174 0 37036.48362538 0 12313.31098432 0 22796.58812261 0 837
0.02650000 0.02652900 64522.97637143 0 -246.65153659 0 31437.87330408 0 7752.31036642 0 29306.45077649 0 723
0.02750000 0.02749970 67985.51378871 0 -858.14392658 0 26290.23877264 0 15493.17194899 0 12926.82850252 0 826
0.02850000 0.02848090 65024.55268571 0 -242.06205795 0 20906.87444582 0 3771.23383323 0 17029.67846407 0 831
0.02950000 0.02946900 66955.67685733 0 1332.87538934 0 22839.88091266 0 5157.59962377 0 16269.67408852 0 996
0.03050000 0.03053250 63410.31845040 0 3043.54957382 0 18914.52031795 0 194.61160994 0 11640.33508184 0 1041
0.03150000 0.03150510 63133.84249968 0 2174.98105343 0 21932.61461702 0 2679.53582309 0 10703.17350919 0 1036
0.03250000 0.03246190 60180.29985431 0 1010.65302140 0 21632.22244469 0 1478.21072491 0 9901.72542184 0 1059
0.03350000 0.03345080 60774.55152732 0 746.87038385 0 24870.32383790 0 4880.11609149 0 16278.75339487 0 1302
0.03450000 0.03451200 60016.54017024 0 -1818.35254334 0 22059.39273619 0 6948.32671669 0 8382.44744418 0 1339
0.03550000 0.03553350 60191.37217913 0 1809.93757648 0 21928.18568709 0 3266.91158239 0 12254.29549304 0 1365
0.03650000 0.03647120 59516.51398143 0 3621.79066515 0 20552.44932837 0 -2740.46682656 0 7280.05356826 0 1308
0.03750000 0.03744890 52992.25730529 0 5680.37944009 0 19643.07929102 0 -2323.99240084 0 11729.57801988 0 1579
0.03850000 0.03847530 50863.27068916 0 4615.66468552 0 19871.83352177 0 589.27466301 0 4324.55112139 0 1662
0.03950000 0.03950240 46989.06423512 0 2604.10007410 0 21266.94644892 0 1462.42158972 0 4984.36202966 0 1683
0.04050000 0.04050350 43832.45515257 0 -49.65295486 0 20248.29256560 0 1969.06902877 0 464.79737293 0 1822
0.04150000 0.04152450 45426.20558696 0 1443.58756521 0 17655.81843257 0 2424.78377366 0 -4447.53143315 0 1887
0.04250000 0.04250150 43139.88123516 0 -827.06391082 0 17160.33189693 0 -2607.54356712 0 -3959.99482674 0 1920
0.04350000 0.04349210 43482.79113480 0 2213.51274379 0 17426.17841583 0 -2393.51552837 0 -5348.17647855 0 2005
0.04450000 0.04448520 42474.32379031 0 2322.91838533 0 21263.51402822 0 -2997.21189446 0 -3142.34792818 0 2151
0.04550000 0.04548030 40501.23550763 0 1182.57965226 0 20247.29605637 0 2297.81742496 0 -2410.73299346 0 2274
0.04650000 0.04648670 40281.44985998 0 -581.13871873 0 20550.56703315 0 5966.88691709 0 -442.12235894 0 2311
0.04750000 0.04749250 41411.93422396 0 -310.73040201 0 18670.37555570 0 4372.78216830 0 -3005.78187387 0 2568
0.04850000 0.04851840 42166.18099061 0 540.15893735 0 18903.00510014 0 3003.02486499 0 -4059.30250804 0 2493
0.04950000 0.04949480 38908.59230572 0 2840.08453296 0 16868.57613796 0 2076.73631531 0 1422.14047203 0 2644
0.05050000 0.05050630 37522.55868492 0 1669.70658265 0 16610.25879994 0 36.36217904 0 1155.47460110 0 2829
0.05150000 0.05149060 36235.29020150 0 -10.76894312 0 14126.40417337 0 2758.07182303 0 1780.19731202 0 2784
0.05250000 0.05249300 36839.39624361 0 105.00483531 0 14226.71943623 0 3823.74986985 0 21.94069741 0 3055
0.05350000 0.05348950 35677.79864688 0 53.52195732 0 9188.84486072 0 3526.13685105 0 442.83209496 0 3009
0.05450000 0.05448610 36674.86149680 0 -1.69481862 0 9474.37797314 0 1728.54491674 0 -1813.01568278 0 3336
0.05550000 0.05550870 35464.10277788 0 1282.08663540 0 8893.25807736 0 -323.15465769 0 1522.77683231 0 3349
0.05650000 0.05647670 34820.02564318 0 282.15162442 0 8900.65439034 0 1218.44291234 0 918.89112947 0 3324
0.05750000 0.05747970 35167.58591924 0 -674.59799806 0 9127.22737311 0 414.65524276 0 -1990.91472564 0 3639
0.05850000 0.05849280 35439.52221679 0 -350.15784346 0 8982.02490543 0 -465.77284475 0 -1223.46974781 0 3846
0.05950000 0.05951020 35804.24459631 0 558.49581448 0 9259.79631816 0 -122.63374799 0 -3463.26819073 0 3787
0.06050000 0.06049470 34648.73677824 0 1516.94171713 0 8818.98492248 0 -1685.29641600 0 792.85485606 0 3930
0.06150000 0.06148310 34593.81804714 0 1313.77562903 0 10331.47556503 0 -1174.62972304 0 -5173.02337225 0 4083
0.06250000 0.06249100 32976.59428413 0 920.19102040 0 11563.93604059 0 -1283.32673578 0 -3944.58215059 0 4303
0.06350000 0.06350600 31654.55870078 0 1102.25325739 0 10294.93689313 0 -1103.30069932 0 -3740.23132374 0 4470
0.06450000 0.06451750 31924.05908687 0 677.61631381 0 12993.70534443 0 -1097.80882621 0 -3437.46967390 0 4479
0.06550000 0.06550280 31688.44001472 0 -351.53856236 0 12430.56690415 0 262.69865695 0 -2461.07885441 0 4636
0.06650000 0.06648880 32057.36987768 0 276.02973603 0 14324.93095737 0 106.79356939 0 -4165.03213773 0 4653
0.06750000 0.06749660 31439.64487605 0 652.27619123 0 11430.40380328 0 1463.96064287 0 -3477.50720044 0 5220
0.06850000 0.06852730 30979.92194958 0 116.70230359 0 13267.63466044 0 1238.64990514 0 -3335.68179184 0 5029
0.06950000 0.06949320 30869.97376413 0 249.44840584 0 12908.00555033 0 2203.06046917 0 -2382.99681979 0 5040
0.07050000 0.07048030 30046.30352087 0 1425.81648387 0 12456.58686747 0 1715.99997272 0 -2235.72382738 0 5475
0.07150000 0.07148790 28976.60622014 0 1561.12029316 0 11056.07064581 0 606.75897113 0 622.87031098 0 5509
0.07250000 0.07249820 27469.10919608 0 514.20540797 0 10591.54233037 0 1046.16196709 0 1407.32570142 0 5916
0.07350000 0.07351270 27163.18086134 0 371.78209383 0 11039.24071209 0 2566.36559112 0 2942.33745266 0 5721
0.07450000 0.07449140 27048.36085297 0 605.39928964 0 9855.44310410 0 2370.25257393 0 1759.24847346 0 6028
0.07550000 0.07549160 25850.55675409 0 -25.85432134 0 7323.02526088 0 2035.46976071 0 1883.11457121 0 6183
0.07650000 0.07648840 25689.34370473 0 -82.40267721 0 6177.06178680 0 1575.20429032 0 1903.08904518 0 6330
0.07750000 0.07749960 25711.26690787 0 -224.07395905 0 4824.30050208 0 1098.20300098 0 -1515.63518280 0 6583
0.07850000 0.07848650 25689.23298149 0 254.46859791 0 4285.72047825 0 238.52887910 0 -4.61535466 0 6549
0.07950000 0.07947320 25620.58456761 0 901.23741478 0 4645.44923929 0 -1609.67243749 0 -1606.51682491 0 6828
0.08050000 0.08048110 24906.86250980 0 967.91716930 0 5089.28337964 0 -2165.12668434 0 -229.59794190 0 7147
0.08150000 0.08149960 23617.04739168 0 1352.00836663 0 6575.33331053 0 -2013.29189410 0 -641.34448494 0 7386
0.08250000 0.08250610 23021.02414669 0 1333.00825724 0 7314.11203940 0 -157.86367110 0 345.14318755 0 7227
0.08350000 0.08350160 22509.37201682 0 254.41877245 0 8269.14434431 0 345.91382136 0 -698.80542181 0 7798
0.08450000 0.08449610 22464.19693156 0 222.24038206 0 8771.17462391 0 699.62034492 0 -2108.81284031 0 7371
0.08550000 0.08548940 22265.44870106 0 345.49085855 0 8529.86437681 0 -621.91144765 0 -159.82790152 0 8256
0.08650000 0.08650700 21622.25735235 0 589.86481792 0 8748.88603405 0 -65.05931979 0 -327.09972702 0 8037
0.08750000 0.08749060 21555.49123369 0 207.15433950 0 8789.96435913 0 -974.68235976 0 -400.57124559 0 8155
0.08850000 0.08849210 21367.81532802 0 -218.22002092 0 9310.69579535 0 511.02322182 0 -1671.58887787 0 8718
0.08950000 0.08949900 21315.44323162 0 178.09059408 0 9205.05474426 0 1162.68268456 0 -1777.45137546 0 8571
0.09050000 0.09049190 20823.94273292 0 598.03619364 0 8881.83143815 0 219.30953768 0 -1258.55794516 0 8932
0.09150000 0.09150830 20830.58612782 0 534.70692461 0 8430.68956341 0 961.08886658 0 -1962.18204274 0 9285
0.09250000 0.09250820 19820.56865786 0 743.81331497 0 7775.39616367 0 -436.54190723 0 -221.83181328 0 9204
0.09350000 0.09350330 19563.80144531 0 495.73898464 0 7530.09987964 0 1034.18614057 0 -973.38579053 0 9349
0.09450000 0.09448040 19276.58533952 0 -196.54040893 0 7166.44044330 0 859.91660579 0 -366.40094397 0 9564
0.09550000 0.09549270 19104.96430483 0 -176.53714691 0 6489.43421458 0 1351.62083526 0 -1861.65640571 0 10155
0.09650000 0.09649430 19189.55686644 0 133.38940432 0 6289.44588371 0 363.33723169 0 -1541.94302657 0 9913
0.09750000 0.09749140 19043.51290209 0 409.46896582 0 6457.09195379 0 -151.82371791 0 -2723.29365077 0 10476
0.09850000 0.09850240 18564.96702342 0 655.69643237 0 6804.49721730 0 -1015.87694425 0 -1500.43288082 0 10575
0.09950000 0.09950330 18090.40718170 0 905.75603053 0 7347.35115851 0 -773.74955958 0 -205.56546089 0 10882
0.10050000 0.10051200 17438.13652663 0 680.78742764 0 7882.55412327 0 404.41887847 0 -508.02262179 0 10875
0.10150000 0.10150300 16917.40509041 0 524.26129337 0 8099.59383436 0 249.47165772 0 496.13315940 0 11118
0.10250000 0.10250800 17041.19368188 0 277.80130800 0 8213.59449069 0 1048.36757420 0 148.34700792 0 11575
0.10350000 0.10349800 16449.59936682 0 -24.36188268 0 7897.15851970 0 920.43571878 0 307.63679446 0 11364
0.10450000 0.10450100 16508.06124186 0 331.98040780 0 7518.29678138 0 529.09325592 0 287.40765702 0 12093
0.10550000 0.10551000 16165.37278873 0 235.81505229 0 7160.59425579 0 120.38717329 0 1009.92778413 0 12067
0.10650000 0.10649700 16165.26206548 0 133.18345908 0 7366.71665462 0 425.29021075 0 848.03932295 0 12054
0.10750000 0.10749900 16054.98171029 0 -12.27843316 0 6671.74004272 0 465.57132844 0 1816.01628281 0 12807
0.10850000 0.10850100 16048.67048514 0 43.58952835 0 6729.60401223 0 1076.20007710 0 707.78729171 0 12736
0.10950000 0.10950300 15987.21908240 0 11.56116796 0 5895.42613271 0 586.56637236 0 451.56151585 0 12933
0.11050000 0.11050200 15587.17598670 0 595.36997782 0 6056.15199978 0 -132.69627679 0 -44.66166156 0 13428
0.11150000 0.11150900 15163.32739264 0 619.56965095 0 5691.40747561 0 146.53446835 0 436.02593689 0 13453
0.11250000 0.11250000 15003.33229901 0 171.95763336 0 5688.48438185 0 278.46786196 0 1261.49211124 0 13668
0.11350000 0.11349100 14533.09066396 0 9.94607008 0 4902.68148947 0 1036.92875543 0 458.54593834 0 13791
0.11450000 0.11448600 14651.56453952 0 -55.30316222 0 4677.14930524 0 788.92196628 0 404.01252415 0 14205
0.11550000 0.11549300 14496.55199206 0 83.05262268 0 4166.09508091 0 815.08697706 0 442.88413489 0 14776
0.11650000 0.11649800 14544.60588177 0 -63.08169185 0 4067.48495608 0 523.94794658 0 838.69317357 0 14553
0.11750000 0.11747300 14622.22287875 0 -30.61132426 0 3454.96394711 0 358.21960316 0 258.59636060 0 14568
0.11850000 0.11849100 14417.82776260 0 284.19336112 0 3906.00617092 0 -133.61085082 0 331.34264190 0 16015
0.11950000 0.11950300 14054.98767829 0 434.26765171 0 3732.84608308 0 -341.42288641 0 536.21054632 0 15270
0.12050000 0.12050700 13753.48827348 0 455.23752769 0 3705.86282750 0 -195.39774500 0 303.16136077 0 15999
0.12150000 0.12150000 13589.50714292 0 44.15488125 0 3951.74594475 0 -5.85360596 0 334.82710252 0 15670
0.12250000 0.12250700 13550.42183631 0 12.91907788 0 4320.70902468 0 253.92273230 0 -421.14473234 0 16887
0.12350000 0.12352200 13651.40143865 0 216.05981035 0 4210.45081414 0 -378.11767809 0 108.38222655 0 16407
0.12450000 0.12449800 13484.87367338 0 218.73709849 0 4364.78794978 0 -158.06740188 0 497.54266635 0 16306
0.12550000 0.12549900 13349.01624786 0 108.06101841 0 4316.93336192 0 477.56376345 0 936.77957744 0 17523
0.12650000 0.12650100 13424.52950312 0 -53.82356745 0 4261.26171273 0 548.05239771 0 -85.67731728 0 17154
0.12750000 0.12750600 13148.93933838 0 198.75155219 0 4131.68229538 0 379.25591308 0 278.94950809 0 18007
0.12850000 0.12850300 13104.53931586 0 328.42840600 0 3685.23508636 0 441.12252801 0 409.93511069 0 17496
0.12950000 0.12949900 12890.51127712 0 -70.05725649 0 3427.68173876 0 252.29952948 0 1022.61445390 0 18405
0.13050000 0.13049000 12916.97413343 0 -46.59555381 0 3332.61475787 0 512.69071394 0 764.72450762 0 18100
0.13150000 0.13148800 12990.71581672 0 -36.07872753 0 3281.09523048 0 268.59577715 0 298.08691430 0 19059
0.13250000 0.13249300 12964.80657665 0 206.30952111 0 3170.57128414 0 -78.78634520 0 612.57415613 0 18957
0.13350000 0.13349100 12760.63290699 0 215.49069285 0 3373.43841947 0 -22.96931639 0 664.77463148 0 19468
0.13450000 0.13450700 12502.42629222 0 432.30785022 0 3851.58569444 0 -443.66805548 0 894.78003494 0 19953
0.13550000 0.13551000 12313.42170757 0 342.94200938 0 4167.22445805 0 -194.54074706 0 1301.31926361 0 19956
0.13650000 0.13649900 12099.17222233 0 153.08928464 0 4158.20051332 0 293.80413906 0 1048.12730475 0 19723
0.13750000 0.13749600 12095.18618539 0 -82.77526094 0 4069.64405942 0 223.02762436 0 1589.89726536 0 20946
0.13850000 0.13851100 12259.27803921 0 -63.78954558 0 4064.56186233 0 97.00873450 0 837.00132234 0 20955
0.13950000 0.13949800 12032.51682692 0 251.07603759 0 3836.21730759 0 -99.07040138 0 1090.96059331 0 20506
0.14050000 0.14048300 11962.53973407 0 288.42963260 0 3751.29257623 0 59.90172016 0 707.92015960 0 21447
0.14150000 0.14148400 11622.95153188 0 340.92463179 0 3613.89609756 0 21.24070504 0 864.69209948 0 21771
0.14250000 0.14249400 11159.35329172 0 329.57771332 0 3564.75712001 0 252.46118542 0 384.31485829 0 22470
0.14350000 0.14350900 11003.51031990 0 53.83574701 0 3109.15309838 0 707.71089267 0 401.61315136 0 22519
0.14450000 0.14449900 10831.92250218 0 48.92627819 0 2705.40077386 0 834.33289206 0 294.91912217 0 22218
0.14550000 0.14550500 10992.82552645 0 17.57698348 0 2735.35141250 0 486.37844124 0 140.65838557 0 23559
0.14650000 0.14650700 10785.79519699 0 194.95485201 0 2571.41457123 0 -154.96382923 0 281.62568899 0 23044
0.14750000 0.14750500 10649.51702312 0 349.45142914 0 2791.17807423 0 -522.80417543 0 438.16953898 0 23649
0.14850000 0.14849900 10440.67083239 0 263.07843769 0 3063.26938433 0 -697.07149575 0 798.26036503 0 23640
0.14950000 0.14949500 10346.10210612 0 165.28102150 0 3479.37842334 0 -236.51593045 0 599.83101749 0 24457
0.15050000 0.15050000 10245.94185581 0 26.16822175 0 3700.22701417 0 -195.95136125 0 616.51701099 0 24591
0.15150000 0.15149900 10253.33816879 0 108.91768418 0 3478.70301152 0 469.95264737 0 729.73485396 0 25020
0.15250000 0.15250500 10154.34051258 0 130.31351249 0 3382.89418487 0 477.46411253 0 299.59828664 0 25297
0.15350000 0.15350100 9904.40492445 0 164.70193891 0 2990.23632982 0 343.99720193 0 31.11024321 0 25452
0.15450000 0.15450400 9901.09429933 0 63.24678021 0 3206.61170143 0 -4.16310555 0 -290.01629674 0 26061
0.15550000 0.15549900 9724.45750150 0 195.91703704 0 2875.65991260 0 -192.56765878 0 -74.25267108 0 26128
0.15650000 0.15649500 9573.78530537 0 291.16117513 0 2835.41201188 0 -259.12340327 0 -527.45676632 0 26331
0.15750000 0.15749700 9421.26403099 0 31.12607664 0 2836.44173809 0 -36.82932043 0 -486.10716928 0 27345
0.15850000 0.15849900 9368.19437813 0 89.18669063 0 2790.66874729 0 158.22684336 0 -1048.72078136 0 26980
0.15950000 0.15949700 9269.21886658 0 180.51986215 0 2598.86286446 0 91.25998345 0 -667.34008914 0 27777
0.16050000 0.16050000 9233.35560649 0 105.93479987 0 2820.70796452 0 321.87801864 0 -969.66438216 0 28224
0.16150000 0.16150500 8916.35494693 0 173.25863153 0 2623.32162998 0 125.99309134 0 -626.36252222 0 28075
0.16250000 0.16249700 8924.12771896 0 258.38266474 0 2675.32833966 0 246.90398560 0 -225.86435398 0 28590
0.16350000 0.16349900 8806.32925521 0 -12.71324336 0 2608.16361731 0 270.19794255 0 258.20107861 0 29163
0.16450000 0.16449100 8832.26063994 0 28.94217129 0 2407.00162000 0 433.77271879 0 157.72194534 0 28996
0.16550000 0.16550500 8839.45765107 0 48.56974933 0 2564.59401914 0 196.38318191 0 346.11201597 0 30777
0.16650000 0.16650700 8669.50853743 0 136.46418892 0 2532.45106020 0 -42.26472468 0 510.30905687 0 29211
0.16750000 0.16749900 8667.63731453 0 72.97503552 0 2384.33657110 0 -48.31010331 0 444.52837512 0 30922
0.16850000 0.16850800 8649.24618301 0 24.58432569 0 2405.31862663 0 144.66656715 0 408.26208241 0 30867
0.16950000 0.16949900 8541.87784924 0 114.10141449 0 2178.73457154 0 174.59284667 0 318.72129883 0 30852
0.17050000 0.17049200 8478.36699408 0 144.47169423 0 2150.85445765 0 156.33901197 0 435.19661976 0 31257
0.17150000 0.17149500 8307.56531143 0 74.33936739 0 1992.97417806 0 312.23070203 0 567.76113589 0 32608
0.17250000 0.17250900 8248.61625410 0 134.69150972 0 1938.73085877 0 225.80567065 0 415.90973716 0 32361
0.17350000 0.17350400 8114.72970239 0 134.12792839 0 1803.31632624 0 68.59371659 0 834.66616904 0 32508
0.17450000 0.17449800 7967.43456533 0 213.63386398 0 1862.70827657 0 5.49846114 0 628.15070268 0 32791
0.17550000 0.17549800 7853.87680199 0 103.40366642 0 2178.19202762 0 -368.81692524 0 707.43851348 0 33633
0.17650000 0.17650100 7764.77780417 0 186.24979024 0 2227.07634170 0 -257.29536244 0 409.76791859 0 33984
0.17750000 0.17750300 7685.44459685 0 121.35932341 0 2452.42029641 0 -242.84597855 0 473.81024534 0 34069
