### header ###
fiducial parameters:
Omega_m = 0.31
Omega_nu = 0
Omega_de = 0.69
Omega_k = 0
H_0 = 100
w_de = -1
zeff = 0
beta = 0
fgrowth = 0
b_1 = 2
gamma = 0.55
Lx = 3500 Ly = 3500 Lz = 3500
nx = 700 ny = 700 nz = 700
xoffset = -685.467585 yoffset = -31.7331281 zoffset = 572.489161
bins = 400 dk = 0.001
kx_ny = 0.628318531 ky_ny = 0.628318531 kz_ny = 0.628318531
############################
A(data) = 8.01404358 (not used)
A(ran) = 8.01193304 (used)
Ngal = 476556
weighted Ngal = 0
Nran = 23820508
weighted Nran = 0
SN(data) = 3488.06989
SN(ran) = 69.7868425
SN(data+ran) = 3557.85673
############################
13 columns: k_central k_mean P_0(k) sigma^{lin}_{P_0(k)} P^img_1(k) sigma^{lin}_{P_1(k)} P_2(k) sigma^{lin}_{P_2(k)} P^img_3(k) sigma^{lin}_{P_3(k)} P_4(k) sigma^{lin}_{P_4(k)} N_modes
### header ###
0.00050000 0 0 0 0 0 0 0 0 0 0 0 0
0.00150000 0.00179520 18450.25773830 0 -33533.86439225 0 15393.52102562 0 36330.06930195 0 26554.09227307 0 3
0.00250000 0.00253879 32259.43980562 0 -34195.98941640 0 25249.99385593 0 -48035.95254672 0 -27408.32213283 0 6
0.00350000 0.00331552 44673.28749930 0 -11431.51103576 0 10461.47573073 0 19426.17244782 0 -11671.89120758 0 7
0.00450000 0.00420575 59774.72059620 0 -6311.92270309 0 12990.71581672 0 -7852.43739976 0 24569.59949582 0 24
0.00550000 0.00557378 65483.50054945 0 -447.72827699 0 4477.90282013 0 -15512.32707092 0 6660.09195701 0 45
0.00650000 0.00659388 67967.13372952 0 -10676.93209937 0 2934.99650130 0 -10378.73224736 0 15990.31933334 0 40
0.00750000 0.00754703 81487.10667257 0 -16361.68510776 0 12843.34317339 0 -18784.53122458 0 -27932.04309675 0 57
0.00850000 0.00846663 83522.42142074 0 13089.48095411 0 25584.04589571 0 -12753.43589586 0 -5954.72950444 0 75
0.00950000 0.00948925 83237.75194965 0 12870.02747620 0 18275.75789916 0 -24090.94289391 0 -18867.24149097 0 112
0.01050000 0.01054430 68609.88218524 0 14580.70166068 0 15145.39022643 0 -19757.89929939 0 -20619.99050977 0 105
0.01150000 0.01145670 68716.73011974 0 -8736.85041697 0 34578.64896214 0 -12325.37981837 0 -16107.57525317 0 144
0.01250000 0.01249090 71068.04901823 0 -6742.75793411 0 36014.17587487 0 667.11089202 0 -37596.85398445 0 169
0.01350000 0.01339930 84947.54034814 0 3432.44283843 0 34769.97873500 0 2996.17109593 0 -24253.59534550 0 180
0.01450000 0.01448870 81153.82969553 0 281.41974375 0 35990.03820677 0 1997.33667404 0 -16235.34988158 0 267
0.01550000 0.01550050 70144.72785160 0 825.23919169 0 32390.31468498 0 12106.36923346 0 198.32416045 0 238
0.01650000 0.01653350 81966.20616747 0 -3281.96994414 0 22721.40703710 0 23389.51111665 0 -40972.91654490 0 315
0.01750000 0.01747870 72737.75560088 0 -3522.99231080 0 7516.38126919 0 16789.40901551 0 -10039.29905772 0 297
0.01850000 0.01844180 86747.01457767 0 -2744.76288859 0 6233.54171570 0 -3541.61596114 0 -36091.57142536 0 388
0.01950000 0.01947590 74662.23637761 0 5256.48655673 0 1056.81022187 0 -4960.87762872 0 -18177.76782452 0 399
0.02050000 0.02045430 72552.51560666 0 5327.15013372 0 589.41306707 0 -15168.08849231 0 -16478.16596485 0 462
0.02150000 0.02154770 66577.22479503 0 4280.97045091 0 3951.20340083 0 -8318.00651373 0 -12566.31360643 0 571
0.02250000 0.02255340 68517.42827300 0 6266.80297946 0 4876.73903242 0 -13680.85382267 0 -8559.02888039 0 510
0.02350000 0.02348930 64114.96120186 0 4086.85045219 0 19579.30270006 0 -1499.29243137 0 -6224.84994072 0 555
0.02450000 0.02439640 67453.82075092 0 3729.17007124 0 26597.71723286 0 -8247.46473231 0 -4809.02069383 0 592
0.02550000 0.02547300 61701.52656114 0 2947.97326599 0 33261.15303197 0 453.44270383 0 2693.29872284 0 837
0.02650000 0.02652900 61259.29790788 0 -1557.92039128 0 33654.55273277 0 8466.50853420 0 10520.92304268 0 723
0.02750000 0.02749970 62940.29826185 0 -791.62139907 0 28737.33328081 0 13354.33096377 0 10607.25395929 0 826
0.02850000 0.02848090 66041.21355056 0 443.52079356 0 29190.96642863 0 10728.71736255 0 10914.16773094 0 831
0.02950000 0.02946900 63279.22212455 0 1445.64701762 0 14334.23171022 0 11843.40151902 0 5491.76238680 0 996
0.03050000 0.03053250 60431.97379743 0 3922.42642863 0 11784.05385799 0 2369.89825953 0 9617.56527770 0 1041
0.03150000 0.03150510 53965.73610334 0 3897.76836126 0 8805.16666111 0 -2536.54782038 0 2913.00686421 0 1036
0.03250000 0.03246190 55913.46876219 0 -814.40602908 0 7962.38558521 0 2428.22726668 0 -12073.26298225 0 1059
0.03350000 0.03345080 52358.69887917 0 21.65835313 0 12609.27422672 0 -11150.16326212 0 -8888.12051865 0 1302
0.03450000 0.03451200 55803.40985350 0 735.28098146 0 18280.18682909 0 -7947.08363231 0 -17034.21811725 0 1339
0.03550000 0.03553350 57220.11381404 0 59.43635035 0 25760.76019981 0 -8142.44373141 0 -11272.06955837 0 1365
0.03650000 0.03647120 56009.24437187 0 2528.77504836 0 28183.05270039 0 -3451.34329690 0 -8010.69413839 0 1308
0.03750000 0.03744890 55422.07898674 0 912.86999923 0 28318.79940267 0 7146.46596932 0 -770.47768760 0 1579
0.03850000 0.03847530 54445.94283073 0 1450.97280586 0 26683.74919670 0 15668.00395787 0 -1263.67335923 0 1662
0.03950000 0.03950240 52982.40293620 0 3538.20568510 0 20194.48106698 0 16604.39046779 0 -1206.25228272 0 1683
0.04050000 0.04050350 48833.82427315 0 308.15497926 0 11666.79793816 0 9091.85129531 0 246.48877342 0 1822
0.04150000 0.04152450 44366.47337857 0 2741.59620370 0 9332.17610550 0 2200.80171490 0 6134.86515692 0 1887
0.04250000 0.04250150 45537.59317464 0 2494.82730046 0 4336.57566615 0 -2722.60716663 0 3979.93608374 0 1920
0.04350000 0.04349210 40690.68298528 0 -100.20874709 0 5111.07371489 0 36.29829173 0 5127.02893495 0 2005
0.04450000 0.04448520 40868.06162887 0 747.86689309 0 4936.77317759 0 -1336.01992959 0 2927.67769460 0 2151
0.04550000 0.04548030 41352.36511644 0 -149.95581672 0 4042.67187616 0 -735.77591438 0 -4003.19903818 0 2274
0.04650000 0.04648670 40328.95013345 0 1241.89409631 0 6159.13569292 0 -107.32980208 0 -3636.53900181 0 2311
0.04750000 0.04749250 38611.30038434 0 2497.70610492 0 5771.87006006 0 -2327.26980898 0 -517.46952933 0 2568
0.04850000 0.04851840 36966.28508603 0 1682.66120269 0 5953.76621218 0 -121.00058008 0 -559.52111176 0 2493
0.04950000 0.04949480 37868.45811225 0 -743.71477128 0 5362.57050082 0 3347.86134914 0 1188.89087740 0 2644
0.05050000 0.05050630 38056.68763417 0 -2073.45890716 0 6350.21080231 0 948.89491526 0 2230.35374984 0 2829
0.05150000 0.05149060 40380.76861360 0 668.16165565 0 8458.65825591 0 -680.38771671 0 -2804.18805590 0 2784
0.05250000 0.05249300 38411.99853760 0 2125.01165152 0 10507.54767430 0 -3545.65735970 0 -658.00722655 0 3055
0.05350000 0.05348950 36778.27701061 0 3046.27336573 0 12556.68068383 0 -3592.49329368 0 1542.24197934 0 3009
0.05450000 0.05448610 34364.73164664 0 1496.15896344 0 13006.65996446 0 1607.45797252 0 2952.34683429 0 3336
0.05550000 0.05550870 34319.88873112 0 -1241.98267491 0 10930.97552001 0 2641.50238733 0 25.56810175 0 3349
0.05650000 0.05647670 35744.45404229 0 -772.80398304 0 12304.78529421 0 1165.24039159 0 -1757.36617824 0 3324
0.05750000 0.05747970 36076.51306360 0 599.90963100 0 10820.20798253 0 -1260.09699831 0 -2943.68827629 0 3639
0.05850000 0.05849280 34708.63805551 0 1758.92737604 0 11217.59372027 0 -3769.94944355 0 -2309.59837857 0 3846
0.05950000 0.05951020 34486.41649640 0 1217.41318613 0 12151.32287222 0 -3028.67944159 0 -3235.49939688 0 3787
0.06050000 0.06049470 33670.05398752 0 -320.66449184 0 16804.24593076 0 -601.20730747 0 -2901.38092315 0 3930
0.06150000 0.06148310 34162.55099545 0 413.74509766 0 14941.65944977 0 1320.36366230 0 -4205.08073660 0 4083
0.06250000 0.06249100 34353.32715208 0 -59.72367718 0 15313.91101017 0 2483.09063615 0 -3020.60771680 0 4303
0.06350000 0.06350600 34116.04723121 0 -483.98128292 0 14940.77366378 0 2596.84770134 0 -2280.13492223 0 4470
0.06450000 0.06451750 33957.15937007 0 673.40329422 0 14580.59093743 0 887.63395650 0 -263.43718102 0 4479
0.06550000 0.06550280 33841.67502221 0 1156.44896568 0 14781.99652589 0 -221.98018243 0 -1282.69561327 0 4636
0.06650000 0.06648880 32874.06455631 0 396.72361272 0 12868.80952047 0 1693.60065961 0 -144.90683660 0 4653
0.06750000 0.06749660 31703.83054622 0 463.24614023 0 12500.43327376 0 -426.64214161 0 -1249.14646907 0 5220
0.06850000 0.06852730 31957.60823107 0 -112.62990252 0 11354.33693178 0 2590.82435664 0 -3593.32371804 0 5029
0.06950000 0.06949320 31878.66255511 0 131.39970755 0 12699.95656699 0 1744.51120913 0 -2076.40414557 0 5040
0.07050000 0.07048030 31785.98719638 0 862.61825304 0 10392.31798991 0 442.45452868 0 -3808.87973761 0 5475
0.07150000 0.07148790 30458.96906686 0 461.37381010 0 10338.90509498 0 1341.92147872 0 -1394.76968508 0 5509
0.07250000 0.07249820 30158.90906428 0 969.67766895 0 9519.88522815 0 1304.23128504 0 -2262.23097300 0 5916
0.07350000 0.07351270 29826.51787322 0 607.10553490 0 9846.19771288 0 -564.20138346 0 -2367.35162483 0 5721
0.07450000 0.07449140 28210.06917295 0 1002.88357108 0 9168.90360372 0 209.52603147 0 -1185.93456668 0 6028
0.07550000 0.07549160 28442.36654764 0 1456.87435499 0 10051.78864011 0 -1361.23161320 0 -1315.65792425 0 6183
0.07650000 0.07648840 26626.94817038 0 1313.55418254 0 11095.79814726 0 170.62231099 0 848.48664488 0 6330
0.07750000 0.07749960 25638.96462681 0 1611.76510688 0 10445.55372764 0 937.90120395 0 734.01098581 0 6583
0.07850000 0.07848650 24031.70595613 0 1186.24459177 0 9503.94108041 0 1626.91204723 0 998.35609746 0 6549
0.07950000 0.07947320 23609.18604105 0 -114.36936475 0 10119.70628055 0 3004.19853142 0 1622.25059848 0 6828
0.08050000 0.08048110 24081.97431081 0 -891.88019307 0 7740.05330285 0 2472.71586780 0 546.58310021 0 7147
0.08150000 0.08149960 24087.73191972 0 -433.08180572 0 6213.86619450 0 1527.92546335 0 -262.65990381 0 7386
0.08250000 0.08250610 24211.29906469 0 531.88901794 0 6522.11971745 0 -203.27681135 0 -486.89884051 0 7227
0.08350000 0.08350160 23427.59991403 0 866.41495322 0 5095.50602619 0 -26.26167217 0 -20.85516669 0 7798
0.08450000 0.08449610 22508.70767733 0 854.36604935 0 5121.33775999 0 477.51836692 0 -223.69528554 0 7371
0.08550000 0.08548940 22110.87904660 0 1081.66426939 0 5451.89094513 0 -221.24940899 0 1344.73384922 0 8256
0.08650000 0.08650700 21103.74038109 0 777.42667865 0 5427.94150655 0 921.90501628 0 898.17591696 0 8037
0.08750000 0.08749060 20780.31777314 0 290.11594767 0 6669.11590174 0 -158.49922255 0 1580.35292137 0 8155
0.08850000 0.08849210 20509.04581508 0 212.87319527 0 6528.33129167 0 -200.22970756 0 1363.12498075 0 8718
0.08950000 0.08949900 20692.95713032 0 129.74771669 0 7595.63697024 0 -428.22216236 0 2289.54639832 0 8571
0.09050000 0.09049190 20621.42991199 0 483.84841502 0 7793.01223246 0 -626.99585920 0 2574.62554543 0 8932
0.09150000 0.09150830 20452.02334227 0 289.50364810 0 8056.43391222 0 -614.03238131 0 1188.06045304 0 9285
0.09250000 0.09250820 19816.58262092 0 769.12797120 0 7789.15906342 0 -138.79934223 0 1203.60599709 0 9204
0.09350000 0.09350330 19259.31251280 0 411.58599432 0 8273.35182774 0 468.84984382 0 208.51512822 0 9349
0.09450000 0.09448040 19029.22960307 0 231.26654125 0 7176.18408914 0 1205.38864138 0 434.09713791 0 9564
0.09550000 0.09549270 18532.74655820 0 -12.76517256 0 6920.50196442 0 1081.25459338 0 -113.68730954 0 10155
0.09650000 0.09649430 18832.36366779 0 -136.56162538 0 6311.46873777 0 606.53309571 0 -650.12373128 0 9913
0.09750000 0.09749140 18698.94215373 0 215.37775514 0 5990.92493427 0 623.64205202 0 -928.55394734 0 10476
0.09850000 0.09850240 18156.50896086 0 687.22487729 0 5760.88631384 0 -196.01115180 0 301.82493116 0 10575
0.09950000 0.09950330 17435.14699893 0 1021.33338592 0 6081.62941919 0 45.69980273 0 665.01600817 0 10882
0.10050000 0.10051200 17155.34935076 0 167.17660351 0 5821.75088337 0 776.09799968 0 855.13336146 0 10875
0.10150000 0.10150300 16649.12266005 0 -168.08231968 0 6153.51095191 0 624.51676568 0 382.38495208 0 11118
0.10250000 0.10250800 17273.15888683 0 265.09913697 0 5451.02730379 0 446.03974746 0 603.25347309 0 11575
0.10350000 0.10349800 17006.31585870 0 39.57536771 0 5553.02556002 0 -344.96270865 0 133.72821746 0 11364
0.10450000 0.10450100 17002.21909852 0 356.21994130 0 6156.37868404 0 -537.48275644 0 560.85643413 0 12093
0.10550000 0.10551000 16729.50773824 0 281.74527010 0 6295.96748303 0 -597.46043275 0 698.35588543 0 12067
0.10650000 0.10649700 16326.58583809 0 643.02747831 0 6494.47212238 0 157.66215479 0 255.02775032 0 12054
0.10750000 0.10749900 16066.27548160 0 273.46870730 0 6460.70153168 0 368.08504457 0 141.92838122 0 12807
0.10850000 0.10850100 15582.30416378 0 184.88457259 0 6252.24287232 0 800.95758336 0 92.55267737 0 12736
0.10950000 0.10950300 15458.07267931 0 188.76542244 0 5731.31213425 0 602.94898416 0 329.37508978 0 12933
0.11050000 0.11050200 15538.23631100 0 7.33829400 0 5740.61288710 0 687.74749102 0 658.23088752 0 13428
0.11150000 0.11150900 15350.22823558 0 -168.02142189 0 4847.57452885 0 -73.87045443 0 200.52755309 0 13453
0.11250000 0.11250000 15579.64680582 0 -25.70141254 0 4866.64107219 0 467.17792277 0 498.29558444 0 13668
0.11350000 0.11349100 15723.03341222 0 -285.20315714 0 4616.81620731 0 240.75552362 0 -88.77745750 0 13791
0.11450000 0.11448600 15531.70363936 0 -30.89765458 0 5052.25752545 0 70.79511621 0 -433.34311259 0 14205
0.11550000 0.11549300 15647.96304995 0 530.34885756 0 4350.33856590 0 346.29138763 0 -809.16217605 0 14776
0.11650000 0.11649800 14877.32924257 0 627.23723588 0 4243.26918490 0 370.74350976 0 -198.80027042 0 14553
0.11750000 0.11747300 14550.58493718 0 329.87888055 0 3536.75521055 0 440.30871213 0 -448.62624254 0 14568
0.11850000 0.11849100 14334.23171022 0 141.99702964 0 3778.51942296 0 567.41900105 0 -287.13195613 0 16015
0.11950000 0.11950300 14184.53387867 0 83.98502315 0 3522.60477943 0 -65.13173279 0 -345.10886334 0 15270
0.12050000 0.12050700 14193.28101528 0 197.58895809 0 3906.94731853 0 -364.37581576 0 -387.24348821 0 15999
0.12150000 0.12150000 14021.88142709 0 258.93628098 0 3817.02896868 0 -341.97539542 0 -146.85556577 0 15670
0.12250000 0.12250700 13868.30828185 0 -3.55867841 0 4026.03017196 0 -116.66133599 0 -370.06920518 0 16887
0.12350000 0.12352200 13852.14268762 0 273.80419874 0 4277.95877856 0 -64.68086772 0 -174.94605383 0 16407
0.12450000 0.12449800 13574.33805792 0 285.17769080 0 4372.02925022 0 545.71613717 0 -851.50606785 0 16306
0.12550000 0.12549900 13410.68909710 0 231.26432679 0 4077.28396354 0 228.65236536 0 -565.56549388 0 17523
0.12650000 0.12650100 13132.33085116 0 207.26949168 0 3692.83070119 0 486.12820670 0 -901.07465160 0 17154
0.12750000 0.12750600 13117.82610564 0 113.31749389 0 3598.93738673 0 196.18498730 0 -396.40583699 0 18007
0.12850000 0.12850300 12965.69236263 0 5.77150467 0 2998.37448856 0 309.34636141 0 -435.15011600 0 17496
0.12950000 0.12949900 12994.59113041 0 116.28709141 0 3186.95832488 0 -68.18237972 0 -516.15192268 0 18405
0.13050000 0.13049000 12906.01253186 0 150.47178705 0 3242.09850247 0 261.06216734 0 -60.16723451 0 18100
0.13150000 0.13148800 12678.69770334 0 316.74045992 0 3377.64590290 0 338.47986247 0 -14.20092092 0 19059
0.13250000 0.13249300 12333.24116899 0 282.50926052 0 3199.19324380 0 236.65876344 0 905.68516766 0 18957
0.13350000 0.13349100 12379.30204024 0 108.05492863 0 3289.64306524 0 595.06881059 0 717.57079792 0 19468
0.13450000 0.13450700 11980.14473053 0 112.33980761 0 3100.88207174 0 714.96658712 0 1080.02556532 0 19953
0.13550000 0.13551000 11948.36715830 0 166.44583007 0 2778.93208298 0 549.53166031 0 990.15261200 0 19956
0.13650000 0.13649900 11948.58860479 0 24.74686742 0 2401.44331294 0 508.24738999 0 1088.66972931 0 19723
0.13750000 0.13749600 11852.25937887 0 -14.89349484 0 2497.29642890 0 -71.83901500 0 911.41841745 0 20946
0.13850000 0.13851100 11720.83088327 0 173.39482112 0 2621.05180339 0 -607.42552509 0 749.27418557 0 20955
0.13950000 0.13949800 11662.36900823 0 339.66792293 0 2898.54640800 0 -619.40135161 0 708.90670375 0 20506
0.14050000 0.14048300 11542.12356070 0 280.30697511 0 3129.43759744 0 -295.22361110 0 803.36913570 0 21447
0.14150000 0.14148400 11358.54441521 0 208.30364681 0 3463.52285420 0 -175.71558041 0 886.46139731 0 21771
0.14250000 0.14249400 11245.38525556 0 245.03608440 0 3765.38764573 0 -329.50352874 0 410.71460236 0 22470
0.14350000 0.14350900 10991.88437884 0 379.86931988 0 3755.50005966 0 91.96241174 0 777.35249408 0 22519
0.14450000 0.14449900 10763.59518573 0 340.48063157 0 3836.71556221 0 -1.90339907 0 873.40048295 0 22218
0.14550000 0.14550500 10400.33435308 0 102.24229027 0 3610.85120823 0 469.52193393 0 949.87481601 0 23559
0.14650000 0.14650700 10506.59545436 0 -91.60975819 0 3250.95636233 0 743.59076124 0 918.91216688 0 23044
0.14750000 0.14750500 10467.53229240 0 -108.30195220 0 3008.38387020 0 656.30983916 0 522.87946724 0 23649
0.14850000 0.14849900 10572.44257006 0 -46.27733520 0 2690.10989329 0 449.03481132 0 363.10139117 0 23640
0.14950000 0.14949500 10329.38289564 0 196.90911734 0 2580.78175803 0 87.94924761 0 13.30129453 0 24457
0.15050000 0.15050000 10246.27402555 0 276.14378098 0 2440.00822029 0 -294.08426888 0 364.40128211 0 24591
0.15150000 0.15149900 10043.60619207 0 200.05808652 0 2565.00369516 0 -503.78302862 0 472.48267359 0 25020
0.15250000 0.15250500 9996.02841232 0 214.04132553 0 2921.94223034 0 -187.31162619 0 170.90022634 0 25297
0.15350000 0.15350100 9797.04766301 0 285.49325205 0 2818.36063166 0 -119.17032479 0 109.88507320 0 25452
0.15450000 0.15450400 9648.02524327 0 250.55010216 0 2979.46295777 0 132.06958320 0 236.15386543 0 26061
0.15550000 0.15549900 9386.48585873 0 173.81999840 0 2742.43770038 0 9.32716034 0 76.81480705 0 26128
0.15650000 0.15649500 9291.31922692 0 176.18283251 0 3001.88441553 0 212.89533992 0 -48.45559366 0 26331
0.15750000 0.15749700 9085.06396020 0 191.78595265 0 2867.13422249 0 -160.27411621 0 31.20247568 0 27345
0.15850000 0.15849900 9006.06292261 0 204.87011889 0 2662.36264729 0 59.99594565 0 15.27593294 0 26980
0.15950000 0.15949700 8897.63164567 0 -33.34452764 0 2623.25519603 0 453.25004538 0 69.13149941 0 27777
0.16050000 0.16050000 8895.25109583 0 -48.64271595 0 2339.12826886 0 383.55308235 0 -140.36496896 0 28224
0.16150000 0.16150500 8849.86563640 0 36.07839536 0 2061.00254174 0 450.25055259 0 -214.38899653 0 28075
0.16250000 0.16249700 8891.84081979 0 -57.43392041 0 1753.57944315 0 196.37543129 0 -750.41795672 0 28590
0.16350000 0.16349900 8861.87910883 0 -29.10349506 0 1605.90784705 0 99.21257003 0 -575.98455153 0 29163
0.16450000 0.16449100 8767.58719067 0 108.26463846 0 1739.40686739 0 -258.05160222 0 -758.77977643 0 28996
0.16550000 0.16550500 8750.15935141 0 177.70749164 0 1706.45562872 0 -239.93506436 0 -674.92684611 0 30777
0.16650000 0.16650700 8526.95235539 0 247.23283364 0 1880.94439554 0 -119.00313269 0 -495.65483497 0 29211
0.16750000 0.16749900 8424.46691687 0 107.99248072 0 1729.48606435 0 283.91655300 0 -395.77582171 0 30922
0.16850000 0.16850800 8413.22850717 0 20.56152863 0 1899.90021563 0 378.58714466 0 -447.48800755 0 30867
0.16950000 0.16949900 8306.14805385 0 167.27846890 0 1891.64026132 0 145.20468214 0 -654.68995804 0 30852
0.17050000 0.17049200 8381.39557332 0 59.42073837 0 2129.66202794 0 -199.28966718 0 -19.51630117 0 31257
0.17150000 0.17149500 8320.26526800 0 109.48026900 0 2037.47385150 0 -370.74572423 0 177.32217474 0 32608
0.17250000 0.17250900 8309.09329226 0 1.65312024 0 2534.28906612 0 -248.97118864 0 234.46976482 0 32361
0.17350000 0.17350400 8286.69397915 0 67.58846022 0 2506.12107178 0 -7.10775712 0 195.83178014 0 32508
0.17450000 0.17449800 8337.19485265 0 128.37142671 0 2580.03991227 0 324.45897756 0 478.07087593 0 32791
0.17550000 0.17549800 8222.07589151 0 25.89362810 0 2438.22557599 0 365.81411075 0 488.62944487 0 33633
0.17650000 0.17650100 8264.73755903 0 0.20104795 0 2366.41047722 0 443.34142190 0 562.59036020 0 33984
0.17750000 0.17750300 8096.49358341 0 216.39862349 0 2183.38494796 0 153.57093077 0 758.94475407 0 34069
