### header ###
fiducial parameters:
Omega_m = 0.31
Omega_nu = 0
Omega_de = 0.69
Omega_k = 0
H_0 = 100
w_de = -1
zeff = 0
beta = 0
fgrowth = 0
b_1 = 2
gamma = 0.55
Lx = 3500 Ly = 3500 Lz = 3500
nx = 700 ny = 700 nz = 700
xoffset = -685.467585 yoffset = -31.7331281 zoffset = 572.489161
bins = 400 dk = 0.001
kx_ny = 0.628318531 ky_ny = 0.628318531 kz_ny = 0.628318531
############################
A(data) = 8.04201721 (not used)
A(ran) = 8.04165247 (used)
Ngal = 477988
weighted Ngal = 0
Nran = 23820508
weighted Nran = 0
SN(data) = 3481.47724
SN(ran) = 70.0457095
SN(data+ran) = 3551.52294
############################
13 columns: k_central k_mean P_0(k) sigma^{lin}_{P_0(k)} P^img_1(k) sigma^{lin}_{P_1(k)} P_2(k) sigma^{lin}_{P_2(k)} P^img_3(k) sigma^{lin}_{P_3(k)} P_4(k) sigma^{lin}_{P_4(k)} N_modes
### header ###
0.00050000 0 0 0 0 0 0 0 0 0 0 0 0
0.00150000 0.00179520 6909.09746986 0 -11143.96276022 0 -19717.70676029 0 12319.29003972 0 -13314.35987117 0 3
0.00250000 0.00253879 14857.95267414 0 -11192.79171267 0 -10321.92014871 0 11173.41514424 0 18411.28315494 0 6
0.00350000 0.00331552 22624.19202519 0 -11977.37664932 0 -6176.77390636 0 -4329.14613619 0 31115.66865186 0 7
0.00450000 0.00420575 31641.49335749 0 -14017.45249716 0 -16834.80554726 0 2539.34911856 0 -13022.38266571 0 24
0.00550000 0.00557378 41382.70328644 0 -15401.38237624 0 -18792.39257520 0 -1976.75322220 0 -13991.65398033 0 45
0.00650000 0.00659388 66117.16969882 0 -17138.40869379 0 -14214.31843243 0 -21798.97165645 0 -8410.53793224 0 40
0.00750000 0.00754703 60522.87758420 0 -5614.89771111 0 12330.80525753 0 -22869.44401992 0 22214.07311391 0 57
0.00850000 0.00846663 73624.09520261 0 6739.49159829 0 19473.45127479 0 -21679.94416465 0 18002.38219939 0 75
0.00950000 0.00948925 68586.51957987 0 9682.95842808 0 28587.85689576 0 433.25674846 0 35294.91765465 0 112
0.01050000 0.01054430 65040.93972644 0 5122.02424413 0 42050.91808925 0 9709.78667111 0 19574.98449338 0 105
0.01150000 0.01145670 69929.03896413 0 -2554.13067219 0 49930.53804644 0 20104.79523595 0 20165.13940622 0 144
0.01250000 0.01249090 71324.92695402 0 -2119.80765885 0 45678.65459283 0 34378.57205266 0 13546.54652262 0 169
0.01350000 0.01339930 81866.77669060 0 2444.81360926 0 48303.79208408 0 1368.41755201 0 44.05866275 0 180
0.01450000 0.01448870 69775.02292590 0 5613.14828379 0 42255.53465190 0 15649.07028243 0 14865.14968527 0 267
0.01550000 0.01550050 70659.03733943 0 2535.24128605 0 48665.63565916 0 15901.96218129 0 27210.23824182 0 238
0.01650000 0.01653350 70689.70767917 0 -5616.78000633 0 28779.96173136 0 20185.62320713 0 -4918.50384164 0 315
0.01750000 0.01747870 82311.66270182 0 -3291.62501139 0 45236.86883257 0 15683.39448937 0 17292.20328552 0 297
0.01850000 0.01844180 80077.04610692 0 5740.54645315 0 32084.27562699 0 -3215.96781590 0 -9648.62314882 0 388
0.01950000 0.01947590 70086.04453006 0 2395.57498079 0 38964.61826930 0 -657.75256308 0 11949.14222103 0 399
0.02050000 0.02045430 70339.49004516 0 -63.76452212 0 24046.98576438 0 13034.34077651 0 -1311.07398178 0 462
0.02150000 0.02154770 72481.98489757 0 -3790.63254631 0 23905.37072995 0 18133.58924849 0 -197.32322229 0 571
0.02250000 0.02255340 71030.40311384 0 -1124.81533368 0 8389.42300881 0 5804.59985223 0 -3215.61350151 0 510
0.02350000 0.02348930 72446.77490464 0 5638.83607737 0 4644.85133375 0 6501.76878443 0 65.94001250 0 555
0.02450000 0.02439640 67040.71231194 0 3780.33528423 0 -2760.18663707 0 3800.12152868 0 1575.72468959 0 592
0.02550000 0.02547300 65404.11198050 0 579.12466285 0 4891.46522443 0 -3319.22831716 0 -2901.71309290 0 837
0.02650000 0.02652900 62782.40690994 0 1020.11764466 0 1301.81751823 0 -7401.90450289 0 -2757.91681048 0 723
0.02750000 0.02749970 63397.69600011 0 -447.57326445 0 13114.06151520 0 -4572.52690803 0 -10706.62807454 0 826
0.02850000 0.02848090 63272.68945291 0 1369.43620589 0 16270.67059775 0 -18705.69627187 0 -3077.46410474 0 831
0.02950000 0.02946900 68036.22503638 0 2360.84109783 0 23111.59576371 0 -9502.34666564 0 -11016.05526392 0 996
0.03050000 0.03053250 63815.89770851 0 2428.53729177 0 21684.81598757 0 -2571.33706496 0 -4840.01213100 0 1041
0.03150000 0.03150510 61939.80299124 0 2637.11774671 0 24311.94649729 0 7069.83440925 0 -700.86044530 0 1036
0.03250000 0.03246190 60599.71951844 0 257.35183129 0 25500.44984333 0 3222.56692149 0 -13832.54467269 0 1059
0.03350000 0.03345080 62310.50442617 0 1600.24988906 0 19835.73774286 0 9389.39788016 0 -13868.19755860 0 1302
0.03450000 0.03451200 57703.08862263 0 1592.31103217 0 14021.10636435 0 616.98869203 0 -11308.60823028 0 1339
0.03550000 0.03553350 55671.87063465 0 2766.95182753 0 15491.06820727 0 3087.06381036 0 -7886.32978603 0 1365
0.03650000 0.03647120 53673.20528164 0 432.74409982 0 13162.55829791 0 6626.67568071 0 -8318.95873367 0 1308
0.03750000 0.03744890 51697.34891775 0 2869.35975978 0 11919.91128351 0 738.32365632 0 -7101.43482429 0 1579
0.03850000 0.03847530 49238.29629878 0 3787.10047470 0 14535.52657542 0 2276.64713991 0 -1858.39006989 0 1662
0.03950000 0.03950240 46504.42857780 0 2310.83847895 0 13324.32496351 0 627.58047795 0 -893.53218393 0 1683
0.04050000 0.04050350 46514.83656313 0 265.53870827 0 17765.87734126 0 -2321.10252406 0 3282.66750061 0 1822
0.04150000 0.04152450 45228.23241921 0 -151.95104965 0 19329.62177540 0 102.99808716 0 2044.85909216 0 1887
0.04250000 0.04250150 46502.32483609 0 2140.44647232 0 19677.73566770 0 55.46271442 0 3042.48663064 0 1920
0.04350000 0.04349210 43480.68739308 0 2166.88718398 0 18960.02757295 0 759.77628566 0 4060.79727189 0 2005
0.04450000 0.04448520 44103.72711062 0 -678.67925699 0 18335.54845318 0 2604.54296709 0 3911.42053776 0 2151
0.04550000 0.04548030 42577.51785762 0 173.89750467 0 16873.00506789 0 1833.51055602 0 -2728.57514971 0 2274
0.04650000 0.04648670 43416.80007888 0 780.27780229 0 19171.95186998 0 1109.65732100 0 3512.77255499 0 2311
0.04750000 0.04749250 42771.72643494 0 135.93825350 0 15435.92802967 0 960.36141484 0 447.98958386 0 2568
0.04850000 0.04851840 43105.55702822 0 514.71916384 0 15157.68050698 0 3455.93831170 0 3563.60559823 0 2493
0.04950000 0.04949480 42579.17870635 0 -127.71815955 0 14284.73841828 0 1964.13077190 0 2662.89411888 0 2644
0.05050000 0.05050630 42648.27001321 0 578.76813399 0 14179.44060925 0 2777.70305493 0 4322.34772875 0 2829
0.05150000 0.05149060 42169.83485780 0 1455.35744649 0 13860.44693123 0 231.98845683 0 -308.16162266 0 2784
0.05250000 0.05249300 40437.34819343 0 1292.28424656 0 12429.23822517 0 -157.81716734 0 330.89199828 0 3055
0.05350000 0.05348950 39185.95404242 0 1718.82341555 0 12300.35636428 0 -2986.81498145 0 1042.06631414 0 3009
0.05450000 0.05448610 37805.01369104 0 1841.05080922 0 13943.60009062 0 37.98449608 0 274.85828407 0 3336
0.05550000 0.05550870 37416.92870615 0 -92.76183359 0 14461.23127589 0 291.92516554 0 -1527.43828106 0 3349
0.05650000 0.05647670 36933.51100457 0 1371.62852621 0 14760.18404599 0 1152.98332802 0 -1353.92387882 0 3324
0.05750000 0.05747970 35387.92518313 0 1854.91335989 0 14812.33469589 0 1312.91198770 0 -2944.16438625 0 3639
0.05850000 0.05849280 34071.64720869 0 1591.17058271 0 14447.83376286 0 1925.73194943 0 2299.06859767 0 3846
0.05950000 0.05951020 33616.90682839 0 -287.54716831 0 15005.21459423 0 1747.68896635 0 3431.82278824 0 3787
0.06050000 0.06049470 32557.28534324 0 -498.18596843 0 14201.36381240 0 2787.93388306 0 2627.60661969 0 3930
0.06150000 0.06148310 33784.65254939 0 923.13847327 0 14085.99018779 0 2320.88107756 0 877.26915324 0 4083
0.06250000 0.06249100 32555.18160153 0 623.79263563 0 14160.50693381 0 -33.21287770 0 3438.02329014 0 4303
0.06350000 0.06350600 31455.25685404 0 1218.04430865 0 11967.19011049 0 -308.23248553 0 2799.71483667 0 4470
0.06450000 0.06451750 31521.46935646 0 81.02417277 0 13855.57510831 0 153.30851667 0 2768.13656629 0 4479
0.06550000 0.06550280 32179.71906693 0 -836.73226485 0 12093.63605992 0 -249.89904946 0 1244.27464615 0 4636
0.06650000 0.06648880 31813.77873167 0 193.80997363 0 14212.76830696 0 76.51507921 0 866.63197079 0 4653
0.06750000 0.06749660 31956.39027534 0 1072.93706297 0 13528.94152616 0 -802.60071636 0 -161.71351844 0 5220
0.06850000 0.06852730 30934.63614107 0 1071.51869816 0 13928.87389861 0 -453.91217041 0 103.45028091 0 5029
0.06950000 0.06949320 30012.42220693 0 671.99046557 0 13256.00871938 0 1076.82123452 0 378.93370843 0 5040
0.07050000 0.07048030 30367.40094061 0 385.62692878 0 13806.85687911 0 -154.88521573 0 -1212.58565251 0 5475
0.07150000 0.07148790 29012.81272230 0 228.25376167 0 14260.93291992 0 546.47459142 0 -265.33387026 0 5509
0.07250000 0.07249820 29362.91963306 0 846.88780117 0 14852.30578848 0 769.18333283 0 123.97903546 0 5916
0.07350000 0.07351270 28375.26825924 0 1019.36804827 0 15156.57327450 0 506.57768341 0 1950.70004190 0 5721
0.07450000 0.07449140 28187.26018382 0 998.14572329 0 14356.48708311 0 1610.36999395 0 2963.00948309 0 6028
0.07550000 0.07549160 26974.50844643 0 567.98368962 0 13915.03349259 0 2197.10355841 0 2534.97555025 0 6183
0.07650000 0.07648840 26676.88435531 0 243.04970933 0 13065.34328600 0 1662.24383572 0 4484.49085340 0 6330
0.07750000 0.07749960 26098.57683003 0 5.01106848 0 11727.47427817 0 2588.84241050 0 4171.36550753 0 6583
0.07850000 0.07848650 25741.82652437 0 -94.29612564 0 10322.92773027 0 2654.60094760 0 2786.22874504 0 6549
0.07950000 0.07947320 25698.09084134 0 278.44461007 0 7627.56955502 0 1614.93179177 0 2549.13705370 0 6828
0.08050000 0.08048110 25092.98829000 0 675.56682648 0 7744.13899071 0 532.85895359 0 1451.00602283 0 7147
0.08150000 0.08149960 24789.38514347 0 681.26464484 0 6807.14350293 0 -117.64566566 0 1017.35842131 0 7386
0.08250000 0.08250610 23999.92838391 0 405.23269434 0 6499.69825969 0 -604.33523923 0 363.64172062 0 7227
0.08350000 0.08350160 23511.08524316 0 827.00854919 0 5821.95018522 0 -10.21397605 0 -43.68563613 0 7798
0.08450000 0.08449610 23236.04869467 0 398.22723443 0 7078.92478793 0 -73.74400848 0 123.79523487 0 7371
0.08550000 0.08548940 22679.22147954 0 431.24158534 0 6763.70677267 0 630.55118270 0 708.71847422 0 8256
0.08650000 0.08650700 22693.83694830 0 147.46122193 0 6926.83533422 0 1405.07801949 0 -696.89544578 0 8037
0.08750000 0.08749060 21618.27131541 0 652.20975728 0 6203.33641360 0 1503.36704690 0 -91.92332643 0 8155
0.08850000 0.08849210 21228.96837479 0 684.38593320 0 5947.12281729 0 172.93753411 0 -819.02983193 0 8718
0.08950000 0.08949900 21266.50355593 0 134.40252204 0 6380.26109187 0 -775.58977997 0 -466.35857073 0 8571
0.09050000 0.09049190 20374.84923828 0 1101.73839429 0 6493.26523897 0 -1919.91897890 0 -499.50357508 0 8932
0.09150000 0.09150830 19986.76425339 0 698.80099288 0 6922.79393566 0 -642.92450569 0 60.83124183 0 9285
0.09250000 0.09250820 19555.71864820 0 102.70013090 0 7151.08312877 0 -339.58155879 0 -330.86099577 0 9204
0.09350000 0.09350330 19621.15608787 0 84.27976844 0 7413.30899745 0 687.28134614 0 -1338.76586615 0 9349
0.09450000 0.09448040 19259.53395930 0 187.14221962 0 7559.13151531 0 1004.91534268 0 -701.75176745 0 9564
0.09550000 0.09549270 19039.41614190 0 469.04582397 0 6649.23000637 0 747.65651891 0 -740.72302911 0 10155
0.09650000 0.09649430 19073.62962559 0 302.85244290 0 7094.92429729 0 408.17903997 0 782.94623258 0 9913
0.09750000 0.09749140 18749.65340140 0 166.38271782 0 7106.05198373 0 -75.55034755 0 1006.34920874 0 10476
0.09850000 0.09850240 18602.50220456 0 358.08009187 0 7886.32978603 0 58.39366952 0 1476.30628504 0 10575
0.09950000 0.09950330 18041.02461301 0 944.11167094 0 7614.24954826 0 131.12179220 0 1132.69882895 0 10882
0.10050000 0.10051200 17596.80294128 0 729.62191625 0 7588.06350007 0 450.55836322 0 2350.53276343 0 10875
0.10150000 0.10150300 17205.61770544 0 -111.24364745 0 7101.31302871 0 1560.65525551 0 1988.12449979 0 11118
0.10250000 0.10250800 17215.58279778 0 -169.10761696 0 6402.84863450 0 809.46887945 0 606.69364442 0 11575
0.10350000 0.10349800 17215.13990478 0 245.03829886 0 6256.31748785 0 505.24014657 0 817.99567679 0 11364
0.10450000 0.10450100 16633.28923556 0 363.17446852 0 4976.67783624 0 -158.40178609 0 692.50637622 0 12093
0.10550000 0.10551000 16476.72656263 0 410.38686154 0 5864.25753835 0 -114.25974873 0 458.75520528 0 12067
0.10650000 0.10649700 16524.89117559 0 160.33390677 0 5994.36842729 0 -696.30971980 0 607.01252737 0 12054
0.10750000 0.10749900 15925.76767965 0 166.18784490 0 6076.24826933 0 122.81533412 0 -119.34748199 0 12807
0.10850000 0.10850100 16134.70244898 0 414.52901826 0 6913.64819536 0 -373.84708241 0 433.60995562 0 12736
0.10950000 0.10950300 15696.01693966 0 174.72792903 0 6868.17415733 0 417.18305452 0 881.95496110 0 12933
0.11050000 0.11050200 15765.10824653 0 -12.72575508 0 6638.98810591 0 769.92185689 0 1121.39398531 0 13428
0.11150000 0.11150900 15551.30165429 0 67.45692100 0 6198.70818182 0 723.38930461 0 426.27121873 0 13453
0.11250000 0.11250000 15672.87578079 0 4.73935363 0 5905.25835715 0 734.89123563 0 892.85012873 0 13668
0.11350000 0.11349100 15396.84272307 0 510.10532609 0 5711.28229865 0 684.02497541 0 1142.27638992 0 13791
0.11450000 0.11448600 15010.86147989 0 290.64852649 0 5295.88188843 0 62.15028789 0 1303.44514998 0 14205
0.11550000 0.11549300 14462.00633863 0 549.11423366 0 5142.35303250 0 420.55568466 0 596.17161414 0 14776
0.11650000 0.11649800 14163.93935451 0 342.59766007 0 5026.44793630 0 415.26422063 0 1189.62165084 0 14553
0.11750000 0.11747300 14096.50889636 0 84.07703417 0 5110.66403887 0 383.11018935 0 1422.70516060 0 14568
0.11850000 0.11849100 14151.64907396 0 -79.10046706 0 4472.43309167 0 223.66096134 0 1431.75124997 0 16015
0.11950000 0.11950300 14236.35235882 0 -134.35712551 0 5079.35150428 0 643.56227160 0 1779.22294743 0 15270
0.12050000 0.12050700 14212.32541397 0 160.05820588 0 4056.60086078 0 186.69268323 0 1966.31201989 0 15999
0.12150000 0.12150000 13996.08291026 0 351.33261712 0 4151.31352728 0 572.07934257 0 1891.89492479 0 15670
0.12250000 0.12250700 13847.04941820 0 -14.93789486 0 3860.65392847 0 213.81987904 0 1547.92208197 0 16887
0.12350000 0.12352200 13537.91010926 0 250.59328423 0 3620.16303341 0 630.52460912 0 845.28895747 0 16407
0.12450000 0.12449800 13567.25177003 0 63.88886433 0 3566.04150969 0 1.72758162 0 673.68231680 0 16306
0.12550000 0.12549900 13222.68102168 0 336.16574659 0 3333.92129219 0 -47.53625853 0 484.26916336 0 17523
0.12650000 0.12650100 13181.60269660 0 72.52959589 0 3036.13111620 0 -90.77789443 0 -199.40149766 0 17154
0.12750000 0.12750600 13112.40066648 0 200.29171257 0 3331.71789955 0 -323.09265267 0 -320.53383841 0 18007
0.12850000 0.12850300 12962.03849544 0 50.09241544 0 3393.90007574 0 -451.34339105 0 -936.95341294 0 17496
0.12950000 0.12949900 12870.02747620 0 159.80575688 0 3418.01559919 0 -210.91782270 0 -862.20968426 0 18405
0.13050000 0.13049000 12971.67141804 0 -0.81434402 0 3400.84242340 0 -44.38562850 0 -677.91748104 0 18100
0.13150000 0.13148800 13176.62015043 0 -312.16316084 0 3678.64705310 0 123.65683081 0 -832.92892127 0 19059
0.13250000 0.13249300 13113.84006871 0 315.34091807 0 3855.08454908 0 171.89341388 0 -392.89701726 0 18957
0.13350000 0.13349100 13072.76174363 0 529.62251305 0 3884.62551170 0 -185.79803939 0 -594.72335405 0 19468
0.13450000 0.13450700 12385.94543513 0 394.19690819 0 4047.31118026 0 -142.20851104 0 -64.98779257 0 19953
0.13550000 0.13551000 12307.55337541 0 408.18568337 0 4443.56754087 0 -284.14242843 0 -96.74078424 0 19956
0.13650000 0.13649900 11965.41853852 0 417.74995755 0 4791.93609664 0 -85.35433756 0 -275.25356606 0 19723
0.13750000 0.13749600 11652.84680889 0 85.84749891 0 4523.94154673 0 -19.40004176 0 -149.06006564 0 20946
0.13850000 0.13851100 11743.52914915 0 -160.77458530 0 4413.46188969 0 467.22110484 0 -524.26461507 0 20955
0.13950000 0.13949800 11750.61543704 0 21.29484871 0 4310.66642607 0 93.70497422 0 -837.49736249 0 20506
0.14050000 0.14048300 11657.94007830 0 209.37323339 0 3914.97475403 0 484.44742779 0 -566.25751418 0 21447
0.14150000 0.14148400 11399.73346353 0 303.41491701 0 3843.29252315 0 118.66099785 0 -97.98664222 0 21771
0.14250000 0.14249400 11307.72244429 0 72.31722870 0 3922.29356073 0 261.81287096 0 -2.45106947 0 22470
0.14350000 0.14350900 11208.84658366 0 210.07743325 0 4103.32607152 0 371.53296652 0 81.41480439 0 22519
0.14450000 0.14449900 10953.88416006 0 205.37058797 0 4069.97622916 0 33.44993617 0 406.21813125 0 22218
0.14550000 0.14550500 10935.22729274 0 140.65284940 0 4322.13735458 0 237.48808057 0 558.29429817 0 23559
0.14650000 0.14650700 10810.53077063 0 188.01028989 0 4149.71911251 0 157.50824948 0 853.39943540 0 23044
0.14750000 0.14750500 10789.54871510 0 6.29116209 0 3973.30376117 0 176.04885738 0 699.10991075 0 23649
0.14850000 0.14849900 10649.69418032 0 182.14085050 0 4063.77572726 0 9.79017175 0 1131.79089831 0 23640
0.14950000 0.14949500 10571.73394127 0 221.21508478 0 4078.40226835 0 220.31490478 0 953.69698253 0 24457
0.15050000 0.15050000 10356.66510399 0 35.95925714 0 3461.50769108 0 599.75794015 0 1253.19893995 0 24591
0.15150000 0.15149900 10299.11115959 0 214.61487196 0 3512.25215572 0 364.47768115 0 1108.55008852 0 25020
0.15250000 0.15250500 10096.57619400 0 101.19230171 0 3028.43585045 0 427.81248634 0 1514.87119239 0 25297
0.15350000 0.15350100 10048.78804009 0 152.07284522 0 3244.74478810 0 368.62648126 0 1157.03579890 0 25452
0.15450000 0.15450400 9941.22040447 0 52.43055827 0 2893.55278951 0 213.68036775 0 1240.76471918 0 26061
0.15550000 0.15549900 9758.85921471 0 29.53941249 0 2852.49660908 0 164.43841758 0 1135.00187251 0 26128
0.15650000 0.15649500 9755.65931284 0 236.19815473 0 2702.89842845 0 -58.02230375 0 994.80852459 0 26331
0.15750000 0.15749700 9634.83810442 0 164.59785906 0 2793.55862407 0 15.96596022 0 939.79457149 0 27345
0.15850000 0.15849900 9430.22154177 0 170.08751770 0 2732.84906709 0 -97.97224820 0 606.19981873 0 26980
0.15950000 0.15949700 9296.67823213 0 114.09920002 0 2705.51149711 0 29.48128279 0 814.76698687 0 27777
0.16050000 0.16050000 9325.38877038 0 -27.07803468 0 2665.92793588 0 181.08233625 0 374.07295784 0 28224
0.16150000 0.16150500 9347.94309604 0 -95.95542424 0 2509.33204597 0 204.41172464 0 126.18132087 0 28075
0.16250000 0.16249700 9247.11850624 0 149.40441494 0 2333.24886438 0 104.70942568 0 105.70150599 0 28590
0.16350000 0.16349900 9178.41473074 0 171.05523889 0 1938.03330231 0 104.62538674 0 31.91951943 0 29163
0.16450000 0.16449100 9085.80580596 0 104.92854699 0 2037.90567217 0 62.83156803 0 -18.16525610 0 28996
0.16550000 0.16550500 9021.49774341 0 36.30205632 0 1995.87512716 0 93.50401152 0 -25.34687670 0 30777
0.16650000 0.16650700 8971.88265590 0 135.70905637 0 2156.63421120 0 118.08523696 0 279.60831141 0 29211
0.16750000 0.16749900 8930.37251015 0 158.18919745 0 2204.55523302 0 39.78430248 0 118.32993534 0 30922
0.16850000 0.16850800 8763.13611609 0 127.70819446 0 2110.03079604 0 216.09745625 0 408.03620698 0 30867
0.16950000 0.16949900 8670.33896179 0 172.70501529 0 2171.95830875 0 152.50909482 0 296.17361657 0 30852
0.17050000 0.17049200 8519.10207709 0 49.19655363 0 2112.23418868 0 -127.90196014 0 258.80230585 0 31257
0.17150000 0.17149500 8545.50957178 0 119.00756162 0 2056.57361182 0 -160.01613105 0 280.84619733 0 32608
0.17250000 0.17250900 8469.88559327 0 66.83609575 0 1960.01186707 0 48.68977333 0 -17.58052662 0 32361
0.17350000 0.17350400 8343.84931986 0 -9.81577096 0 1958.36209067 0 -44.96914002 0 128.75231469 0 32508
0.17450000 0.17449800 8469.35412168 0 83.45133710 0 2084.85232940 0 51.27250381 0 -284.80012452 0 32791
0.17550000 0.17549800 8386.71028923 0 121.91072518 0 2082.13960982 0 167.00498247 0 -33.90755535 0 33633
0.17650000 0.17650100 8344.79046747 0 142.10553842 0 2104.81573105 0 -6.98723487 0 279.39572278 0 33984
0.17750000 0.17750300 8215.75359403 0 180.15558266 0 2404.92002293 0 36.55229086 0 784.59711621 0 34069
0.17850000 0.17849800 8162.82788140 0 153.41702545 0 2364.82713477 0 2.22341140 0 726.57481246 0 34536
