### header ###
fiducial parameters:
Omega_m = 0.31
Omega_nu = 0
Omega_de = 0.69
Omega_k = 0
H_0 = 100
w_de = -1
zeff = 0
beta = 0
fgrowth = 0
b_1 = 2
gamma = 0.55
Lx = 3500 Ly = 3500 Lz = 3500
nx = 700 ny = 700 nz = 700
xoffset = -685.467585 yoffset = -31.7331281 zoffset = 572.489161
bins = 400 dk = 0.001
kx_ny = 0.628318531 ky_ny = 0.628318531 kz_ny = 0.628318531
############################
A(data) = 7.99713937 (not used)
A(ran) = 7.99886442 (used)
Ngal = 475763
weighted Ngal = 0
Nran = 23820508
weighted Nran = 0
SN(data) = 3478.95112
SN(ran) = 69.67301
SN(data+ran) = 3548.62413
############################
13 columns: k_central k_mean P_0(k) sigma^{lin}_{P_0(k)} P^img_1(k) sigma^{lin}_{P_1(k)} P_2(k) sigma^{lin}_{P_2(k)} P^img_3(k) sigma^{lin}_{P_3(k)} P_4(k) sigma^{lin}_{P_4(k)} N_modes
### header ###
0.00050000 0 0 0 0 0 0 0 0 0 0 0 0
0.00150000 0.00179520 32752.93332279 0 -59368.69844510 0 -23542.53064565 0 -15350.22823558 0 8919.73200600 0 3
0.00250000 0.00253879 49542.89595454 0 -48085.11366891 0 -14372.43123084 0 -36142.61484277 0 -13630.03185175 0 6
0.00350000 0.00331552 77107.33786731 0 -34029.12948139 0 -15663.35358145 0 -8718.61429800 0 57334.38020617 0 7
0.00450000 0.00420575 85385.11862498 0 -9213.97903806 0 -90.80856477 0 -64268.53434710 0 16375.74696028 0 24
0.00550000 0.00557378 70804.74913404 0 25714.92077507 0 8099.89278713 0 -32552.96713656 0 39962.56690520 0 45
0.00650000 0.00659388 64976.83096574 0 13798.88480524 0 3331.02034309 0 -21073.73438083 0 28963.87304660 0 40
0.00750000 0.00754703 49683.84664948 0 11979.48039104 0 19333.49708909 0 -5351.73069482 0 27259.84225701 0 57
0.00850000 0.00846663 59500.23766395 0 -5040.14440210 0 21787.12426890 0 12630.09019738 0 7372.55176979 0 75
0.00950000 0.00948925 60516.45563580 0 -5147.55702516 0 31666.29536509 0 -197.05305756 0 12325.37981837 0 112
0.01050000 0.01054430 64150.94625752 0 7904.74306220 0 20796.37264413 0 10522.29601096 0 19488.62035980 0 105
0.01150000 0.01145670 69340.32345352 0 -108.88048117 0 30747.84602138 0 -1926.27449335 0 17310.36189822 0 144
0.01250000 0.01249090 63736.95203255 0 1938.37654438 0 26371.95252980 0 21770.84795142 0 7366.78308856 0 169
0.01350000 0.01339930 69545.60435566 0 -4745.11123498 0 40661.78421750 0 5128.95551947 0 824.83394460 0 180
0.01450000 0.01448870 72185.91093192 0 -2457.01531121 0 30374.48722850 0 12110.13382390 0 123.82402291 0 267
0.01550000 0.01550050 71879.87187393 0 86.20037390 0 37328.79300059 0 11427.30355233 0 17634.44884567 0 238
0.01650000 0.01653350 79929.45201708 0 -1321.13872504 0 26037.90049003 0 6657.72247950 0 7803.44236244 0 315
0.01750000 0.01747870 79650.98304790 0 3357.97038170 0 33797.49644618 0 18057.30093049 0 30521.30625559 0 297
0.01850000 0.01844180 77974.96524010 0 5061.53613365 0 35396.45087324 0 14073.36773749 0 17442.89762630 0 388
0.01950000 0.01947590 71887.06888506 0 1071.01490738 0 14292.04615266 0 19478.87671396 0 28447.01692407 0 399
0.02050000 0.02045430 71959.48188938 0 -489.68020850 0 18172.67455510 0 11134.77273062 0 14569.18644287 0 462
0.02150000 0.02154770 70669.66677125 0 1104.50315380 0 13962.42304281 0 34.66523454 0 12279.54039362 0 571
0.02250000 0.02255340 63729.97646792 0 5132.34365086 0 11020.07451783 0 783.81873177 0 8611.60027863 0 510
0.02350000 0.02348930 61622.47016194 0 4520.07730537 0 12030.08091546 0 -9573.30919540 0 8509.20341870 0 555
0.02450000 0.02439640 63434.89901150 0 1258.95654885 0 10325.35256941 0 -2542.15041674 0 5303.78752835 0 592
0.02550000 0.02547300 60807.32560879 0 -315.46603534 0 15286.11947488 0 895.01366100 0 587.62710108 0 837
0.02650000 0.02652900 61893.52067350 0 903.00234335 0 9078.43163763 0 162.06672560 0 1700.75338144 0 723
0.02750000 0.02749970 61570.54095854 0 -1819.93588579 0 11672.99844006 0 4862.50002271 0 -3009.60182593 0 826
0.02850000 0.02848090 64526.85168511 0 -892.75379950 0 9129.56363364 0 -574.04025129 0 8673.08489834 0 831
0.02950000 0.02946900 61407.55633721 0 2232.19175576 0 9231.10792455 0 -236.21808491 0 -1738.64287697 0 996
0.03050000 0.03053250 62405.72641961 0 2819.43464717 0 14842.67286589 0 579.29628388 0 -1740.72447404 0 1041
0.03150000 0.03150510 56763.15896878 0 1877.42339625 0 7999.94291099 0 -1219.09617951 0 -6604.03277646 0 1036
0.03250000 0.03246190 57883.56751717 0 1476.48344224 0 14613.80791189 0 -5109.65645731 0 -9059.15472012 0 1059
0.03350000 0.03345080 56784.75000217 0 1134.54790719 0 9826.27860053 0 -3502.67459475 0 -13666.01690741 0 1302
0.03450000 0.03451200 54298.68091064 0 2375.25726475 0 14549.80987444 0 399.92572905 0 -12244.88401694 0 1339
0.03550000 0.03553350 52028.85432282 0 3596.52361992 0 16210.88004373 0 -3289.03408738 0 -12669.39695049 0 1365
0.03650000 0.03647120 50086.54710313 0 4471.38122081 0 19603.88326116 0 455.06590665 0 39.62065351 0 1308
0.03750000 0.03744890 46801.83122243 0 3255.77282362 0 21894.52581964 0 425.77739304 0 1739.79439875 0 1579
0.03850000 0.03847530 46747.79827732 0 656.98746544 0 23300.71107161 0 3690.33942811 0 8934.55784894 0 1662
0.03950000 0.03950240 46193.73914339 0 -2511.13683492 0 27115.90203437 0 7154.98058711 0 9350.95476839 0 1683
0.04050000 0.04050350 50671.60874655 0 -752.97455652 0 25815.67893091 0 2863.02638998 0 10860.20121977 0 1822
0.04150000 0.04152450 49539.68498034 0 1389.79821124 0 27741.15621688 0 2458.49900273 0 11391.76138966 0 1887
0.04250000 0.04250150 47594.60967945 0 2881.49502778 0 27244.34100226 0 1148.28866229 0 14023.65299906 0 1920
0.04350000 0.04349210 44990.62032860 0 2268.44254722 0 24418.90515504 0 2951.76000108 0 9741.89641309 0 2005
0.04450000 0.04448520 43492.53478064 0 1716.76396313 0 22399.31310812 0 5517.40589108 0 9766.68734836 0 2151
0.04550000 0.04548030 41685.86353998 0 -293.76427869 0 17805.40554087 0 4878.92028041 0 4987.32941271 0 2274
0.04650000 0.04648670 42720.90446402 0 -671.34494903 0 13085.49491717 0 4652.03727255 0 3873.77463338 0 2311
0.04750000 0.04749250 41531.29388551 0 10.87362088 0 13739.42642096 0 2504.65952490 0 4891.12198236 0 2568
0.04850000 0.04851840 42240.80845989 0 1240.64292360 0 10269.68092022 0 474.20442010 0 1753.09226086 0 2493
0.04950000 0.04949480 39235.66878086 0 1953.85565447 0 11838.86186584 0 -2071.11157430 0 2000.42585266 0 2644
0.05050000 0.05050630 39517.34872425 0 1610.36999395 0 12271.12542676 0 -2480.67686934 0 2361.78224544 0 2829
0.05150000 0.05149060 38284.22390919 0 -74.09943011 0 16350.28061320 0 -2285.21711932 0 -802.80555437 0 2784
0.05250000 0.05249300 38215.46477207 0 669.05297779 0 15381.78436131 0 -2615.67065353 0 -2861.48733683 0 3055
0.05350000 0.05348950 37437.63395356 0 274.37110177 0 16469.86172124 0 1189.12339622 0 -3961.14634852 0 3009
0.05450000 0.05448610 37066.60034889 0 51.13133167 0 13582.42085503 0 248.46739786 0 -6380.28323652 0 3336
0.05550000 0.05550870 36191.44379522 0 1160.63430446 0 16176.55583679 0 1431.99484112 0 -6183.79376029 0 3349
0.05650000 0.05647670 35868.13191052 0 1387.82733742 0 13995.30784752 0 185.29867754 0 -7980.12344957 0 3324
0.05750000 0.05747970 34149.15348242 0 1384.40598905 0 13403.49208596 0 1681.02249862 0 -6097.58463925 0 3639
0.05850000 0.05849280 34668.33479317 0 382.14689709 0 13761.12817761 0 -867.58861965 0 -4247.85312737 0 3846
0.05950000 0.05951020 32838.52239364 0 565.59538915 0 14025.09240128 0 1245.88013324 0 -3309.98292594 0 3787
0.06050000 0.06049470 34377.57554343 0 897.53040043 0 17081.16477448 0 903.05770498 0 -906.17234995 0 3930
0.06150000 0.06148310 32896.98426868 0 366.78183194 0 13558.39391018 0 -130.25593640 0 -414.77593110 0 4083
0.06250000 0.06249100 32804.53035644 0 1685.96075549 0 17162.65708514 0 1522.30072234 0 346.33124800 0 4303
0.06350000 0.06350600 31217.53404019 0 1233.30197225 0 16325.36788236 0 1865.34348987 0 1000.93041298 0 4470
0.06450000 0.06451750 29854.97374801 0 957.66308928 0 15317.45415412 0 2703.37453842 0 2744.33106793 0 4479
0.06550000 0.06550280 30157.69110855 0 -482.78879353 0 13848.82099017 0 1143.64935819 0 1669.38548523 0 4636
0.06650000 0.06648880 30428.74162011 0 -487.68829726 0 14984.50934682 0 1218.36540607 0 1239.57998042 0 4653
0.06750000 0.06749660 30440.47828442 0 627.40221352 0 14206.45708181 0 -645.00388829 0 1968.49326788 0 5220
0.06850000 0.06852730 29868.26053779 0 798.59585647 0 13976.92778832 0 604.72387783 0 2682.06031315 0 5029
0.06950000 0.06949320 29859.29195468 0 74.93461557 0 12903.68734365 0 1403.48360471 0 3470.01123654 0 5040
0.07050000 0.07048030 29599.42449119 0 -296.93760699 0 13686.27926183 0 872.59441770 0 -185.93865791 0 5475
0.07150000 0.07148790 29748.90087624 0 902.90047796 0 12782.00249389 0 967.18861033 0 1668.68792877 0 5509
0.07250000 0.07249820 28602.91525751 0 1189.84309734 0 12420.15891882 0 -65.68856001 0 407.41062063 0 5916
0.07350000 0.07351270 27476.19548397 0 826.84800048 0 10876.76541770 0 844.06435834 0 1681.14429419 0 5721
0.07450000 0.07449140 26748.74374338 0 40.03520136 0 10934.86190602 0 752.64792294 0 655.83483643 0 6028
0.07550000 0.07549160 27440.65332130 0 481.90079308 0 11015.01446539 0 1875.40823313 0 -291.01391321 0 6183
0.07650000 0.07648840 26408.93409470 0 352.49521123 0 9701.98068212 0 875.98808526 0 -863.69226855 0 6330
0.07750000 0.07749960 26490.20495887 0 -119.90331269 0 9804.69863946 0 321.03430749 0 -94.52454770 0 6583
0.07850000 0.07848650 26588.52720326 0 135.91500161 0 9505.80123098 0 946.45236041 0 985.63399624 0 6549
0.07950000 0.07947320 26374.94205750 0 640.70671903 0 9900.00921150 0 78.88333877 0 -680.54494372 0 6828
0.08050000 0.08048110 25820.99364683 0 34.93108106 0 8496.01627984 0 1387.93806067 0 1446.01240434 0 7147
0.08150000 0.08149960 25520.15858151 0 -249.33878982 0 8476.56220514 0 983.48264353 0 965.27531260 0 7386
0.08250000 0.08250610 25396.03782029 0 906.49566183 0 8530.01938936 0 899.61421196 0 1271.75615634 0 7227
0.08350000 0.08350160 24762.03650117 0 971.07499634 0 8261.12798114 0 618.07377986 0 771.51627167 0 7798
0.08450000 0.08449610 23538.43388546 0 1135.16795738 0 8619.86023294 0 269.66425649 0 1453.81839334 0 7371
0.08550000 0.08548940 22849.62455850 0 748.66742217 0 8969.19208097 0 -278.69041569 0 3106.17464300 0 8256
0.08650000 0.08650700 22145.09253029 0 829.52639586 0 8330.70647030 0 897.78838560 0 2024.44172519 0 8037
0.08750000 0.08749060 21759.11128711 0 244.96522152 0 7330.52122478 0 829.61165276 0 1764.62962332 0 8155
0.08850000 0.08849210 21269.27163713 0 207.45661396 0 7476.96379283 0 545.60873562 0 1811.97488425 0 8718
0.08950000 0.08949900 21046.82863152 0 582.89811115 0 6846.83778741 0 -128.61612509 0 1216.84849757 0 8571
0.09050000 0.09049190 20816.63499854 0 53.72834546 0 6464.77614721 0 52.95682587 0 6.65582911 0 8932
0.09150000 0.09150830 20291.91752539 0 82.16107908 0 6037.31797526 0 703.60306016 0 418.34786309 0 9285
0.09250000 0.09250820 20889.49089585 0 124.28463162 0 6439.53124663 0 434.61642994 0 -297.92858006 0 9204
0.09350000 0.09350330 20194.25962049 0 434.22336241 0 6233.51957105 0 330.02614247 0 618.39266282 0 9349
0.09450000 0.09448040 19922.98766243 0 403.86747669 0 5843.16475957 0 486.35297489 0 1978.98983181 0 9564
0.09550000 0.09549270 19598.34709875 0 475.63717893 0 6340.00211883 0 258.15125315 0 1504.82859378 0 10155
0.09650000 0.09649430 19204.06161196 0 575.66234688 0 7349.82028694 0 411.31029343 0 2186.45198194 0 9913
0.09750000 0.09749140 18284.61575902 0 1297.64325177 0 7408.31537896 0 -306.01469887 0 1547.16916388 0 10476
0.09850000 0.09850240 17148.81667912 0 1103.44463954 0 7047.25793895 0 -375.74487888 0 3134.35370966 0 10575
0.09950000 0.09950330 16328.35741006 0 732.05450601 0 7125.43962449 0 115.31494129 0 2242.13470345 0 10882
0.10050000 0.10051200 16458.45722668 0 86.65456067 0 7713.10326424 0 114.81890114 0 1887.83138158 0 10875
0.10150000 0.10150300 16218.07705486 0 -127.39041874 0 7042.04287396 0 852.56347487 0 1054.67215595 0 11118
0.10250000 0.10250800 16395.01280547 0 -129.23949698 0 6538.07493751 0 222.45186347 0 1117.16435723 0 11575
0.10350000 0.10349800 16417.82179459 0 -176.46296233 0 5961.62756280 0 696.32964998 0 713.95125493 0 11364
0.10450000 0.10450100 16753.09179010 0 -77.61057503 0 6069.40557259 0 815.52987005 0 960.02813787 0 12093
0.10550000 0.10551000 16590.21789202 0 117.86600493 0 5915.24559414 0 586.08140453 0 796.33267328 0 12067
0.10650000 0.10649700 16503.63231194 0 208.43208578 0 5752.78137208 0 152.82354884 0 455.92069013 0 12054
0.10750000 0.10749900 15989.32282411 0 567.48100607 0 5790.51585506 0 -141.84976772 0 189.48512355 0 12807
0.10850000 0.10850100 15580.97548480 0 563.39753268 0 5684.45405562 0 -592.95399655 0 -37.53983151 0 12736
0.10950000 0.10950300 15432.82777873 0 207.33592562 0 5817.62090621 0 -238.97066486 0 95.59479862 0 12933
0.11050000 0.11050200 15335.05915058 0 -162.97576347 0 5758.63863190 0 -301.39532496 0 -454.05168170 0 13428
0.11150000 0.11150900 15554.40190523 0 -38.96960082 0 5940.45727775 0 75.83080954 0 -728.12936686 0 13453
0.11250000 0.11250000 15592.26925611 0 222.28467136 0 6412.31547222 0 391.99351555 0 -611.73819560 0 13668
0.11350000 0.11349100 15080.94929599 0 257.12927757 0 5320.08599049 0 992.43129645 0 -730.99709899 0 13791
0.11450000 0.11448600 14915.75020969 0 282.69970450 0 5250.20854856 0 814.86663780 0 -613.11891451 0 14205
0.11550000 0.11549300 14723.97754384 0 361.28331544 0 5072.49773522 0 84.62256761 0 -577.75280180 0 14776
0.11650000 0.11649800 14310.86910485 0 100.59982160 0 4844.66250742 0 672.16319384 0 5.13048350 0 14553
0.11750000 0.11747300 14059.30588497 0 20.23998832 0 4389.60102970 0 232.51217780 0 -448.16341936 0 14568
0.11850000 0.11849100 14223.95135503 0 55.90948273 0 4051.08684302 0 805.82497735 0 -719.08992088 0 16015
0.11950000 0.11950300 14030.07494745 0 242.45955441 0 4004.61629576 0 93.04008111 0 -452.24467829 0 15270
0.12050000 0.12050700 13908.50082094 0 223.05087624 0 4023.89321327 0 -461.42031386 0 -529.40106655 0 15999
0.12150000 0.12150000 13652.28722464 0 205.41266280 0 4166.48261228 0 -220.80651600 0 -17.03687548 0 15670
0.12250000 0.12250700 13808.51772783 0 444.59038014 0 4708.79400957 0 13.10387498 0 217.44827988 0 16887
0.12350000 0.12352200 13598.69717252 0 -59.12078909 0 4493.89125717 0 -22.44005926 0 714.34653693 0 16407
0.12450000 0.12449800 13503.69662557 0 148.08680829 0 4506.41405654 0 537.82821297 0 340.97224279 0 16306
0.12550000 0.12549900 13363.63171662 0 283.10273713 0 4596.38776802 0 112.47821167 0 1047.80177840 0 17523
0.12650000 0.12650100 13354.66313351 0 156.78522666 0 4582.59165129 0 495.56625637 0 500.75031885 0 17154
0.12750000 0.12750600 13054.49240768 0 96.18373557 0 4484.19190063 0 126.27543563 0 104.45199413 0 18007
0.12850000 0.12850300 12913.76315924 0 146.28534104 0 4285.69833360 0 19.46370763 0 649.58008014 0 17496
0.12950000 0.12949900 12837.91773423 0 126.50241829 0 3922.14962051 0 177.40964610 0 380.63773922 0 18405
0.13050000 0.13049000 12757.53265604 0 188.38453446 0 4033.51506354 0 -54.83070612 0 36.64518767 0 18100
0.13150000 0.13148800 12692.75955586 0 102.10133957 0 4217.33780017 0 -186.62403482 0 -537.47832751 0 19059
0.13250000 0.13249300 12324.38330914 0 386.27023086 0 3880.36266664 0 -277.49239014 0 -53.96075356 0 18957
0.13350000 0.13349100 12351.17833520 0 220.80319430 0 3861.19647238 0 -13.17385207 0 -877.91245531 0 19468
0.13450000 0.13450700 11930.65143859 0 85.24029262 0 3982.93668376 0 301.63116548 0 -592.55428562 0 19953
0.13550000 0.13551000 11817.16010920 0 250.74718954 0 3351.32698681 0 326.54832525 0 -1072.72336710 0 19956
0.13650000 0.13649900 11671.89120758 0 103.84013746 0 3366.45178251 0 523.02783639 0 -444.57377165 0 19723
0.13750000 0.13749600 11430.95741952 0 184.75502639 0 3328.00867074 0 527.38258174 0 -533.00732275 0 20946
0.13850000 0.13851100 11395.96887310 0 109.88219439 0 3092.53353882 0 326.35123787 0 -516.18292519 0 20955
0.13950000 0.13949800 11197.22064260 0 135.90171482 0 3169.41976236 0 205.86330642 0 148.56181102 0 20506
0.14050000 0.14048300 11300.08254017 0 120.62079934 0 3339.15850183 0 129.21513787 0 -81.29743775 0 21447
0.14150000 0.14148400 11046.73667599 0 -34.84416331 0 3485.24675549 0 -17.63810271 0 201.10885015 0 21771
0.14250000 0.14249400 11275.28053257 0 301.44404319 0 3677.81662874 0 -377.14663521 0 458.43521509 0 22470
0.14350000 0.14350900 11008.70324024 0 383.14894249 0 3992.02706244 0 -359.26261616 0 690.87874448 0 22519
0.14450000 0.14449900 10645.09916552 0 174.40461715 0 4169.33927209 0 -58.43452640 0 948.79194264 0 22218
0.14550000 0.14550500 10713.36004803 0 42.38563447 0 4136.67591387 0 504.93565763 0 906.55655962 0 23559
0.14650000 0.14650700 10795.62742143 0 -261.85494580 0 3986.07015169 0 326.19622532 0 539.25543564 0 23044
0.14750000 0.14750500 10785.69554607 0 -58.05363843 0 3642.68414209 0 389.20328970 0 588.32133584 0 23649
0.14850000 0.14849900 10933.45572077 0 173.34721013 0 3525.04069089 0 104.99852409 0 212.16235201 0 23640
0.14950000 0.14949500 10679.99913335 0 181.30267551 0 3397.53179828 0 -47.68706359 0 324.52541150 0 24457
0.15050000 0.15050000 10476.39015226 0 226.86197044 0 3215.27025944 0 -172.43485056 0 52.79384124 0 24591
0.15150000 0.15149900 10340.51058208 0 284.52663810 0 3352.31242372 0 -64.39420523 0 -142.75991282 0 25020
0.15250000 0.15250500 10131.66439135 0 202.15850654 0 3382.75024464 0 100.30186534 0 83.21804321 0 25297
0.15350000 0.15350100 9944.88534399 0 282.73735041 0 3245.05481320 0 44.27280151 0 17.14272690 0 25452
0.15450000 0.15450400 9709.91953901 0 228.31576669 0 3281.52705115 0 203.18269658 0 -257.59431521 0 26061
0.15550000 0.15549900 9523.48373371 0 160.06374204 0 3265.08464880 0 81.90874080 0 -432.97218971 0 26128
0.15650000 0.15649500 9352.74848501 0 161.83974294 0 3411.48292755 0 243.91335066 0 4.37363474 0 26331
0.15750000 0.15749700 9206.11768744 0 87.66745694 0 2994.56560883 0 255.03107201 0 -176.43085259 0 27345
0.15850000 0.15849900 9117.89340328 0 -3.43444693 0 2793.97937241 0 355.08613524 0 -209.07870955 0 26980
0.15950000 0.15949700 9158.63955862 0 44.76529852 0 2597.44560688 0 416.02821104 0 55.11770078 0 27777
0.16050000 0.16050000 9151.47576446 0 103.24920749 0 2293.57672456 0 326.80631042 0 -122.54738386 0 28224
0.16150000 0.16150500 9018.54143269 0 -46.50586798 0 2248.68951974 0 -61.45051696 0 322.49363990 0 28075
0.16250000 0.16249700 9142.67326623 0 87.41711168 0 2262.86209551 0 74.13796180 0 -70.66169470 0 28590
0.16350000 0.16349900 8935.44363492 0 238.59309859 0 2492.45782295 0 -81.32567218 0 -147.14787514 0 29163
0.16450000 0.16449100 8826.30372918 0 234.57605914 0 2562.08060141 0 -153.80234236 0 29.40156205 0 28996
0.16550000 0.16550500 8681.89846890 0 151.30774758 0 2638.37999174 0 -87.83464904 0 -30.53326437 0 30777
0.16650000 0.16650700 8668.88848724 0 127.95178560 0 2675.48335220 0 6.74364372 0 149.99235539 0 29211
0.16750000 0.16749900 8604.82401584 0 36.50445842 0 2552.83521019 0 146.26319639 0 14.68788176 0 30922
0.16850000 0.16850800 8542.02178947 0 24.49209322 0 2431.68183202 0 368.56115454 0 169.58261969 0 30867
0.16950000 0.16949900 8484.22425391 0 8.19665383 0 2157.55321416 0 224.90991958 0 -328.00544320 0 30852
0.17050000 0.17049200 8500.40092047 0 183.84820299 0 2343.24717369 0 117.88372065 0 -253.22628307 0 31257
0.17150000 0.17149500 8184.91716941 0 172.11596761 0 2095.22709776 0 -101.29903892 0 -111.83601683 0 32608
0.17250000 0.17250900 8108.46276654 0 162.46532930 0 1897.13213443 0 236.05864344 0 -13.91492277 0 32361
0.17350000 0.17350400 8105.44002187 0 -10.38473345 0 1879.44963169 0 160.32615614 0 148.41233464 0 32508
0.17450000 0.17449800 8107.94236727 0 -28.76357469 0 1957.57595561 0 142.06346359 0 -325.56178111 0 32791
0.17550000 0.17549800 8088.68759442 0 124.09529487 0 1806.30585394 0 -77.16889999 0 -212.76247202 0 33633
0.17650000 0.17650100 8048.35111510 0 138.96764157 0 2057.85800149 0 -110.55051992 0 -118.55913246 0 33984
0.17750000 0.17750300 7899.22904444 0 69.43886714 0 1982.13437206 0 -81.47071963 0 173.30181360 0 34069
0.17850000 0.17849800 7996.68764750 0 77.90354875 0 2240.49599938 0 110.94026575 0 147.14233898 0 34536
