### header ###
fiducial parameters:
Omega_m = 0.31
Omega_nu = 0
Omega_de = 0.69
Omega_k = 0
H_0 = 100
w_de = -1
zeff = 0
beta = 0
fgrowth = 0
b_1 = 2
gamma = 0.55
Lx = 3500 Ly = 3500 Lz = 3500
nx = 700 ny = 700 nz = 700
xoffset = -685.467585 yoffset = -31.7331281 zoffset = 572.489161
bins = 400 dk = 0.001
kx_ny = 0.628318531 ky_ny = 0.628318531 kz_ny = 0.628318531
############################
A(data) = 8.03806556 (not used)
A(ran) = 8.03474014 (used)
Ngal = 477537
weighted Ngal = 0
Nran = 23820508
weighted Nran = 0
SN(data) = 3488.99097
SN(ran) = 69.9855006
SN(data+ran) = 3558.97647
############################
13 columns: k_central k_mean P_0(k) sigma^{lin}_{P_0(k)} P^img_1(k) sigma^{lin}_{P_1(k)} P_2(k) sigma^{lin}_{P_2(k)} P^img_3(k) sigma^{lin}_{P_3(k)} P_4(k) sigma^{lin}_{P_4(k)} N_modes
### header ###
0.00050000 0 0 0 0 0 0 0 0 0 0 0 0
0.00150000 0.00179520 18459.77993765 0 -15260.98529754 0 33109.24073545 0 -3291.96825346 0 -71801.47981421 0 3
0.00250000 0.00253879 41839.65813171 0 -23081.14687045 0 9498.93638959 0 3836.91486406 0 77125.71792651 0 6
0.00350000 0.00331552 41699.81466925 0 -11902.08484056 0 -18714.11123873 0 32610.65394887 0 28904.63610882 0 7
0.00450000 0.00420575 48887.41432527 0 -3943.74065391 0 -31853.52837777 0 -4874.51349514 0 -13151.04308010 0 24
0.00550000 0.00557378 58934.88475871 0 -18098.82214856 0 -28584.20302857 0 -16347.06963900 0 -27575.84640734 0 45
0.00650000 0.00659388 59244.57768388 0 1478.23286956 0 -35151.86321800 0 -16295.80477509 0 12052.55773484 0 40
0.00750000 0.00754703 57106.95465439 0 6357.15314998 0 -4461.37183918 0 -40326.62494524 0 -8116.75593783 0 57
0.00850000 0.00846663 52494.22413495 0 4545.05647016 0 -1520.00875110 0 -5190.81659823 0 31058.97834878 0 75
0.00950000 0.00948925 58184.51330575 0 -4900.43380754 0 -1327.67139668 0 4593.95185656 0 7946.46358212 0 112
0.01050000 0.01054430 61961.28330139 0 -11039.36250766 0 8470.45028184 0 -5746.53658088 0 8865.05686605 0 105
0.01150000 0.01145670 73742.23690843 0 -2482.37093504 0 6356.75454628 0 -6008.61850933 0 11233.09497501 0 144
0.01250000 0.01249090 76409.44923399 0 -3376.16221138 0 11643.76750254 0 -6290.08807855 0 4419.42987276 0 169
0.01350000 0.01339930 70771.64288283 0 -3106.69504227 0 13650.40492942 0 -7280.16429151 0 -4039.20623849 0 180
0.01450000 0.01448870 84993.60121939 0 -5734.33487893 0 14568.63282663 0 6424.86041624 0 -7427.41513927 0 267
0.01550000 0.01550050 92843.10445307 0 -4822.36284524 0 11906.73521698 0 9963.65293456 0 1233.71164827 0 238
0.01650000 0.01653350 93689.03006922 0 1338.81015545 0 13353.66662428 0 -1761.77296352 0 -6637.31618486 0 315
0.01750000 0.01747870 84787.43453127 0 5901.05087372 0 17908.37816168 0 3008.91534179 0 -13331.07908165 0 297
0.01850000 0.01844180 83617.75413742 0 11862.66736420 0 26665.36913750 0 -10865.60451428 0 -3691.86740893 0 388
0.01950000 0.01947590 69148.44006442 0 13185.81018003 0 31390.92664685 0 -7436.17334820 0 16462.99687985 0 399
0.02050000 0.02045430 67224.07001094 0 479.95206391 0 29542.18057188 0 -7086.26573928 0 6982.82808083 0 462
0.02150000 0.02154770 74375.13099506 0 -5655.59957714 0 44876.24321322 0 14007.93029781 0 -159.27096359 0 571
0.02250000 0.02255340 73574.49118742 0 -1980.08599197 0 34067.66117176 0 792.01778830 0 -4565.68421129 0 510
0.02350000 0.02348930 76102.74583651 0 6405.93781313 0 35454.46985529 0 5980.56123824 0 -3443.39336768 0 555
0.02450000 0.02439640 69628.42534531 0 4455.00525241 0 29792.08294304 0 6995.12943370 0 7809.07817577 0 592
0.02550000 0.02547300 62710.87969161 0 4055.56006225 0 25360.49565762 0 14066.17072636 0 1324.52685643 0 837
0.02650000 0.02652900 59534.89404063 0 2752.30314180 0 15328.52647893 0 12747.23539396 0 -350.30621261 0 723
0.02750000 0.02749970 59378.22064444 0 1955.07361020 0 16417.15745510 0 11170.31489329 0 -692.53516427 0 826
0.02850000 0.02848090 54572.61022665 0 2097.37512877 0 11058.07473660 0 -7458.49515504 0 9143.40403967 0 831
0.02950000 0.02946900 55142.17061533 0 3088.93503326 0 12938.78661333 0 5304.15291507 0 10939.14689573 0 996
0.03050000 0.03053250 54650.22722363 0 -1716.84146940 0 11980.69834677 0 3702.50791308 0 22446.92410484 0 1041
0.03150000 0.03150510 57018.81894884 0 -2121.97783452 0 17216.91147675 0 6018.22928728 0 16286.94691524 0 1036
0.03250000 0.03246190 57924.31367251 0 -334.55140163 0 16820.63297149 0 4979.93309973 0 17140.51243551 0 1059
0.03350000 0.03345080 57879.80292674 0 4671.77922771 0 24250.49509455 0 -3474.92734876 0 14495.88765257 0 1302
0.03450000 0.03451200 52922.61238218 0 4957.47842500 0 21680.71922739 0 -4068.07178929 0 13496.05672145 0 1339
0.03550000 0.03553350 51197.54417544 0 1148.45474716 0 28452.33163998 0 2483.64425240 0 13463.61480973 0 1365
0.03650000 0.03647120 48182.99302031 0 2059.02059560 0 24282.49411328 0 -1098.13656703 0 5346.08380916 0 1308
0.03750000 0.03744890 48719.00426478 0 568.06894652 0 24290.13401740 0 -979.61729493 0 2748.12887534 0 1579
0.03850000 0.03847530 48780.01277453 0 1263.59585295 0 23527.02939090 0 649.49039430 0 -5973.02098504 0 1662
0.03950000 0.03950240 47325.33073986 0 1671.13491255 0 24817.06595552 0 -4111.28707306 0 -475.92616661 0 1683
0.04050000 0.04050350 47341.27488760 0 193.02051687 0 24726.93723150 0 1706.98710032 0 -6149.31454081 0 1822
0.04150000 0.04152450 46565.87998055 0 945.95521302 0 25417.51813044 0 2011.16600773 0 -7379.79307023 0 1887
0.04250000 0.04250150 45462.85498211 0 733.20934949 0 23927.40465634 0 3126.55879299 0 -6036.76435902 0 1920
0.04350000 0.04349210 44233.82692724 0 573.28401151 0 26866.11038646 0 1670.95775536 0 -8680.44799435 0 2005
0.04450000 0.04448520 43548.22857447 0 2896.19907514 0 25510.85782866 0 1196.84080662 0 -7322.68201881 0 2151
0.04550000 0.04548030 42575.19266941 0 2002.68460692 0 27326.49765242 0 -749.52442011 0 -7038.74332116 0 2274
0.04650000 0.04648670 38880.80077042 0 1143.14003125 0 22870.77269890 0 970.55127537 0 -2346.52458184 0 2311
0.04750000 0.04749250 41064.15250141 0 214.69902163 0 22953.04007230 0 2023.23484179 0 -3315.00976140 0 2568
0.04850000 0.04851840 41529.41159029 0 -1953.11380871 0 24749.63549738 0 4263.73084116 0 -3057.96574074 0 2493
0.04950000 0.04949480 41863.24218357 0 384.32482339 0 22691.40103684 0 5626.59008612 0 -2139.42781843 0 2644
0.05050000 0.05050630 39601.49839287 0 2372.05736287 0 18884.51431769 0 2192.58604989 0 -4202.55624654 0 2829
0.05150000 0.05149060 37889.27408291 0 3061.59746328 0 15816.26238720 0 2688.77014199 0 -2427.80651833 0 2784
0.05250000 0.05249300 36348.00646816 0 476.10221657 0 16308.75939513 0 4761.55363734 0 770.02372228 0 3055
0.05350000 0.05348950 35365.44836375 0 -1013.30373596 0 13706.87378600 0 3848.17541840 0 -17.40414449 0 3009
0.05450000 0.05448610 36057.69011141 0 -87.59659406 0 11456.09159686 0 2792.83892296 0 -5404.81142000 0 3336
0.05550000 0.05550870 36040.19583820 0 722.78918460 0 10560.28515741 0 855.31384036 0 -948.90930928 0 3349
0.05650000 0.05647670 34643.86495532 0 607.08006855 0 9370.58600029 0 -2981.65527809 0 -2854.47855522 0 3324
0.05750000 0.05747970 35097.71954963 0 583.94444584 0 12777.46284072 0 -2887.35228761 0 -2358.60448822 0 3639
0.05850000 0.05849280 34285.45380094 0 1090.96502224 0 12924.72476081 0 -1675.85172293 0 -3254.05661328 0 3846
0.05950000 0.05951020 33156.63028568 0 1330.62770741 0 13919.68386901 0 -186.74915209 0 -3079.02530254 0 3787
0.06050000 0.06049470 32391.64336396 0 1020.45202887 0 11790.25435989 0 869.54620668 0 -3057.71107727 0 3930
0.06150000 0.06148310 31925.38776584 0 901.95490142 0 13275.38528781 0 2555.08289213 0 -2334.46682011 0 4083
0.06250000 0.06249100 31275.44229899 0 118.40190545 0 11961.76467133 0 1385.86753593 0 -1813.71323924 0 4303
0.06350000 0.06350600 31583.58509869 0 264.26871261 0 11924.78310643 0 1273.01840137 0 -196.94122708 0 4470
0.06450000 0.06451750 31451.71371010 0 150.44632071 0 12457.91554645 0 2478.41811508 0 390.68808846 0 4479
0.06550000 0.06550280 31238.79290384 0 326.53503846 0 12826.29179317 0 1031.56753575 0 2386.84998883 0 4636
0.06650000 0.06648880 30680.41556324 0 949.05878567 0 14274.66260270 0 564.53133874 0 2355.18313985 0 4653
0.06750000 0.06749660 30414.56904434 0 1079.03016332 0 13781.16908553 0 1151.85395088 0 4219.19795074 0 5220
0.06850000 0.06852730 29768.05599818 0 362.15913633 0 13590.61437540 0 660.01242458 0 3594.59703540 0 5029
0.06950000 0.06949320 29850.10192508 0 -112.65979780 0 12542.72955456 0 2018.89449046 0 6335.94964795 0 5040
0.07050000 0.07048030 30202.64474731 0 -851.07203272 0 11440.92251186 0 1707.10889589 0 4580.51005423 0 5475
0.07150000 0.07148790 30233.97942655 0 -87.44268875 0 10668.04102254 0 1283.89142435 0 5429.05981135 0 5509
0.07250000 0.07249820 30217.26021607 0 955.04669893 0 9989.13035396 0 1355.29684710 0 3198.67284453 0 5916
0.07350000 0.07351270 28843.62759907 0 967.50306435 0 10052.03223126 0 -129.18856429 0 4660.09792502 0 5721
0.07450000 0.07449140 28825.46898637 0 385.87273439 0 10054.04739437 0 422.92294770 0 2609.95733393 0 6028
0.07550000 0.07549160 27842.24654247 0 978.92084570 0 10713.45969895 0 368.34635144 0 3529.67999499 0 6183
0.07650000 0.07648840 27231.49710548 0 816.70575095 0 10092.87803751 0 38.84260125 0 2861.13302244 0 6330
0.07750000 0.07749960 26848.06249701 0 348.92770817 0 9362.76893897 0 -329.03074047 0 1478.38788211 0 6583
0.07850000 0.07848650 25975.34185480 0 708.60110758 0 9739.92553927 0 560.65934675 0 1519.45513486 0 6549
0.07950000 0.07947320 25573.97008012 0 422.45015943 0 9195.17823052 0 677.58641853 0 -2497.37393517 0 6828
0.08050000 0.08048110 24863.90188950 0 795.46460302 0 9300.08850817 0 133.12920469 0 -1025.01714839 0 7147
0.08150000 0.08149960 24080.20273884 0 1511.29483147 0 8975.01612382 0 -456.46101958 0 -1759.90174062 0 7386
0.08250000 0.08250610 22885.83106065 0 1157.48976422 0 9504.20681621 0 292.52196385 0 -983.02535651 0 7227
0.08350000 0.08350160 22407.61735174 0 191.56450615 0 8659.46593882 0 567.00932503 0 -1046.22840104 0 7798
0.08450000 0.08449610 22435.18744053 0 63.41419376 0 9564.14131045 0 815.18662798 0 488.59954960 0 7371
0.08550000 0.08548940 21818.90184113 0 66.95257661 0 8793.92825141 0 1060.76193460 0 82.37256049 0 8256
0.08650000 0.08650700 22611.45885165 0 402.04054309 0 9425.50473139 0 748.68403066 0 -253.46544528 0 8037
0.08750000 0.08749060 21317.87914308 0 470.60480730 0 7818.52286884 0 -31.49711024 0 686.28926584 0 8155
0.08850000 0.08849210 21099.53289766 0 1005.86424092 0 8444.82892221 0 639.38579067 0 1258.46936656 0 8718
0.08950000 0.08949900 20574.15108502 0 149.95249502 0 7425.20067431 0 1064.85205139 0 2037.30776663 0 8571
0.09050000 0.09049190 20803.56965526 0 3.94229018 0 8387.42999035 0 1190.20848406 0 319.49636157 0 8932
0.09150000 0.09150830 20439.51161522 0 523.98227079 0 7364.91186567 0 649.39849401 0 1181.27311793 0 9285
0.09250000 0.09250820 19586.27826470 0 742.69833186 0 7464.90603111 0 345.14761648 0 2084.47587036 0 9204
0.09350000 0.09350330 19161.43316140 0 225.07489722 0 6358.75863707 0 693.18953867 0 2698.39199225 0 9349
0.09450000 0.09448040 19311.68460919 0 112.67087012 0 7271.61645675 0 568.48969486 0 1934.64517091 0 9564
0.09550000 0.09549270 18725.40501005 0 508.20531515 0 7086.76399390 0 28.84008446 0 871.36206795 0 10155
0.09650000 0.09649430 18207.77382477 0 774.04851235 0 7028.71179488 0 -197.02648399 0 1598.15721967 0 9913
0.09750000 0.09749140 17712.50873564 0 400.25346987 0 6424.63896975 0 -70.66003385 0 1177.63032306 0 10476
0.09850000 0.09850240 17249.90700471 0 209.98442572 0 6690.34154842 0 -214.67134082 0 1224.56590797 0 10575
0.09950000 0.09950330 17212.37182358 0 352.09328584 0 6818.38191262 0 708.74061887 0 731.72344350 0 10882
0.10050000 0.10051200 17026.68893637 0 311.35709560 0 6722.21877157 0 548.99575979 0 1233.08052575 0 10875
0.10150000 0.10150300 16314.18483429 0 198.38948717 0 6380.75934649 0 552.15247959 0 1710.81812470 0 11118
0.10250000 0.10250800 16958.70486198 0 -202.77966396 0 6252.22072767 0 725.26495643 0 1323.08745420 0 11575
0.10350000 0.10349800 16616.90219483 0 -257.76704348 0 6432.85463476 0 280.12760345 0 1630.97559044 0 11364
0.10450000 0.10450100 17061.67748280 0 310.44584327 0 6116.00898775 0 347.00112365 0 2329.82751601 0 12093
0.10550000 0.10551000 16691.52966411 0 121.42243566 0 5741.47652844 0 633.59496479 0 2124.63519248 0 12067
0.10650000 0.10649700 16727.18255003 0 26.58609129 0 5358.92770595 0 1030.53891678 0 1441.24023234 0 12054
0.10750000 0.10749900 16308.75939513 0 268.52048534 0 4838.48415018 0 790.09341825 0 1766.73336504 0 12807
0.10850000 0.10850100 16129.49845631 0 383.84871342 0 4548.20101040 0 583.88908422 0 904.98650396 0 12736
0.10950000 0.10950300 15688.70920528 0 372.21723620 0 4287.90172624 0 326.07664421 0 1927.10491771 0 12933
0.11050000 0.11050200 15407.02926190 0 455.16112864 0 4425.22069864 0 -576.55034733 0 1423.79024843 0 13428
0.11150000 0.11150900 14915.86093294 0 463.18634967 0 4801.38078971 0 52.34928740 0 1695.54938878 0 13453
0.11250000 0.11250000 14943.65246824 0 197.74618510 0 5455.33443815 0 -798.73536777 0 1574.88319290 0 13668
0.11350000 0.11349100 14666.95507102 0 264.10262774 0 5656.25284431 0 -356.69937296 0 1208.07921631 0 13791
0.11450000 0.11448600 14657.43287168 0 300.80295558 0 5776.95225715 0 -190.15942813 0 928.88168815 0 14205
0.11550000 0.11549300 14436.76143804 0 58.24928641 0 5530.75911481 0 37.43564094 0 808.76357236 0 14776
0.11650000 0.11649800 14355.82274362 0 -118.87247925 0 5323.98344882 0 599.00723653 0 9.03412019 0 14553
0.11750000 0.11747300 14332.34941500 0 -130.15074931 0 4671.74601073 0 661.95561759 0 -758.88607075 0 14568
0.11850000 0.11849100 14586.68071608 0 50.55047751 0 4133.78603709 0 276.62321264 0 -1653.23096332 0 16015
0.11950000 0.11950300 14207.23214455 0 101.22341494 0 3651.96275028 0 175.45427354 0 -1202.35482438 0 15270
0.12050000 0.12050700 14061.40962669 0 404.30372629 0 3580.78984635 0 -188.44764672 0 -1633.96511814 0 15999
0.12150000 0.12150000 13893.88535218 0 291.89194857 0 3392.08421447 0 330.22765879 0 -1244.45180334 0 15670
0.12250000 0.12250700 13634.23933518 0 49.03190816 0 3790.36681052 0 353.77406475 0 -947.28499923 0 16887
0.12350000 0.12352200 13745.73764611 0 214.22180443 0 3618.72363118 0 389.38487583 0 -410.69135048 0 16407
0.12450000 0.12449800 13486.42379886 0 81.11629451 0 3914.62043963 0 603.86245096 0 15.22289650 0 16306
0.12550000 0.12549900 13631.02836099 0 74.04130040 0 3914.65365661 0 231.07831173 0 156.87491250 0 17523
0.12650000 0.12650100 13498.93552590 0 -58.70745921 0 3541.04020025 0 -236.13947141 0 530.81610967 0 17154
0.12750000 0.12750600 13459.29660305 0 316.17909306 0 4326.43341661 0 96.31062442 0 1127.68306580 0 18007
0.12850000 0.12850300 13104.20714612 0 509.35240800 0 3802.24741505 0 -406.54697930 0 608.03671742 0 17496
0.12950000 0.12949900 12902.58011117 0 240.18308443 0 4108.14253281 0 210.81152838 0 638.29627391 0 18405
0.13050000 0.13049000 12556.90213033 0 310.55213758 0 4440.40085597 0 -107.63805560 0 486.68514464 0 18100
0.13150000 0.13148800 12279.54039362 0 413.15272828 0 4062.10380622 0 -91.75580216 0 53.72624172 0 19059
0.13250000 0.13249300 12193.39770653 0 42.62911489 0 3926.99929878 0 581.58271896 0 193.92291134 0 18957
0.13350000 0.13349100 11951.13523950 0 56.35193283 0 3744.69347064 0 52.83879488 0 -105.21620599 0 19468
0.13450000 0.13450700 12050.12182338 0 21.59800896 0 3500.53763606 0 433.14159628 0 -60.96278105 0 19953
0.13550000 0.13551000 12111.35177963 0 7.62268666 0 3473.17792144 0 71.38726414 0 160.08810116 0 19956
0.13650000 0.13649900 11976.15869359 0 140.90751287 0 3285.55737739 0 -30.84284657 0 -467.33072085 0 19723
0.13750000 0.13749600 11781.28577678 0 38.74892938 0 3474.15228602 0 -244.57990462 0 -412.78512710 0 20946
0.13850000 0.13851100 11779.18203507 0 201.91934432 0 3634.64563427 0 -283.65856783 0 -939.64398787 0 20955
0.13950000 0.13949800 11499.38438690 0 212.83001320 0 3560.68250448 0 29.11833198 0 -527.04930476 0 20506
0.14050000 0.14048300 11505.80633530 0 93.88656034 0 3814.99166091 0 -66.31392491 0 -459.15270174 0 21447
0.14150000 0.14148400 11506.91356778 0 235.04331125 0 3488.73453781 0 384.69463903 0 -247.00031482 0 21771
0.14250000 0.14249400 11201.31740278 0 332.65692685 0 3391.06556058 0 164.82594895 0 -279.40125894 0 22470
0.14350000 0.14350900 10954.94710324 0 187.16214980 0 3217.72831555 0 267.85171692 0 163.71650200 0 22519
0.14450000 0.14449900 11004.67291400 0 133.88101554 0 3429.18757493 0 49.23995715 0 -7.26629067 0 22218
0.14550000 0.14550500 10723.52444221 0 205.26982981 0 3242.31994897 0 247.68901343 0 462.94054406 0 23559
0.14650000 0.14650700 10724.06698613 0 132.11719420 0 3496.13085079 0 285.76230955 0 239.59071505 0 23044
0.14750000 0.14750500 10345.54848988 0 204.20577940 0 3102.66471603 0 245.11691237 0 643.67078038 0 23649
0.14850000 0.14849900 10533.02509370 0 85.16987263 0 3139.08159236 0 184.41842771 0 364.00932181 0 23640
0.14950000 0.14949500 10183.28356966 0 89.12313548 0 3013.59893519 0 288.92013659 0 377.10677484 0 24457
0.15050000 0.15050000 10275.94785607 0 21.84658265 0 2980.30445446 0 11.58209465 0 175.72111657 0 24591
0.15150000 0.15149900 10171.18151863 0 11.93175867 0 3033.63984311 0 -226.02047376 0 -408.33405252 0 25020
0.15250000 0.15250500 10060.41398115 0 239.15335822 0 3298.76666089 0 -396.14342290 0 -296.93317806 0 25297
0.15350000 0.15350100 10018.30592986 0 234.61038335 0 3383.73568155 0 -313.41876248 0 -510.00013901 0 25452
0.15450000 0.15450400 9801.68696711 0 217.27112268 0 3323.57974081 0 -123.86941944 0 -469.81313608 0 26061
0.15550000 0.15549900 9601.57684066 0 136.83068288 0 3320.70093636 0 184.22355480 0 -358.98912974 0 26128
0.15650000 0.15649500 9467.59063803 0 110.19078009 0 3231.09261160 0 631.04168669 0 -577.86352505 0 26331
0.15750000 0.15749700 9391.86700860 0 64.05517065 0 3067.05611941 0 553.15895392 0 -233.04697109 0 27345
0.15850000 0.15849900 9380.90540703 0 61.25199017 0 3026.18816851 0 584.69182777 0 -328.57677516 0 26980
0.15950000 0.15949700 9191.94511167 0 264.67949586 0 2562.54563905 0 312.55290668 0 -25.42615454 0 27777
0.16050000 0.16050000 8914.72731519 0 355.94313318 0 2600.01438624 0 -58.88361989 0 381.10166963 0 28224
0.16150000 0.16150500 8831.96168717 0 188.16530243 0 2428.99125709 0 -133.83672625 0 264.42483239 0 28075
0.16250000 0.16249700 8744.11386206 0 -12.36878333 0 2541.79610234 0 -39.54613677 0 584.02970274 0 28590
0.16350000 0.16349900 8696.66895021 0 -39.03636693 0 2445.66617827 0 48.00207123 0 177.51594042 0 29163
0.16450000 0.16449100 8738.72163987 0 29.68457067 0 2478.46240438 0 156.27036356 0 258.01395632 0 28996
0.16550000 0.16550500 8723.77400136 0 106.26453371 0 2459.84982636 0 209.95010151 0 60.64832702 0 30777
0.16650000 0.16650700 8506.24710798 0 141.69032624 0 2416.44631307 0 257.78365196 0 389.72479620 0 29211
0.16750000 0.16749900 8469.13267518 0 174.45665708 0 2270.38020406 0 193.18770897 0 245.08369540 0 30922
0.16850000 0.16850800 8287.73477768 0 180.51211152 0 2393.29408188 0 56.19049833 0 80.17891150 0 30867
0.16950000 0.16949900 8085.59841579 0 178.96198604 0 2310.65024943 0 -101.22784387 0 370.08249197 0 30852
0.17050000 0.17049200 8054.31909818 0 108.92831361 0 2239.24482667 0 -106.59913936 0 313.05780469 0 31257
0.17150000 0.17149500 8008.06999741 0 -67.56399038 0 2207.36760352 0 23.48750119 0 177.80492810 0 32608
0.17250000 0.17250900 8047.94143908 0 0.55405470 0 2261.22339144 0 -5.46660606 0 -214.31924089 0 32361
0.17350000 0.17350400 8136.18786789 0 72.61673509 0 2344.17724898 0 -105.35317065 0 -492.97865406 0 32508
0.17450000 0.17449800 8005.16904831 0 161.13775755 0 2328.50990936 0 -334.39749631 0 -425.51276448 0 32791
0.17550000 0.17549800 8025.39818575 0 201.23950358 0 2434.83744459 0 -257.02409048 0 -369.86215271 0 33633
0.17650000 0.17650100 7740.81729326 0 54.57393891 0 2375.56728984 0 -22.94174630 0 -414.42161671 0 33984
0.17750000 0.17750300 7898.84151307 0 24.42909169 0 2355.52638192 0 358.25171290 0 -396.94173752 0 34069
0.17850000 0.17849800 7783.08035710 0 18.35846817 0 2363.65346834 0 224.27547536 0 -412.21047344 0 34536
