### header ###
fiducial parameters:
Omega_m = 0.31
Omega_nu = 0
Omega_de = 0.69
Omega_k = 0
H_0 = 100
w_de = -1
zeff = 0
beta = 0
fgrowth = 0
b_1 = 2
gamma = 0.55
Lx = 3500 Ly = 3500 Lz = 3500
nx = 700 ny = 700 nz = 700
xoffset = -685.467585 yoffset = -31.7331281 zoffset = 572.489161
bins = 400 dk = 0.001
kx_ny = 0.628318531 ky_ny = 0.628318531 kz_ny = 0.628318531
############################
A(data) = 7.98888484 (not used)
A(ran) = 7.98685784 (used)
Ngal = 474763
weighted Ngal = 0
Nran = 23820508
weighted Nran = 0
SN(data) = 3488.23533
SN(ran) = 69.5684283
SN(data+ran) = 3557.80376
############################
13 columns: k_central k_mean P_0(k) sigma^{lin}_{P_0(k)} P^img_1(k) sigma^{lin}_{P_1(k)} P_2(k) sigma^{lin}_{P_2(k)} P^img_3(k) sigma^{lin}_{P_3(k)} P_4(k) sigma^{lin}_{P_4(k)} N_modes
### header ###
0.00050000 0 0 0 0 0 0 0 0 0 0 0 0
0.00150000 0.00179520 74594.03085672 0 -43433.51928935 0 66829.89524739 0 -19213.80525780 0 -77742.77858865 0 3
0.00250000 0.00253879 118375.33186863 0 -17038.64704717 0 28669.90282267 0 -8153.53820088 0 79686.41448732 0 6
0.00350000 0.00331552 97715.37026627 0 24399.52858661 0 30268.19291024 0 -55705.97339509 0 57739.29512479 0 7
0.00450000 0.00420575 69350.06709936 0 42168.83834857 0 14422.81030877 0 -6450.58142680 0 57389.07749077 0 24
0.00550000 0.00557378 43170.10868192 0 14589.11662754 0 41783.07855188 0 22450.13507904 0 11331.52794265 0 45
0.00650000 0.00659388 48154.98003852 0 3570.13826987 0 55587.83168928 0 44918.65021728 0 27181.45019729 0 40
0.00750000 0.00754703 41338.52471042 0 -7898.62006658 0 50482.93633164 0 38225.87275740 0 15147.60469140 0 57
0.00850000 0.00846663 52130.27681816 0 -6652.26382337 0 46016.80339279 0 32456.85935714 0 8218.65454314 0 75
0.00950000 0.00948925 57163.75568071 0 -2781.89946604 0 35186.96248767 0 21007.52187842 0 7920.36611252 0 112
0.01050000 0.01054430 58586.43869666 0 -8508.73838106 0 33186.85773243 0 14668.72664299 0 21249.56289895 0 105
0.01150000 0.01145670 72625.70367371 0 -12323.71896965 0 33154.30509747 0 4515.15012082 0 7252.46133481 0 144
0.01250000 0.01249090 75671.58950807 0 714.59123531 0 44565.00016257 0 -852.84249746 0 5465.48776001 0 169
0.01350000 0.01339930 69673.93260031 0 11517.65372285 0 35002.38683295 0 8019.16446688 0 10740.08864014 0 180
0.01450000 0.01448870 69594.76547786 0 6772.65321112 0 25749.68787500 0 547.55082140 0 13697.79447964 0 267
0.01550000 0.01550050 60977.28579475 0 -6943.14486868 0 30154.59085760 0 6824.03987060 0 6821.41572962 0 238
0.01650000 0.01653350 77765.47685453 0 -5004.91226452 0 40264.95209600 0 12030.30236196 0 -11380.91051134 0 315
0.01750000 0.01747870 69379.51948338 0 2300.35298735 0 38580.18715159 0 -3236.69520796 0 -2614.46377013 0 297
0.01850000 0.01844180 75599.50867351 0 4384.24202449 0 23197.07411130 0 9423.41206200 0 2919.94921187 0 388
0.01950000 0.01947590 71184.97276831 0 2270.85631403 0 25084.79476964 0 6722.52879667 0 10008.20796963 0 399
0.02050000 0.02045430 67664.63781547 0 -2224.49649001 0 11196.55630311 0 3030.58388146 0 4209.81969162 0 462
0.02150000 0.02154770 66836.87081203 0 658.82768582 0 15510.66622220 0 14103.92735399 0 -4578.00770882 0 571
0.02250000 0.02255340 62087.72925081 0 2421.61708876 0 4459.04665097 0 -4099.43968551 0 -9276.88091535 0 510
0.02350000 0.02348930 62469.94590355 0 2027.43125289 0 8697.69867642 0 -7869.18982721 0 -13049.06696852 0 555
0.02450000 0.02439640 58721.18888971 0 1243.32242621 0 7904.87593010 0 -4592.36851411 0 -13413.45717830 0 592
0.02550000 0.02547300 60811.75453871 0 -2898.28067220 0 6034.36166454 0 -5414.72115071 0 -16382.27963192 0 837
0.02650000 0.02652900 64430.74390569 0 -243.11060711 0 13575.00239740 0 -4946.84899318 0 -24815.40510680 0 723
0.02750000 0.02749970 64748.74107448 0 3760.22794236 0 18350.60681494 0 -8665.88788721 0 -23338.13552949 0 826
0.02850000 0.02848090 60989.57607530 0 7688.20160572 0 18262.13893963 0 -1569.13665632 0 -9903.68522334 0 831
0.02950000 0.02946900 56483.13987411 0 3378.57597819 0 15186.02565852 0 -71.84466188 0 -4297.25784072 0 996
0.03050000 0.03053250 58891.48124542 0 -3489.55388984 0 18489.23232166 0 10693.98347959 0 -14063.07047541 0 1041
0.03150000 0.03150510 59722.45922306 0 -5187.94886610 0 19180.14539035 0 -616.87243262 0 -14423.80681800 0 1036
0.03250000 0.03246190 62721.73056993 0 5866.66023283 0 21130.20323741 0 -1766.36797832 0 -12061.08342495 0 1059
0.03350000 0.03345080 58299.66548386 0 4477.07239577 0 21188.44366595 0 -5451.17124402 0 1640.73030860 0 1302
0.03450000 0.03451200 58129.04095840 0 918.75715434 0 29004.39775544 0 -2882.83477908 0 3068.03048400 0 1339
0.03550000 0.03553350 58079.76911296 0 -458.75188358 0 24663.93570328 0 4197.02008413 0 8579.49053665 0 1365
0.03650000 0.03647120 59045.71873014 0 -518.22355465 0 23985.86653139 0 8612.79608971 0 -3762.04380363 0 1308
0.03750000 0.03744890 58514.80075509 0 -1056.25549840 0 23236.04869467 0 7466.27899938 0 2792.39602996 0 1579
0.03850000 0.03847530 59256.09290169 0 1896.03597427 0 20038.91490328 0 6304.62604104 0 -626.44556466 0 1662
0.03950000 0.03950240 53837.51858194 0 4595.41340343 0 19137.07404680 0 409.82881637 0 1404.62405417 0 1683
0.04050000 0.04050350 52851.74950334 0 4857.69463374 0 20547.79895195 0 -1043.60204560 0 5704.80498864 0 1822
0.04150000 0.04152450 47598.04210014 0 3282.18031832 0 22807.66044743 0 -1002.90460849 0 6254.83379633 0 1887
0.04250000 0.04250150 46689.55784877 0 2952.43541289 0 25352.85575350 0 2354.36378781 0 10177.04985079 0 1920
0.04350000 0.04349210 44526.91136519 0 1707.25283611 0 24513.13063925 0 4406.17629996 0 6495.88937995 0 2005
0.04450000 0.04448520 43023.40037807 0 1098.13767426 0 26486.32964518 0 2490.11049009 0 10087.06506698 0 2151
0.04550000 0.04548030 42004.41432501 0 1906.90899724 0 24005.24309982 0 3088.68036979 0 6637.20546161 0 2274
0.04650000 0.04648670 40482.85544843 0 543.74969229 0 21714.37909484 0 3074.26420287 0 7535.09349813 0 2311
0.04750000 0.04749250 39120.62732599 0 60.07998459 0 18881.74623649 0 3045.49830299 0 2170.78464232 0 2568
0.04850000 0.04851840 38905.71350126 0 1684.68743813 0 19629.12816174 0 -768.94195615 0 -406.87250565 0 2493
0.04950000 0.04949480 38057.90558990 0 1371.68388783 0 17907.04948270 0 -771.36015189 0 1339.70701376 0 2644
0.05050000 0.05050630 35414.72020919 0 1550.38013808 0 18482.14603378 0 420.36856237 0 814.28201905 0 2829
0.05150000 0.05149060 36405.58255721 0 100.06059939 0 17456.95947882 0 850.37226179 0 1533.50591506 0 2784
0.05250000 0.05249300 35826.72141569 0 -1016.34198189 0 19529.80940812 0 5904.71581324 0 1384.73815879 0 3055
0.05350000 0.05348950 37251.72961985 0 290.76921483 0 22136.56684018 0 1199.24350111 0 6425.80156385 0 3009
0.05450000 0.05448610 35959.25714377 0 475.73793709 0 17918.12180752 0 2319.89564065 0 3881.44775448 0 3336
0.05550000 0.05550870 36144.38641474 0 973.86743666 0 20434.97196205 0 245.34278780 0 5662.19868273 0 3349
0.05650000 0.05647670 35049.77638317 0 520.46902212 0 17459.61683678 0 403.13338155 0 4061.38410510 0 3324
0.05750000 0.05747970 35427.78555248 0 189.40761728 0 17950.34227274 0 409.69151954 0 3394.94087427 0 3639
0.05850000 0.05849280 35468.31026131 0 301.96222799 0 16638.93612122 0 -42.12532411 0 3090.48515873 0 3846
0.05950000 0.05951020 35283.95605308 0 227.88505325 0 17065.44207324 0 721.72845589 0 -1388.83491898 0 3787
0.06050000 0.06049470 34631.90684451 0 813.24343498 0 14653.66828124 0 550.79611980 0 -1729.05424368 0 3930
0.06150000 0.06148310 34815.37526676 0 305.36475341 0 14901.90980367 0 1136.89524005 0 -3653.25821229 0 4083
0.06250000 0.06249100 33622.66443729 0 -28.15658984 0 15445.45022902 0 1560.53345994 0 -3699.41873446 0 4303
0.06350000 0.06350600 34201.30413232 0 1373.74334025 0 14876.00056360 0 -29.02333143 0 -2807.03364337 0 4470
0.06450000 0.06451750 33009.36836559 0 1111.37353135 0 15014.07245408 0 584.45155832 0 -3154.44997921 0 4479
0.06550000 0.06550280 32368.72365158 0 930.60232743 0 15011.08292638 0 2139.95929002 0 1151.80966158 0 4636
0.06650000 0.06648880 31218.30910293 0 592.07263949 0 14106.91688169 0 500.75142609 0 534.30942815 0 4653
0.06750000 0.06749660 31224.28815833 0 93.57476368 0 14573.39392630 0 3401.47354591 0 554.19975245 0 5220
0.06850000 0.06852730 31476.62644094 0 -478.31889600 0 14082.00415085 0 2285.16175770 0 531.50480827 0 5029
0.06950000 0.06949320 30579.32523764 0 15.17129947 0 12222.51792081 0 1453.40871732 0 2102.62341074 0 5040
0.07050000 0.07048030 30613.09582834 0 1719.53204434 0 11798.33715700 0 454.59865454 0 412.64783027 0 5475
0.07150000 0.07148790 29260.83279824 0 1837.60731620 0 12811.12270817 0 -744.21413313 0 3831.78837766 0 5509
0.07250000 0.07249820 27436.66728436 0 1362.60458148 0 11750.39399054 0 594.72556852 0 2658.86379265 0 5916
0.07350000 0.07351270 26954.91043151 0 425.36439533 0 12229.49348544 0 825.76734158 0 3493.48456516 0 5721
0.07450000 0.07449140 27335.46623552 0 -326.56714820 0 12302.12793625 0 1663.92682910 0 -87.01452195 0 6028
0.07550000 0.07549160 26939.40917676 0 -423.88402550 0 12528.00336255 0 1278.36633426 0 1382.18045176 0 6183
0.07650000 0.07648840 27335.13406578 0 516.32797264 0 12544.94401953 0 -725.95144057 0 1987.24978613 0 6330
0.07750000 0.07749960 26989.01319195 0 1033.46090330 0 12323.94041615 0 -574.67469550 0 587.98805887 0 6583
0.07850000 0.07848650 25763.19611127 0 591.50462923 0 11423.87113164 0 814.31302155 0 2541.79610234 0 6549
0.07950000 0.07947320 25087.00923460 0 972.53875768 0 10927.65382257 0 -165.21569478 0 875.99472865 0 6828
0.08050000 0.08048110 24983.81516729 0 -138.83588090 0 10716.24992480 0 446.05746318 0 -776.14893237 0 7147
0.08150000 0.08149960 24650.20602050 0 170.48833586 0 10128.95167177 0 752.60363364 0 -1313.07807257 0 7386
0.08250000 0.08250610 24595.73018240 0 373.19824417 0 9744.79736219 0 1178.46074742 0 -1289.15077863 0 7227
0.08350000 0.08350160 23542.75209214 0 510.71541119 0 9250.61736088 0 220.14549821 0 173.41696577 0 7798
0.08450000 0.08449610 23586.93066817 0 821.56871601 0 8912.64571812 0 1221.34386145 0 -1337.07180045 0 7371
0.08550000 0.08548940 23236.82375740 0 383.49218456 0 9263.61627022 0 -23.47299645 0 268.07759235 0 8256
0.08650000 0.08650700 22566.94810588 0 698.63158631 0 9769.86510558 0 268.09752253 0 396.28182696 0 8037
0.08750000 0.08749060 21924.08892691 0 219.02497894 0 9414.48776820 0 445.86037580 0 586.18437715 0 8155
0.08850000 0.08849210 21662.89278443 0 -73.96025098 0 9026.66851910 0 1304.57452711 0 807.46478865 0 8718
0.08950000 0.08949900 21505.55504876 0 269.25347324 0 7204.99427831 0 1738.00068213 0 -176.38213436 0 8571
0.09050000 0.09049190 21126.77081671 0 86.70582553 0 6120.77008742 0 2073.19317137 0 -27.90104059 0 8932
0.09150000 0.09150830 21095.10396773 0 381.07398882 0 5548.13159245 0 765.38773988 0 470.15194922 0 9285
0.09250000 0.09250820 20565.95756465 0 909.60587787 0 5738.98525535 0 158.20026978 0 857.19170665 0 9204
0.09350000 0.09350330 19685.48629507 0 651.86983691 0 5254.99179288 0 -399.52823259 0 629.05974055 0 9349
0.09450000 0.09448040 19611.63388853 0 719.35122775 0 6303.28628973 0 -795.26308670 0 1765.16109491 0 9564
0.09550000 0.09549270 19255.76936886 0 621.89262469 0 6826.80795181 0 -149.55610579 0 2514.20386889 0 10155
0.09650000 0.09649430 19000.55228179 0 55.86508270 0 7628.18960521 0 210.62883503 0 1574.15241947 0 9913
0.09750000 0.09749140 18523.55652860 0 128.20312738 0 7502.43013992 0 461.29519659 0 989.79497591 0 10476
0.09850000 0.09850240 18675.80099486 0 701.93556804 0 8803.05184706 0 -155.08451757 0 833.17804858 0 10575
0.09950000 0.09950330 17667.99798987 0 1159.94782033 0 8362.07436651 0 -963.35426424 0 851.89913538 0 10882
0.10050000 0.10051200 17338.59632651 0 407.41062063 0 8397.09612991 0 -715.83022846 0 1658.46817296 0 10875
0.10150000 0.10150300 17268.39778716 0 14.68024186 0 9659.37437621 0 -593.96268534 0 1422.33977388 0 11118
0.10250000 0.10250800 17288.77086483 0 204.15927563 0 10037.80429387 0 -208.39776157 0 312.68909627 0 11575
0.10350000 0.10349800 17046.50839780 0 472.86799049 0 10173.01952455 0 414.77482387 0 1232.93658553 0 11364
0.10450000 0.10450100 16536.73856314 0 671.65497413 0 9285.90486008 0 1097.47776370 0 908.82860067 0 12093
0.10550000 0.10551000 16156.29348238 0 132.45379288 0 9535.87366519 0 1641.66038389 0 2382.39891425 0 12067
0.10650000 0.10649700 15974.81807860 0 -6.95024223 0 8463.61865742 0 1716.46501036 0 1910.18640539 0 12054
0.10750000 0.10749900 15673.09722729 0 34.91026509 0 8103.20341225 0 1876.92514163 0 2217.88631210 0 12807
0.10850000 0.10850100 15674.09373652 0 -137.36879786 0 7245.71828900 0 539.44366516 0 1612.44051869 0 12736
0.10950000 0.10950300 15537.23980177 0 284.34726644 0 7066.23590369 0 -94.76946753 0 1833.52162834 0 12933
0.11050000 0.11050200 15360.52549766 0 258.37712857 0 6562.02437610 0 158.90889856 0 2400.94505832 0 13428
0.11150000 0.11150900 15299.84915765 0 -478.63224280 0 6061.87639171 0 141.19650055 0 1863.63835185 0 13453
0.11250000 0.11250000 15658.26031203 0 -236.47939178 0 6049.64147279 0 915.24169121 0 369.58866628 0 13668
0.11350000 0.11349100 15517.75251008 0 191.93432180 0 5277.38003366 0 335.90001079 0 -606.12341969 0 13791
0.11450000 0.11448600 15374.25518043 0 585.56543420 0 4880.28217637 0 203.78392382 0 -319.70895021 0 14205
0.11550000 0.11549300 14869.35716870 0 338.88510956 0 4862.63289060 0 -94.30819447 0 -660.32466414 0 14776
0.11650000 0.11649800 14428.01430143 0 415.15460461 0 4794.89240736 0 79.65585487 0 -460.48470242 0 14553
0.11750000 0.11747300 14394.68660373 0 424.28373642 0 5154.88690419 0 135.84081704 0 -356.24983657 0 14568
0.11850000 0.11849100 13949.68986927 0 252.78449731 0 4912.61336484 0 -339.60148898 0 -185.65520640 0 16015
0.11950000 0.11950300 13878.60554393 0 37.19072111 0 5046.92066489 0 426.00216124 0 428.64512517 0 15270
0.12050000 0.12050700 13890.45293149 0 69.27400023 0 5002.03346007 0 -94.05629908 0 -618.18228865 0 15999
0.12150000 0.12150000 13706.32016975 0 40.75135933 0 5026.00504330 0 109.19194566 0 -501.82876329 0 15670
0.12250000 0.12250700 13862.32922645 0 228.50953237 0 5080.12656702 0 -339.15748875 0 -890.09533431 0 16887
0.12350000 0.12352200 13514.65822714 0 243.67640291 0 4637.69861191 0 -122.73782785 0 -667.66893719 0 16407
0.12450000 0.12449800 13446.12053652 0 167.42351635 0 5126.45317406 0 543.21047007 0 -737.71910739 0 16306
0.12550000 0.12549900 13603.01537920 0 -188.04350686 0 4434.84254891 0 581.40777623 0 -420.28773440 0 17523
0.12650000 0.12650100 13559.05824967 0 -136.10101667 0 4699.07250838 0 717.21094736 0 -505.86794738 0 17154
0.12750000 0.12750600 13822.46885710 0 85.23863177 0 4309.00557735 0 1006.22187701 0 304.29959576 0 18007
0.12850000 0.12850300 13438.14846265 0 167.06809472 0 3988.81608824 0 182.59592305 0 5.92128001 0 17496
0.12950000 0.12949900 13260.88054230 0 427.84348885 0 4058.88175969 0 180.63058539 0 626.34702097 0 18405
0.13050000 0.13049000 12989.94075399 0 423.99696321 0 3994.55155250 0 -84.60418756 0 223.97098643 0 18100
0.13150000 0.13148800 12443.07863119 0 293.46311146 0 3904.36746685 0 233.07797359 0 617.65192429 0 19059
0.13250000 0.13249300 12227.38974373 0 277.40381154 0 3430.46089229 0 328.61442106 0 494.26415097 0 18957
0.13350000 0.13349100 12035.17418488 0 33.78686701 0 3258.26409671 0 377.86080016 0 -148.16210010 0 19468
0.13450000 0.13450700 12112.79118185 0 -47.52120017 0 3172.07712032 0 -124.05322004 0 -482.66146180 0 19953
0.13550000 0.13551000 11998.74623622 0 226.80439435 0 3182.06435731 0 -210.38856558 0 -324.94062369 0 19956
0.13650000 0.13649900 11933.86241279 0 127.40259829 0 3457.12305045 0 -445.13070959 0 -108.72447211 0 19723
0.13750000 0.13749600 11982.35919549 0 55.67474944 0 3719.02782171 0 -233.48432792 0 46.68092144 0 20946
0.13850000 0.13851100 11966.52577100 0 160.39259009 0 4182.28281980 0 -165.51575478 0 11.85270227 0 20955
0.13950000 0.13949800 11859.89928300 0 251.62854660 0 4089.24207435 0 248.96565248 0 238.30411091 0 20506
0.14050000 0.14048300 11621.29068315 0 110.62016484 0 4077.26181889 0 486.46148367 0 549.33568016 0 21447
0.14150000 0.14148400 11687.50318557 0 -48.91775250 0 3956.19701933 0 458.05764882 0 357.93504441 0 21771
0.14250000 0.14249400 11506.58139803 0 230.73174797 0 3996.78816211 0 497.90030244 0 268.63453029 0 22470
0.14350000 0.14350900 11422.54245266 0 294.02669279 0 3704.76666734 0 162.65023712 0 646.59276690 0 22519
0.14450000 0.14449900 11050.23553063 0 289.77270560 0 3562.59801667 0 -131.99207693 0 529.21172980 0 22218
0.14550000 0.14550500 10769.69603670 0 317.78790185 0 3421.56981546 0 239.62503926 0 485.86800706 0 23559
0.14650000 0.14650700 10444.33577191 0 245.56091260 0 3472.86789634 0 25.91699070 0 238.45801622 0 23044
0.14750000 0.14750500 10343.94300278 0 218.28534764 0 3513.53654540 0 -28.48709874 0 226.92397546 0 23649
0.14850000 0.14849900 10097.69449881 0 201.40337399 0 3597.95194982 0 -25.21976641 0 226.26406490 0 23640
0.14950000 0.14949500 10065.83942031 0 132.40728911 0 3469.20295683 0 261.56817259 0 603.62218151 0 24457
0.15050000 0.15050000 9969.89772575 0 43.77864365 0 3333.99879847 0 233.68252253 0 757.88402535 0 24591
0.15150000 0.15149900 10110.41660003 0 -97.75467702 0 3287.14071983 0 449.04366918 0 697.52546107 0 25020
0.15250000 0.15250500 10067.07952069 0 -43.82747261 0 3240.62588327 0 405.92914357 0 671.32169715 0 25297
0.15350000 0.15350100 10070.88840042 0 176.04885738 0 3035.35605346 0 45.88471056 0 956.77287437 0 25452
0.15450000 0.15450400 9942.88125320 0 258.95288946 0 3367.63652127 0 -93.34169124 0 1134.17144815 0 26061
0.15550000 0.15549900 9825.49246547 0 170.59352295 0 3301.32436793 0 -170.41193682 0 1216.33917063 0 26128
0.15650000 0.15649500 9766.02300887 0 109.38050736 0 3463.46749257 0 -12.50751956 0 758.66130255 0 26331
0.15750000 0.15749700 9713.86128665 0 104.74817882 0 3395.04052519 0 121.12459012 0 1222.78326367 0 27345
0.15850000 0.15849900 9639.93137383 0 -7.76121252 0 3460.48903720 0 22.43618395 0 688.93555147 0 26980
0.15950000 0.15949700 9676.74685385 0 -12.02731283 0 3460.30080767 0 261.31350911 0 954.97251435 0 27777
0.16050000 0.16050000 9630.88528446 0 173.12354917 0 3282.05852274 0 245.95508736 0 772.92799308 0 28224
0.16150000 0.16150500 9401.99818580 0 303.59982483 0 3094.52655729 0 168.27387090 0 945.40491848 0 28075
0.16250000 0.16249700 9142.73970018 0 267.09326267 0 2955.71282104 0 267.81407102 0 1246.24551996 0 28590
0.16350000 0.16349900 8907.22027896 0 74.42827815 0 3060.18020570 0 382.93081769 0 1096.31959852 0 29163
0.16450000 0.16449100 8752.10808057 0 120.16019063 0 2661.02289599 0 362.18792438 0 972.76795480 0 28996
0.16550000 0.16550500 8651.17276753 0 124.29348948 0 2286.75617247 0 345.65140726 0 799.76509398 0 30777
0.16650000 0.16650700 8630.92148543 0 -12.16759919 0 2235.10377719 0 204.01976434 0 754.69408857 0 29211
0.16750000 0.16749900 8645.85805161 0 -16.51669766 0 1837.30836343 0 76.09798474 0 596.64218795 0 30922
0.16850000 0.16850800 8541.88892157 0 113.61312496 0 2033.49888689 0 -269.44723893 0 438.70211780 0 30867
0.16950000 0.16949900 8700.58855319 0 96.39211673 0 2074.66579057 0 -451.52829887 0 179.61525321 0 30852
0.17050000 0.17049200 8465.93277331 0 102.50116122 0 2277.27826243 0 -383.24637895 0 151.25792212 0 31257
0.17150000 0.17149500 8482.18694615 0 251.22994290 0 2566.14414462 0 -243.76055258 0 109.27908486 0 32608
0.17250000 0.17250900 8250.03351167 0 147.84543161 0 2474.50958442 0 84.48161692 0 -87.77186896 0 32361
0.17350000 0.17350400 8241.83999131 0 118.88798051 0 2303.47538295 0 328.44280003 0 -307.27030051 0 32508
0.17450000 0.17449800 8007.98141881 0 186.34279777 0 2166.07890427 0 172.99289573 0 -450.92707163 0 32791
0.17550000 0.17549800 7968.60823176 0 64.07299709 0 1766.30154437 0 309.69735411 0 -519.40054278 0 33633
0.17650000 0.17650100 7787.06639403 0 32.87971144 0 1865.39885150 0 123.52839184 0 -381.71950536 0 33984
0.17750000 0.17750300 7746.87385494 0 71.83370028 0 1537.86841104 0 240.25062561 0 -348.98196256 0 34069
0.17850000 0.17849800 7706.68131585 0 49.86277542 0 1497.85302914 0 429.94833780 0 -326.57600606 0 34536
