### header ###
fiducial parameters:
Omega_m = 0.31
Omega_nu = 0
Omega_de = 0.69
Omega_k = 0
H_0 = 100
w_de = -1
zeff = 0
beta = 0
fgrowth = 0
b_1 = 2
gamma = 0.55
Lx = 3500 Ly = 3500 Lz = 3500
nx = 700 ny = 700 nz = 700
xoffset = -685.467585 yoffset = -31.7331281 zoffset = 572.489161
bins = 400 dk = 0.001
kx_ny = 0.628318531 ky_ny = 0.628318531 kz_ny = 0.628318531
############################
A(data) = 8.0557284 (not used)
A(ran) = 8.05601716 (used)
Ngal = 478911
weighted Ngal = 0
Nran = 23820508
weighted Nran = 0
SN(data) = 3486.89657
SN(ran) = 70.1708311
SN(data+ran) = 3557.0674
############################
13 columns: k_central k_mean P_0(k) sigma^{lin}_{P_0(k)} P^img_1(k) sigma^{lin}_{P_1(k)} P_2(k) sigma^{lin}_{P_2(k)} P^img_3(k) sigma^{lin}_{P_3(k)} P_4(k) sigma^{lin}_{P_4(k)} N_modes
### header ###
0.00050000 0 0 0 0 0 0 0 0 0 0 0 0
0.00150000 0.00179520 63264.82810228 0 -46191.63540168 0 37779.99023695 0 -21322.97241250 0 -69371.76885601 0 3
0.00250000 0.00253879 83022.83812492 0 -7925.35973102 0 41700.03611574 0 -67182.43806962 0 19577.64185134 0 6
0.00350000 0.00331552 72779.83043519 0 39487.12127749 0 35391.91122007 0 -37418.70027812 0 35921.16834640 0 7
0.00450000 0.00420575 50471.97473007 0 42618.26401296 0 49643.43266389 0 -37037.48013461 0 62065.58460118 0 24
0.00550000 0.00557378 55457.17825642 0 -29299.91810485 0 70671.99195946 0 40916.00479534 0 12738.93115035 0 45
0.00650000 0.00659388 83980.26205199 0 -41719.19123768 0 111907.98694206 0 20047.66203989 0 -2996.28181917 0 40
0.00750000 0.00754703 112843.59838923 0 -15205.40222695 0 64853.37454402 0 55064.66434160 0 -49102.77104300 0 57
0.00850000 0.00846663 125982.01901904 0 8569.04933435 0 70965.18712066 0 8135.27993725 0 2378.81148101 0 75
0.00950000 0.00948925 106583.52738327 0 21846.13976018 0 40585.82806924 0 6515.25487606 0 24016.31542464 0 112
0.01050000 0.01054430 96829.58428078 0 11262.87952878 0 52018.99995373 0 26821.59964069 0 -997.94974314 0 105
0.01150000 0.01145670 91053.26314614 0 5682.13993973 0 41250.27828161 0 19851.79261385 0 18544.81539225 0 144
0.01250000 0.01249090 89354.87924221 0 8180.08963579 0 40266.05932848 0 32613.97564632 0 -9719.93999297 0 169
0.01350000 0.01339930 80717.69082092 0 -2889.89892232 0 18695.39900979 0 10863.01359027 0 7187.34499255 0 180
0.01450000 0.01448870 86732.84200190 0 6239.10002276 0 16018.66448488 0 3301.01434283 0 -7043.64836106 0 267
0.01550000 0.01550050 77326.01628248 0 -5109.04747944 0 30081.51351379 0 3442.26399054 0 2372.03521822 0 238
0.01650000 0.01653350 86115.89206301 0 -3105.22242306 0 17957.76073037 0 -911.34976903 0 -17210.93242135 0 315
0.01750000 0.01747870 78610.51668469 0 8824.53215721 0 20393.56146722 0 526.72267118 0 -12852.42247974 0 297
0.01850000 0.01844180 76679.17106657 0 8524.81539670 0 19584.83886247 0 3721.07620180 0 -23812.58464797 0 388
0.01950000 0.01947590 67331.58228493 0 6916.81488026 0 14113.78172308 0 10039.73087838 0 -6640.82611183 0 399
0.02050000 0.02045430 63657.78491010 0 1525.51169654 0 11086.94028741 0 5642.73353570 0 -10942.76754594 0 462
0.02150000 0.02154770 66595.71557748 0 -3414.27315340 0 10274.22057339 0 16851.30331124 0 -3677.87199036 0 571
0.02250000 0.02255340 70976.48089198 0 -4679.47449345 0 5207.56902568 0 6710.08350357 0 4530.33027815 0 510
0.02350000 0.02348930 74313.45814582 0 93.41487931 0 27274.90061876 0 -4904.13196403 0 4782.73499471 0 555
0.02450000 0.02439640 72323.87209916 0 6947.86167905 0 20876.42555256 0 -7267.23181612 0 19025.68645913 0 592
0.02550000 0.02547300 68011.53375204 0 9411.15499843 0 36230.97199482 0 -5434.86170956 0 21921.87446194 0 837
0.02650000 0.02652900 63647.15547827 0 2702.00157014 0 38823.33540461 0 1809.42824954 0 33457.35462775 0 723
0.02750000 0.02749970 63746.58495514 0 2218.34027742 0 47517.87846845 0 6126.27303286 0 21825.43451277 0 826
0.02850000 0.02848090 61979.99553033 0 1460.74966867 0 44610.72886407 0 8728.32472686 0 24988.79771346 0 831
0.02950000 0.02946900 60520.99528898 0 1214.23542891 0 46303.02298935 0 9638.33695906 0 21589.59399413 0 996
0.03050000 0.03053250 59751.24726758 0 1729.66322154 0 39144.54354760 0 5137.39263098 0 11241.28849538 0 1041
0.03150000 0.03150510 59936.81943154 0 -1136.36376846 0 34374.58601573 0 4310.65535375 0 10343.34509724 0 1036
0.03250000 0.03246190 60811.97598521 0 -1531.56825821 0 32368.17003534 0 7705.40799849 0 5354.98595832 0 1059
0.03350000 0.03345080 58243.08590404 0 1326.84097232 0 28287.57544668 0 3417.94916524 0 6943.67634027 0 1302
0.03450000 0.03451200 61329.27500074 0 2220.54367005 0 27691.44147844 0 3830.16074592 0 -7323.67852805 0 1339
0.03550000 0.03553350 55321.21010764 0 1309.92245999 0 23013.82713556 0 4335.37985507 0 1526.58571205 0 1365
0.03650000 0.03647120 52107.79999878 0 5610.09232214 0 20827.81804661 0 6598.79556682 0 -1007.95137415 0 1308
0.03750000 0.03744890 50253.62848465 0 1893.76614768 0 17183.25160931 0 3750.87182789 0 -242.70757449 0 1579
0.03850000 0.03847530 47737.22122311 0 1231.54147260 0 14955.05696280 0 6357.09778835 0 -6309.71931045 0 1662
0.03950000 0.03950240 45956.45922253 0 1117.69582882 0 9213.99011038 0 5111.26194441 0 -2545.25066769 0 1683
0.04050000 0.04050350 44590.02361666 0 -1101.72953643 0 8814.40098000 0 1673.74798121 0 -2517.10481800 0 1822
0.04150000 0.04152450 47306.06489467 0 -430.93377471 0 8424.84337591 0 618.80455330 0 -5041.87168477 0 1887
0.04250000 0.04250150 44966.70410699 0 375.40828021 0 8043.32427963 0 -944.09174075 0 -137.79729683 0 1920
0.04350000 0.04349210 45821.81975273 0 1850.55086391 0 8956.08244838 0 1011.62738599 0 7117.52291225 0 2005
0.04450000 0.04448520 44201.27429228 0 1100.32002948 0 10828.37935824 0 2964.39352370 0 8560.82259701 0 2151
0.04550000 0.04548030 45250.26634560 0 767.45051399 0 13532.26322360 0 4643.96554776 0 8880.44739755 0 2274
0.04650000 0.04648670 44588.25204469 0 1377.17576094 0 10762.87548461 0 4216.28592932 0 13685.61492234 0 2311
0.04750000 0.04749250 42042.17095264 0 1529.34272093 0 10161.20535397 0 2733.17016451 0 12286.18378851 0 2568
0.04850000 0.04851840 40389.84791995 0 1278.56563611 0 9017.66671902 0 -358.50859084 0 9486.40251790 0 2493
0.04950000 0.04949480 40038.41233021 0 2012.10715534 0 10866.49030027 0 -2013.15902620 0 6265.99469974 0 2644
0.05050000 0.05050630 36211.70614964 0 2097.00974205 0 9609.55998685 0 -3154.15102644 0 5175.51464533 0 2829
0.05150000 0.05149060 36426.73069762 0 1201.79013582 0 10374.98980157 0 -3293.18620919 0 2037.79494892 0 2784
0.05250000 0.05249300 36377.01595918 0 -2387.22644787 0 10909.03017222 0 1258.07076287 0 -990.31869687 0 3055
0.05350000 0.05348950 38273.26230762 0 -977.83354341 0 12272.89699873 0 901.16433743 0 -1284.82149963 0 3009
0.05450000 0.05448610 37848.63865083 0 1905.86819871 0 10721.25461562 0 412.73197994 0 -1412.68470664 0 3336
0.05550000 0.05550870 36706.41762254 0 2666.21581633 0 12322.39029067 0 -1778.78005444 0 -479.51802878 0 3349
0.05650000 0.05647670 35412.28429773 0 898.09066006 0 14431.88961512 0 -825.34437877 0 2611.09778338 0 3324
0.05750000 0.05747970 34623.71332415 0 496.90379321 0 15752.37507299 0 52.12075462 0 1799.31921698 0 3639
0.05850000 0.05849280 34986.77485495 0 -221.11875556 0 15834.08883015 0 3376.54974275 0 3881.44775448 0 3846
0.05950000 0.05951020 35697.95027805 0 -1836.99833834 0 13723.81444297 0 2888.42630312 0 -1248.69250375 0 3787
0.06050000 0.06049470 35328.57752210 0 -204.58223844 0 13155.25056353 0 776.98046396 0 -1477.03705848 0 3930
0.06150000 0.06148310 36704.31388082 0 251.26758881 0 11910.16763767 0 -682.29437104 0 -2009.22835089 0 4083
0.06250000 0.06249100 34899.74638188 0 1844.71574874 0 13616.19144573 0 -530.02111674 0 1025.81878471 0 4303
0.06350000 0.06350600 33723.64403964 0 2080.74449689 0 13496.83178419 0 -1645.95644592 0 -172.73601780 0 4470
0.06450000 0.06451750 31629.64596994 0 2006.75922246 0 13496.83178419 0 1072.86730732 0 -411.14753026 0 4479
0.06550000 0.06550280 31288.61836552 0 1505.61472884 0 13263.64862350 0 -867.50004105 0 -955.52723783 0 4636
0.06650000 0.06648880 30296.64878502 0 194.63043289 0 13295.20474924 0 1617.65558368 0 2093.43338114 0 4653
0.06750000 0.06749660 29992.38129900 0 -339.95691060 0 13233.31045350 0 2646.69530767 0 -749.84883923 0 5220
0.06850000 0.06852730 30146.06516749 0 145.33644280 0 11806.19850763 0 1520.66201827 0 -1721.07109749 0 5029
0.06950000 0.06949320 29698.63252157 0 1003.69185079 0 11499.05221716 0 836.80977112 0 128.46000531 0 5040
0.07050000 0.07048030 28382.46527037 0 929.30354373 0 9887.82965420 0 1345.78572008 0 1595.47771707 0 5475
0.07150000 0.07148790 28145.96041225 0 199.92964755 0 9615.35081274 0 2501.82500975 0 2365.72399308 0 5509
0.07250000 0.07249820 27208.46666985 0 544.51368270 0 10665.02935019 0 2104.05174064 0 1425.25179531 0 5916
0.07350000 0.07351270 26837.43306518 0 1039.23179899 0 8959.92454510 0 780.83584747 0 1067.90026241 0 5721
0.07450000 0.07449140 25985.08550064 0 962.72203449 0 9533.20523491 0 825.46838881 0 3819.08842110 0 6028
0.07550000 0.07549160 25639.73968955 0 344.62278828 0 9687.35414103 0 -436.41236103 0 3937.85017710 0 6183
0.07650000 0.07648840 25587.92120940 0 5.91682894 0 10046.45177955 0 738.54621005 0 4703.12497927 0 6330
0.07750000 0.07749960 25289.07916254 0 340.97335002 0 9807.72138413 0 -459.85800883 0 3525.99291082 0 6583
0.07850000 0.07848650 25413.19992376 0 849.91165308 0 10647.00360539 0 180.03600155 0 3851.95108116 0 6549
0.07950000 0.07947320 25350.30911879 0 -168.20411525 0 10714.13511076 0 -615.21047667 0 3621.04881939 0 6828
0.08050000 0.08048110 24900.10839166 0 -154.70141513 0 11589.18094118 0 946.74909871 0 5304.48508482 0 7147
0.08150000 0.08149960 25939.91041538 0 -238.52555741 0 10484.81619144 0 712.50078038 0 2203.10475847 0 7386
0.08250000 0.08250610 25452.06378387 0 109.08465484 0 10538.32873729 0 1650.31894189 0 3752.97556960 0 7227
0.08350000 0.08350160 25346.76597485 0 949.48396294 0 10091.60472016 0 172.62197285 0 2510.56107403 0 7798
0.08450000 0.08449610 24077.54538088 0 841.66720002 0 8541.80034297 0 18.13248202 0 2226.88811218 0 7371
0.08550000 0.08548940 23328.17043716 0 623.98861578 0 8509.59095007 0 1548.26532404 0 3550.86135237 0 8256
0.08650000 0.08650700 22868.55823394 0 43.36797113 0 7008.61552533 0 1692.75916292 0 2040.34158363 0 8037
0.08750000 0.08749060 22859.03603459 0 106.85225271 0 8003.91787560 0 757.54521221 0 1734.04786217 0 8155
0.08850000 0.08849210 22425.77596444 0 876.54945213 0 8090.03841804 0 -115.64157487 0 1769.47930159 0 8718
0.08950000 0.08949900 21340.68813221 0 1371.31850111 0 8875.74165950 0 -1170.62154145 0 2820.35365013 0 8571
0.09050000 0.09049190 20588.65583053 0 1306.39038838 0 8930.07355738 0 -763.97048230 0 3305.19968161 0 8932
0.09150000 0.09150830 19607.64785160 0 724.64158455 0 9235.22682939 0 653.62922932 0 3383.92391107 0 9285
0.09250000 0.09250820 19187.01023174 0 334.95443425 0 8769.39197962 0 1001.17068243 0 2890.97293782 0 9204
0.09350000 0.09350330 18871.89186740 0 25.09774939 0 7892.56350490 0 569.83830402 0 690.67501370 0 9349
0.09450000 0.09448040 18478.15999685 0 137.48948620 0 7027.30560962 0 601.99897869 0 644.01512968 0 9564
0.09550000 0.09549270 18111.22315236 0 255.90800014 0 7065.53834722 0 427.52017697 0 822.97822296 0 10155
0.09650000 0.09649430 18129.27104181 0 0.12037056 0 5908.44718670 0 -4.70793037 0 551.25008512 0 9913
0.09750000 0.09749140 18333.99832771 0 -150.85821119 0 6186.24074408 0 516.68339427 0 -414.63641981 0 10476
0.09850000 0.09850240 18319.93647519 0 428.18562369 0 6180.12882078 0 156.96016940 0 62.94893468 0 10575
0.09950000 0.09950330 17924.54375591 0 389.66722011 0 6493.89636149 0 -603.55353310 0 322.16147016 0 10882
0.10050000 0.10051200 17798.76214597 0 520.61739128 0 7240.64716423 0 -721.70188231 0 768.31858426 0 10875
0.10150000 0.10150300 17430.49662251 0 521.86413505 0 8184.68465059 0 -14.50740287 0 1076.25543872 0 11118
0.10250000 0.10250800 16699.05884499 0 625.58413779 0 7796.03497713 0 729.32185625 0 1147.23679143 0 11575
0.10350000 0.10349800 16718.21396692 0 364.80099303 0 7342.41290164 0 922.97903179 0 1693.22420057 0 11364
0.10450000 0.10450100 16021.21111959 0 -73.08132984 0 6651.73235178 0 1683.35875915 0 1970.86274539 0 12093
0.10550000 0.10551000 16261.81273790 0 -139.55447478 0 5962.92302481 0 1556.11560234 0 813.41837771 0 12067
0.10650000 0.10649700 16159.06156358 0 -217.55346697 0 5164.82985188 0 735.26548021 0 254.01463259 0 12054
0.10750000 0.10749900 16048.67048514 0 480.57765027 0 4988.79095959 0 244.75263288 0 1142.04387109 0 12807
0.10850000 0.10850100 15608.32412710 0 435.10250500 0 4372.42785391 0 226.04372564 0 1606.68290978 0 12736
0.10950000 0.10950300 15455.74749110 0 43.11851165 0 4849.92186171 0 -18.78242748 0 1801.31223545 0 12933
0.11050000 0.11050200 15286.67309112 0 386.97996688 0 4573.47912797 0 518.49482661 0 1929.80656497 0 13428
0.11150000 0.11150900 15080.39567975 0 393.25243889 0 5236.65602298 0 -177.11180057 0 968.25155351 0 13453
0.11250000 0.11250000 14718.99499767 0 404.22511278 0 4922.73346972 0 -195.45753556 0 2203.42585589 0 13668
0.11350000 0.11349100 14489.68715067 0 225.72041375 0 5356.33678194 0 -266.47653418 0 1853.91685066 0 13791
0.11450000 0.11448600 14254.40024828 0 199.74141803 0 5281.32178130 0 324.48001497 0 2089.89023719 0 14205
0.11550000 0.11549300 14192.39522929 0 198.33855448 0 5492.96927021 0 325.48870376 0 1605.85248542 0 14776
0.11650000 0.11649800 13966.51980299 0 167.69478831 0 5400.29391147 0 592.98942799 0 1987.81447469 0 14553
0.11750000 0.11747300 14042.25450475 0 -85.17961628 0 4695.23041167 0 577.56678675 0 1931.00237605 0 14568
0.11850000 0.11849100 14192.83812229 0 -194.38684175 0 4254.43008832 0 386.26469469 0 1340.51529347 0 16015
0.11950000 0.11950300 14197.04560572 0 -13.22389898 0 4490.76886157 0 -41.32612371 0 649.15601009 0 15270
0.12050000 0.12050700 14221.18327382 0 171.47488000 0 4547.78026206 0 -363.17225405 0 1203.31811664 0 15999
0.12150000 0.12150000 14013.46646022 0 275.03654850 0 4248.69462406 0 187.25847903 0 1385.85646360 0 15670
0.12250000 0.12250700 13847.82448094 0 99.16196950 0 4058.02919068 0 441.08156041 0 1382.28010268 0 16887
0.12350000 0.12352200 13818.70426666 0 -109.22582698 0 3731.74992293 0 667.04999423 0 1379.76668495 0 16407
0.12450000 0.12449800 13848.37809718 0 284.26533123 0 4000.65240347 0 535.96695517 0 779.92016620 0 16306
0.12550000 0.12549900 13726.02890793 0 429.91179913 0 3940.15322066 0 -318.52642592 0 973.01265318 0 17523
0.12650000 0.12650100 13222.12740543 0 274.32349078 0 4278.56775642 0 -447.54890533 0 905.38732212 0 17154
0.12750000 0.12750600 13037.55175071 0 241.27813736 0 4257.14280790 0 -597.50029312 0 881.09131977 0 18007
0.12850000 0.12850300 12921.51378661 0 191.21904962 0 4352.04370392 0 272.45005342 0 986.27729831 0 17496
0.12950000 0.12949900 12847.77210332 0 -33.26237099 0 4165.00999308 0 614.96467105 0 492.21909258 0 18405
0.13050000 0.13049000 12795.62145342 0 33.38460945 0 3971.72041872 0 217.98418040 0 303.72051317 0 18100
0.13150000 0.13148800 12847.43993357 0 164.34319559 0 3647.03556574 0 177.54805016 0 8.73355086 0 19059
0.13250000 0.13249300 12709.14659659 0 172.67069108 0 3556.94005869 0 139.02632489 0 1144.95589252 0 18957
0.13350000 0.13349100 12396.02125072 0 350.52433741 0 3792.96880685 0 -90.79195628 0 737.11234399 0 19468
0.13450000 0.13450700 12452.82227704 0 185.11709141 0 3744.51631344 0 282.91450760 0 1006.55072506 0 19953
0.13550000 0.13551000 12191.84758106 0 142.26608713 0 3984.08820554 0 263.12604869 0 620.65252431 0 19956
0.13650000 0.13649900 11873.73968902 0 144.01883615 0 3489.74211937 0 250.34304968 0 583.60784717 0 19723
0.13750000 0.13749600 11813.94913500 0 95.96527861 0 3755.01287737 0 477.71434707 0 1025.62391179 0 20946
0.13850000 0.13851100 11876.39704698 0 13.79877408 0 3614.30577358 0 280.22282544 0 923.31230877 0 20955
0.13950000 0.13949800 11832.43991745 0 -89.14937689 0 3318.97365369 0 173.69820282 0 703.87876105 0 20506
0.14050000 0.14048300 11928.87986662 0 163.15070620 0 3432.04423474 0 -55.84537396 0 543.49613605 0 21447
0.14150000 0.14148400 11586.41285998 0 423.95599561 0 3402.53648909 0 -356.26976676 0 618.85770046 0 21771
0.14250000 0.14249400 11311.04414174 0 371.40674202 0 3701.20137875 0 -177.92893814 0 872.08066183 0 22470
0.14350000 0.14350900 11110.08144628 0 88.08931252 0 3492.12266920 0 292.04696111 0 984.85561181 0 22519
0.14450000 0.14449900 11129.01512172 0 -91.02657884 0 3396.46885509 0 517.32005294 0 783.54745981 0 22218
0.14550000 0.14550500 11032.12120723 0 124.27134483 0 3164.66973502 0 353.41310696 0 547.75898110 0 23559
0.14650000 0.14650700 10948.94590319 0 290.66845667 0 3110.59250060 0 -21.48628920 0 576.43740962 0 23044
0.14750000 0.14750500 10649.32879360 0 365.04126248 0 2985.89597849 0 -17.01140913 0 731.32926874 0 23649
0.14850000 0.14849900 10564.10510947 0 56.13524743 0 2785.81906902 0 127.57532656 0 859.89113944 0 23640
0.14950000 0.14949500 10391.44327625 0 -5.44275628 0 2836.78498016 0 26.14530204 0 245.24424411 0 24457
0.15050000 0.15050000 10427.42833191 0 121.50215640 0 2990.01488333 0 -3.15354205 0 216.68096777 0 24591
0.15150000 0.15149900 10198.53016093 0 438.15846665 0 3234.75755112 0 -461.01838847 0 197.73843447 0 25020
0.15250000 0.15250500 10054.03632205 0 370.75126039 0 3412.36871353 0 -323.62190980 0 482.21635434 0 25297
0.15350000 0.15350100 9847.42674093 0 6.74238148 0 3764.05896675 0 -99.24999449 0 502.84077378 0 25452
0.15450000 0.15450400 9742.36145073 0 76.56855854 0 3683.00954908 0 208.66017567 0 64.55464322 0 26061
0.15550000 0.15549900 9738.38648612 0 102.68252590 0 3672.82301024 0 255.95450390 0 -179.75033557 0 26128
0.15650000 0.15649500 9595.15489227 0 75.87886343 0 3388.99503584 0 137.89251883 0 -206.18440384 0 26331
0.15750000 0.15749700 9546.35915679 0 184.53690159 0 3379.74964462 0 -224.46924105 0 -353.30238371 0 27345
0.15850000 0.15849900 9370.43098775 0 110.23595517 0 3384.53288894 0 -56.82959292 0 -440.59437811 0 26980
0.15950000 0.15949700 9397.46960495 0 135.12886655 0 3176.20709748 0 203.56247733 0 -581.93924782 0 27777
0.16050000 0.16050000 9241.40518663 0 136.47304678 0 3344.99361701 0 -51.52417776 0 -711.60170761 0 28224
0.16150000 0.16150500 9036.97685351 0 207.01039927 0 3053.99077613 0 145.43941542 0 -732.96354388 0 28075
0.16250000 0.16249700 8929.70817067 0 95.74704308 0 3297.16117380 0 218.49129288 0 -738.19632459 0 28590
0.16350000 0.16349900 8817.29085678 0 22.17808806 0 2867.15636714 0 238.71046523 0 -733.39536455 0 29163
0.16450000 0.16449100 8901.98306932 0 71.69662490 0 2786.99273545 0 530.42636383 0 -339.49408743 0 28996
0.16550000 0.16550500 8772.71367706 0 12.64038746 0 2571.13776311 0 308.49600686 0 -300.85056658 0 30777
0.16650000 0.16650700 8736.81720000 0 73.81974318 0 2450.54907351 0 273.71894184 0 46.30158359 0 29211
0.16750000 0.16749900 8732.85330771 0 248.73424089 0 2407.43344067 0 108.58806107 0 -106.49616674 0 30922
0.16850000 0.16850800 8444.31959527 0 230.78932405 0 2321.92187609 0 108.26962101 0 647.62360034 0 30867
0.16950000 0.16949900 8427.56716781 0 2.27181961 0 2346.49136487 0 381.24671709 0 888.76111917 0 30852
0.17050000 0.17049200 8333.85101055 0 -114.01062143 0 2311.84606051 0 334.03764576 0 603.74397708 0 31257
0.17150000 0.17149500 8488.85248569 0 65.02477413 0 2395.99572913 0 135.64262242 0 451.54047843 0 32608
0.17250000 0.17250900 8404.02740525 0 132.05961811 0 2327.85664220 0 3.05638240 0 268.27578696 0 32361
0.17350000 0.17350400 8191.05123736 0 202.59364890 0 2216.64621172 0 -329.71168845 0 419.19711040 0 32508
0.17450000 0.17449800 8071.03830865 0 173.96836755 0 2177.52768813 0 -61.65834449 0 168.50528249 0 32791
0.17550000 0.17549800 8007.15099445 0 111.39866000 0 2125.74242496 0 39.41448683 0 180.12679461 0 33633
0.17650000 0.17650100 7814.23787914 0 75.88296019 0 1957.80847443 0 51.36839015 0 -41.74554337 0 33984
0.17750000 0.17750300 7856.32378577 0 68.56825024 0 1861.80034593 0 390.52643252 0 82.15443569 0 34069
0.17850000 0.17849800 7732.49090500 0 74.15711692 0 1781.63671424 0 143.85828744 0 -62.86633513 0 34536
