### header ###
fiducial parameters:
Omega_m = 0.31
Omega_nu = 0
Omega_de = 0.69
Omega_k = 0
H_0 = 100
w_de = -1
zeff = 0
beta = 0
fgrowth = 0
b_1 = 2
gamma = 0.55
Lx = 3500 Ly = 3500 Lz = 3500
nx = 700 ny = 700 nz = 700
xoffset = -685.467585 yoffset = -31.7331281 zoffset = 572.489161
bins = 400 dk = 0.001
kx_ny = 0.628318531 ky_ny = 0.628318531 kz_ny = 0.628318531
############################
A(data) = 7.97877051 (not used)
A(ran) = 7.98836991 (used)
Ngal = 475100
weighted Ngal = 0
Nran = 23820508
weighted Nran = 0
SN(data) = 3470.05673
SN(ran) = 69.581599
SN(data+ran) = 3539.63833
############################
13 columns: k_central k_mean P_0(k) sigma^{lin}_{P_0(k)} P^img_1(k) sigma^{lin}_{P_1(k)} P_2(k) sigma^{lin}_{P_2(k)} P^img_3(k) sigma^{lin}_{P_3(k)} P_4(k) sigma^{lin}_{P_4(k)} N_modes
### header ###
0.00050000 0 0 0 0 0 0 0 0 0 0 0 0
0.00150000 0.00179520 53938.16601455 0 -43117.95803202 0 -2635.63405518 0 22627.51372263 0 58188.49934268 0 3
0.00250000 0.00253879 88669.61305918 0 -37299.45133982 0 7431.75549060 0 -52103.92468509 0 -49022.38596481 0 6
0.00350000 0.00331552 102190.36106497 0 -3162.34454680 0 -109.13758055 0 -52866.25424885 0 40914.23322337 0 7
0.00450000 0.00420575 109409.40612348 0 15058.25103011 0 25099.29951515 0 -60893.80046562 0 20779.54271040 0 24
0.00550000 0.00557378 74653.04634801 0 34561.15468892 0 54335.55175229 0 -7671.88099894 0 12620.12510504 0 45
0.00650000 0.00659388 63717.13257113 0 16905.77914935 0 37336.87579771 0 44023.67420219 0 -11976.38014009 0 40
0.00750000 0.00754703 63968.69579101 0 -15767.65488124 0 36557.93774672 0 28171.42675933 0 -14146.77725104 0 57
0.00850000 0.00846663 63297.71290700 0 -15319.66861908 0 24367.75101438 0 26708.99409728 0 -9188.64555887 0 75
0.00950000 0.00948925 74667.99398651 0 4.36008221 0 3309.88327501 0 14904.45643838 0 -21614.61744822 0 112
0.01050000 0.01054430 76432.03677662 0 -2358.64877752 0 4576.55723427 0 1968.03930257 0 12646.03434512 0 105
0.01150000 0.01145670 75814.86539123 0 -11519.20384833 0 2947.91790437 0 -9358.70539576 0 -4405.35694792 0 144
0.01250000 0.01249090 91860.65707191 0 -7043.80337360 0 7358.06916893 0 -6996.20344921 0 3173.54973952 0 169
0.01350000 0.01339930 90697.73079621 0 -67.40432746 0 11845.94815373 0 -28978.70996186 0 3285.55737739 0 180
0.01450000 0.01448870 89702.66096476 0 16218.96284085 0 36737.97374827 0 -16116.76528277 0 17965.28991125 0 267
0.01550000 0.01550050 83388.99990667 0 16404.97789780 0 45391.77065678 0 -9712.38866745 0 26327.44178403 0 238
0.01650000 0.01653350 69380.51599262 0 6434.77014695 0 51628.36833413 0 4330.54124912 0 4666.36486087 0 315
0.01750000 0.01747870 61569.10155631 0 3215.60242918 0 51103.87230747 0 10128.99596107 0 1595.46664474 0 297
0.01850000 0.01844180 66199.76924196 0 -2725.31988621 0 48515.93782761 0 16900.68587993 0 -22574.03439376 0 388
0.01950000 0.01947590 65798.50819054 0 1637.53040673 0 48131.06381691 0 17782.59655174 0 3652.31706468 0 399
0.02050000 0.02045430 66303.62764876 0 2113.91718205 0 39545.14025954 0 3510.67988560 0 549.17180975 0 462
0.02150000 0.02154770 65992.38459811 0 3780.66745398 0 33388.26332088 0 11231.87701928 0 6484.20807727 0 571
0.02250000 0.02255340 62597.49908547 0 1037.76582318 0 35162.71409632 0 9658.61038580 0 7890.39332924 0 510
0.02350000 0.02348930 64141.75622792 0 -1104.02150767 0 31894.71742610 0 18089.29994922 0 6122.43093615 0 555
0.02450000 0.02439640 67128.07295476 0 -2885.86859608 0 21685.59105031 0 13566.25526080 0 7417.98151853 0 592
0.02550000 0.02547300 64720.61736944 0 1271.93331354 0 24608.02046295 0 4259.49014076 0 -7776.11586478 0 837
0.02650000 0.02652900 62362.10145982 0 3216.22247937 0 14727.96358077 0 244.86889229 0 1974.27302144 0 723
0.02750000 0.02749970 58340.63308569 0 377.66924894 0 16554.01138986 0 -5834.56156319 0 -8341.43555305 0 826
0.02850000 0.02848090 60116.41254010 0 437.13316938 0 22384.91908586 0 -156.75311692 0 -610.17810504 0 831
0.02950000 0.02946900 61745.26224417 0 792.87589347 0 23723.12026344 0 -3652.07347353 0 -14844.00154487 0 996
0.03050000 0.03053250 57039.63491950 0 4363.54784940 0 24729.37314296 0 493.17352698 0 4023.62747747 0 1041
0.03150000 0.03150510 60073.67336630 0 1662.98568149 0 29457.47728702 0 438.00123964 0 13113.28645247 0 1036
0.03250000 0.03246190 59040.40401423 0 -1080.74415920 0 28634.58210649 0 11438.92949339 0 12320.17582571 0 1059
0.03350000 0.03345080 59066.09180781 0 -2018.29658492 0 20165.36085271 0 11578.44078611 0 15625.04333758 0 1302
0.03450000 0.03451200 59209.92130720 0 1127.67199348 0 25207.91902162 0 5584.40452856 0 9562.17043663 0 1339
0.03550000 0.03553350 57615.94942631 0 4202.87734396 0 20921.48991458 0 -4193.88661621 0 7450.66702139 0 1365
0.03650000 0.03647120 52885.29864754 0 4262.71218728 0 22651.31922099 0 -8534.12722187 0 -1995.16649837 0 1308
0.03750000 0.03744890 48978.20738879 0 3396.90067576 0 21972.47498636 0 -5521.38085569 0 1594.17118274 0 1579
0.03850000 0.03847530 48216.09927152 0 1173.79929867 0 22396.87719666 0 -385.77529794 0 -8738.38947012 0 1662
0.03950000 0.03950240 48990.60839258 0 -931.46043260 0 22298.88712202 0 1684.82030603 0 -15712.73615014 0 1683
0.04050000 0.04050350 48539.96477246 0 -379.59029729 0 20208.54291950 0 897.03214581 0 -15580.75403830 0 1822
0.04150000 0.04152450 47499.38768601 0 1323.90680624 0 17702.43292005 0 3613.82966361 0 -17385.98587673 0 1887
0.04250000 0.04250150 47564.93584893 0 2629.18996214 0 18114.54484980 0 2513.65025265 0 -8571.13093141 0 1920
0.04350000 0.04349210 45500.83305624 0 2015.04132142 0 19973.36674036 0 897.29013098 0 -6363.77440022 0 2005
0.04450000 0.04448520 43448.68837435 0 2021.66257166 0 20541.93061979 0 3414.30637038 0 -827.29753687 0 2151
0.04550000 0.04548030 40943.35343764 0 2886.99797321 0 22539.93163332 0 2944.68478552 0 -395.94412105 0 2274
0.04650000 0.04648670 38845.36933100 0 3087.94959635 0 20351.15446317 0 3957.99073595 0 1884.79756458 0 2311
0.04750000 0.04749250 36724.02261900 0 274.18951565 0 19460.49665476 0 2853.63705854 0 3262.52694176 0 2568
0.04850000 0.04851840 37689.97223618 0 -135.39903128 0 16579.36701370 0 2763.17616477 0 -45.07753808 0 2493
0.04950000 0.04949480 36574.54623395 0 -872.35857718 0 15322.65814678 0 1752.90403134 0 267.38003588 0 2644
0.05050000 0.05050630 38066.54200326 0 72.39185617 0 14010.25548603 0 663.60096505 0 -3597.15474243 0 2829
0.05150000 0.05149060 36459.39405583 0 105.24875863 0 11043.96859479 0 602.54484431 0 55.71881729 0 2784
0.05250000 0.05249300 37437.08033732 0 286.43661413 0 12982.52229636 0 -221.50850139 0 -4281.01474021 0 3055
0.05350000 0.05348950 37291.70071245 0 753.77287114 0 14610.48621444 0 -981.05226823 0 -4112.50502879 0 3009
0.05450000 0.05448610 35493.44443865 0 2739.89106567 0 15207.06307567 0 -1302.69223189 0 -3782.07363923 0 3336
0.05550000 0.05550870 34806.73885340 0 2357.65226828 0 17426.51058557 0 -767.32318226 0 1864.66807806 0 3349
0.05650000 0.05647670 32636.34174245 0 215.83061322 0 18021.64804457 0 1521.20456218 0 5051.64854758 0 3324
0.05750000 0.05747970 33483.15314458 0 -1380.82962813 0 17651.94311888 0 6587.28034901 0 6538.58426445 0 3639
0.05850000 0.05849280 34268.73459046 0 -930.44288595 0 15473.90610380 0 4842.53662106 0 3930.14383903 0 3846
0.05950000 0.05951020 33987.49754007 0 -51.95854506 0 13710.74909968 0 4804.09350929 0 4370.45698009 0 3787
0.06050000 0.06049470 34552.85044531 0 340.88477142 0 13153.14682181 0 1183.90833123 0 7867.55112314 0 3930
0.06150000 0.06148310 33604.72727109 0 553.93290942 0 12023.43752057 0 -651.64949764 0 5994.51236752 0 4083
0.06250000 0.06249100 32872.51443083 0 929.98338447 0 12713.68624976 0 -170.92901439 0 8316.56711151 0 4303
0.06350000 0.06350600 32312.14407176 0 1547.44597200 0 13805.19603038 0 1691.07616955 0 7097.37128108 0 4470
0.06450000 0.06451750 32205.29613726 0 -172.58543418 0 10065.98336053 0 676.61648288 0 7495.87532363 0 4479
0.06550000 0.06550280 31311.31663140 0 -316.41161188 0 12307.22120567 0 2418.20681272 0 4972.78037790 0 4636
0.06650000 0.06648880 32717.83405311 0 340.66221770 0 10085.03883154 0 1677.70080117 0 4894.67619863 0 4653
0.06750000 0.06749660 32010.53394370 0 -34.77905804 0 10483.07783645 0 -677.11805919 0 2014.34376496 0 5220
0.06850000 0.06852730 31407.64585732 0 1022.58345139 0 8855.53466671 0 -614.39666079 0 2133.07230399 0 5029
0.06950000 0.06949320 30259.44577363 0 978.53885050 0 10378.33364366 0 -1148.08936045 0 971.13921582 0 5040
0.07050000 0.07048030 30133.77488694 0 1263.41869576 0 11290.44961757 0 -458.59687104 0 103.96104725 0 5475
0.07150000 0.07148790 28796.12732560 0 901.78438762 0 11371.27758875 0 538.61988420 0 494.71922352 0 5509
0.07250000 0.07249820 28022.83616026 0 864.03661785 0 9995.16477099 0 1116.05712475 0 700.37879917 0 5916
0.07350000 0.07351270 28033.13342235 0 -171.68303971 0 9731.63236798 0 1032.33595509 0 393.41077313 0 5721
0.07450000 0.07449140 27704.72826822 0 93.19000039 0 10243.83811409 0 231.67953897 0 -1306.01392933 0 6028
0.07550000 0.07549160 27138.82174674 0 934.13329181 0 9819.71271191 0 367.73073018 0 -1327.09563579 0 6183
0.07650000 0.07648840 26260.23277238 0 1056.46144364 0 9176.38849530 0 -801.23549871 0 -1839.96572139 0 6330
0.07750000 0.07749960 25803.05648062 0 917.96437588 0 8884.24520496 0 160.34719356 0 -1452.86617340 0 6583
0.07850000 0.07848650 25819.99713759 0 206.64058363 0 9164.98400074 0 -134.69150972 0 -1491.73003352 0 6549
0.07950000 0.07947320 25495.46729716 0 -733.80393333 0 8780.28714724 0 341.22137010 0 -1850.96053993 0 6828
0.08050000 0.08048110 25596.22545301 0 -412.30458820 0 9013.47030792 0 609.79278813 0 -2363.49845579 0 7147
0.08150000 0.08149960 25863.40065088 0 937.83698446 0 10249.98325437 0 126.15253282 0 -2006.08381064 0 7386
0.08250000 0.08250610 24832.34576377 0 1114.47378230 0 9815.99241077 0 698.26619960 0 -831.75304038 0 7227
0.08350000 0.08350160 24122.72046614 0 667.23379483 0 8992.66540958 0 965.35946227 0 214.26498650 0 7798
0.08450000 0.08449610 23744.93274333 0 648.84487777 0 8193.52036580 0 2038.74716886 0 999.69474153 0 7371
0.08550000 0.08548940 23144.48056842 0 373.97219968 0 7386.25930792 0 2021.68471631 0 677.68828392 0 8256
0.08650000 0.08650700 22374.62182378 0 552.81239015 0 6356.24521934 0 396.92070010 0 -22.29357241 0 8037
0.08750000 0.08749060 21907.03754668 0 1213.79253592 0 6554.07444688 0 -509.75654786 0 55.36118120 0 8155
0.08850000 0.08849210 20618.32966104 0 851.92792343 0 6371.42537667 0 -1160.29106240 0 -431.25376490 0 8718
0.08950000 0.08949900 20074.01417296 0 637.49685206 0 5574.58337644 0 -838.60238051 0 -176.80620440 0 8571
0.09050000 0.09049190 20059.95232044 0 -42.15355854 0 5995.92962509 0 568.60263257 0 -1785.08020726 0 8932
0.09150000 0.09150830 20132.36532475 0 -459.44058219 0 5771.89220471 0 596.24026255 0 -2307.20675641 0 9285
0.09250000 0.09250820 19387.19786446 0 424.03460911 0 4895.90522668 0 929.49177325 0 -1667.03815237 0 9204
0.09350000 0.09350330 19326.85369420 0 869.33472528 0 5351.94106899 0 1350.51360278 0 -1702.53602574 0 9349
0.09450000 0.09448040 18277.75091763 0 281.41310036 0 4298.64188132 0 533.53990157 0 -146.21558539 0 9564
0.09550000 0.09549270 18490.45027739 0 424.73659451 0 4943.07333041 0 937.95545834 0 -815.08254813 0 10155
0.09650000 0.09649430 17919.33976325 0 -8.03064647 0 3660.79846549 0 166.29635368 0 767.97866389 0 9913
0.09750000 0.09749140 17891.99112095 0 285.15776061 0 5391.85679996 0 -172.72051654 0 -155.93155042 0 10476
0.09850000 0.09850240 17838.40106882 0 734.85137526 0 5565.07224942 0 -857.60027543 0 1415.72959596 0 10575
0.09950000 0.09950330 17417.32055597 0 508.46883648 0 6106.63072863 0 110.29541356 0 1376.88788050 0 10882
0.10050000 0.10051200 16878.76267679 0 160.79230102 0 5814.19955784 0 279.55294979 0 1885.34010850 0 10875
0.10150000 0.10150300 16894.70682453 0 335.95205072 0 6449.20845852 0 879.33414182 0 2062.61910117 0 11118
0.10250000 0.10250800 16734.26883791 0 -43.10710715 0 5519.44319885 0 1136.62950426 0 1963.96468703 0 11575
0.10350000 0.10349800 16546.37148574 0 136.46861785 0 5193.64004106 0 818.57254491 0 2224.50756234 0 11364
0.10450000 0.10450100 16487.02382471 0 274.31131122 0 4340.58384773 0 193.96498617 0 1919.79718333 0 12093
0.10550000 0.10551000 16119.31191748 0 63.04936066 0 4111.56388118 0 191.34084519 0 1713.11009594 0 12067
0.10650000 0.10649700 16247.97233187 0 307.98889439 0 4316.33545638 0 -174.46883663 0 321.01548454 0 12054
0.10750000 0.10749900 15776.18057135 0 266.07903772 0 4437.49990687 0 -289.42171290 0 1259.15585070 0 12807
0.10850000 0.10850100 15448.21831022 0 353.74638393 0 4007.71654671 0 233.04586385 0 260.12877036 0 12736
0.10950000 0.10950300 15236.29401319 0 316.10047955 0 4233.17122466 0 25.59068929 0 666.95587947 0 12933
0.11050000 0.11050200 15187.68650724 0 106.34979061 0 4217.18278763 0 599.65607476 0 805.12631365 0 13428
0.11150000 0.11150900 14974.32280799 0 90.08155592 0 4033.96902885 0 424.91818064 0 -107.84134348 0 13453
0.11250000 0.11250000 14634.40243605 0 189.61688422 0 4114.66413213 0 -44.66531543 0 649.42174589 0 13668
0.11350000 0.11349100 14842.00852640 0 224.51020865 0 3864.50709750 0 -234.16195419 0 317.66721351 0 13791
0.11450000 0.11448600 14699.95059898 0 10.58861924 0 4256.45632376 0 -248.43639535 0 1157.89944023 0 14205
0.11550000 0.11549300 14687.21742544 0 31.62942452 0 4009.16702126 0 422.81997508 0 127.69380044 0 14776
0.11650000 0.11649800 14580.81238393 0 228.99782190 0 4130.69685847 0 -100.19612464 0 79.15372494 0 14553
0.11750000 0.11747300 14473.30010994 0 395.73596134 0 4412.84183950 0 -186.23982515 0 -216.45730681 0 14568
0.11850000 0.11849100 14340.54293537 0 177.63441430 0 4334.08439306 0 54.51614137 0 134.97496124 0 16015
0.11950000 0.11950300 14058.42009899 0 348.04856558 0 4644.30878983 0 -317.83551285 0 284.14242843 0 15270
0.12050000 0.12050700 13973.60609088 0 235.96674314 0 4699.26073791 0 227.98248971 0 223.03758945 0 15999
0.12150000 0.12150000 13683.17901088 0 -45.06425129 0 4344.17128097 0 441.77247347 0 357.60951806 0 15670
0.12250000 0.12250700 13846.38507871 0 -64.42365762 0 4294.15758977 0 651.16452982 0 -212.40594316 0 16887
0.12350000 0.12352200 13631.69270048 0 149.00359678 0 3922.84717697 0 608.26037838 0 -372.41653804 0 16407
0.12450000 0.12449800 13761.34962410 0 295.26014978 0 3929.67880139 0 -136.57934110 0 -255.09639873 0 16306
0.12550000 0.12549900 12979.31132216 0 559.17344076 0 3750.72788767 0 -345.10443441 0 312.43775450 0 17523
0.12650000 0.12650100 12847.55065682 0 435.39038545 0 3868.92495511 0 554.97924412 0 543.38098387 0 17154
0.12750000 0.12750600 12442.08212196 0 20.93079067 0 3434.36942295 0 523.21163698 0 274.58922657 0 18007
0.12850000 0.12850300 12318.40425374 0 138.38523728 0 3406.84362345 0 839.64096458 0 346.26370682 0 17496
0.12950000 0.12949900 12369.11550141 0 -130.94352777 0 3101.51319425 0 458.60351443 0 64.05251329 0 18405
0.13050000 0.13049000 12265.03564811 0 141.16881974 0 2968.43492225 0 222.98554952 0 371.62043789 0 18100
0.13150000 0.13148800 12315.63617253 0 211.71613732 0 2817.28661616 0 -597.49918589 0 430.93709641 0 19059
0.13250000 0.13249300 12057.20811126 0 139.33745722 0 2876.43497534 0 -229.50271991 0 795.85656331 0 18957
0.13350000 0.13349100 12134.82510824 0 101.84955491 0 3405.29349797 0 -532.43820525 0 883.50287211 0 19468
0.13450000 0.13450700 12035.39563137 0 218.53115325 0 3568.93138647 0 42.58183606 0 1234.81888075 0 19953
0.13550000 0.13551000 11915.70380008 0 208.57824047 0 4172.91563300 0 -135.14658227 0 752.03451615 0 19956
0.13650000 0.13649900 11799.33366624 0 100.90807513 0 4173.59104482 0 245.00286742 0 794.37619349 0 19723
0.13750000 0.13749600 11713.41242565 0 213.52203350 0 4628.47536534 0 -642.88353809 0 1021.93682762 0 20946
0.13850000 0.13851100 11588.07370870 0 304.51993502 0 4675.07878050 0 -255.50386028 0 957.96979268 0 20955
0.13950000 0.13949800 11596.04578257 0 93.22842136 0 4808.85460896 0 86.44651168 0 1118.54839783 0 20506
0.14050000 0.14048300 11533.93004034 0 -170.30342804 0 4524.16299322 0 430.98802910 0 681.13509864 0 21447
0.14150000 0.14148400 11573.12607019 0 -14.53131909 0 4487.14821135 0 507.18555404 0 421.02072230 0 21771
0.14250000 0.14249400 11451.21977394 0 43.08330166 0 4034.46728347 0 583.67538835 0 69.50917641 0 22470
0.14350000 0.14350900 11291.66757330 0 333.86713195 0 3858.84913952 0 452.81822471 0 466.78042631 0 22519
0.14450000 0.14449900 11001.52837376 0 384.36800545 0 3474.34051554 0 472.68418990 0 628.18613412 0 22218
0.14550000 0.14550500 10744.39577449 0 155.76214385 0 3223.70737095 0 405.83945774 0 840.53671566 0 23559
0.14650000 0.14650700 10511.05760126 0 76.93084501 0 2766.05496922 0 467.36283060 0 482.73896807 0 23044
0.14750000 0.14750500 10440.22793940 0 55.41288896 0 2676.15876402 0 185.90986987 0 328.75503959 0 23649
0.14850000 0.14849900 10407.02203727 0 125.76500145 0 2662.86090191 0 -343.54212938 0 253.34364971 0 23640
0.14950000 0.14949500 10280.24391809 0 201.72447141 0 2660.05960373 0 -262.60897112 0 -56.96545034 0 24457
0.15050000 0.15050000 10094.81569436 0 305.51312256 0 2701.87977457 0 -336.34622548 0 181.11444599 0 24591
0.15150000 0.15149900 9999.69335184 0 152.65082058 0 2758.12718465 0 198.94863957 0 227.31925746 0 25020
0.15250000 0.15250500 9804.58791621 0 99.67716478 0 2739.50353430 0 264.18567017 0 295.45280823 0 25297
0.15350000 0.15350100 9757.28694459 0 115.54081672 0 2650.09451139 0 580.65264367 0 534.47108409 0 25452
0.15450000 0.15450400 9609.29425106 0 53.85988468 0 2501.01673004 0 586.61066166 0 575.79189308 0 26061
0.15550000 0.15549900 9569.81034076 0 116.82188470 0 2343.10323347 0 297.39489400 0 346.29249487 0 26128
0.15650000 0.15649500 9367.18679657 0 179.10592627 0 2326.01863628 0 -61.30292287 0 589.40642368 0 26331
0.15750000 0.15749700 9171.45023843 0 274.60140613 0 2218.14097557 0 -147.93511744 0 677.55984495 0 27345
0.15850000 0.15849900 9069.07552316 0 191.21794239 0 2439.55425497 0 -535.15424653 0 242.57138489 0 26980
0.15950000 0.15949700 8888.49697769 0 144.30893106 0 2444.24892069 0 -216.86476836 0 215.55934127 0 27777
0.16050000 0.16050000 8896.84551060 0 270.21787273 0 2688.26081504 0 -119.62429011 0 92.24010564 0 28224
0.16150000 0.16150500 8667.50444663 0 113.06061596 0 2509.28775668 0 -225.92968069 0 254.01573983 0 28075
0.16250000 0.16249700 8606.68416641 0 54.44439271 0 2597.58954710 0 366.51055998 0 -45.10854059 0 28590
0.16350000 0.16349900 8600.29543499 0 93.72113981 0 2463.29331938 0 217.19029471 0 -108.18901448 0 29163
0.16450000 0.16449100 8533.19714658 0 56.98194811 0 2223.73249960 0 439.37420792 0 -322.98857282 0 28996
0.16550000 0.16550500 8383.85362943 0 61.82907974 0 2207.35653120 0 257.96855979 0 -103.76407059 0 30777
0.16650000 0.16650700 8344.30328518 0 120.54550753 0 1972.53466644 0 -47.76268757 0 84.82806996 0 29211
0.16750000 0.16749900 8247.84119136 0 76.48618044 0 1974.69376978 0 192.57208771 0 150.37877952 0 30922
0.16850000 0.16850800 8297.46735120 0 -13.79190924 0 1867.73511203 0 200.53862542 0 206.75462857 0 30867
0.16950000 0.16949900 8233.97864069 0 -1.71817015 0 1947.35619980 0 177.42404013 0 199.89753781 0 30852
0.17050000 0.17049200 8316.05778457 0 114.70264173 0 1873.10518957 0 12.66574308 0 250.58221190 0 31257
0.17150000 0.17149500 8231.16627018 0 95.03066367 0 1931.37883509 0 -158.11722734 0 602.89583700 0 32608
0.17250000 0.17250900 8260.85117302 0 55.36605302 0 2103.23238860 0 -0.85570802 0 519.18241798 0 32361
0.17350000 0.17350400 8180.52145646 0 31.31253459 0 2025.27214955 0 20.37008814 0 429.21645713 0 32508
0.17450000 0.17449800 8125.23733864 0 128.36478332 0 2118.00286991 0 92.18762282 0 201.20407214 0 32791
0.17550000 0.17549800 7998.55887039 0 180.72137846 0 2056.59575647 0 23.99782464 0 88.30931961 0 33633
0.17650000 0.17650100 7855.48228909 0 181.70017197 0 2075.55157655 0 -95.92785415 0 18.87997466 0 33984
0.17750000 0.17750300 7706.44879703 0 79.89413130 0 2126.87180209 0 -87.18614298 0 25.70982751 0 34069
0.17850000 0.17849800 7668.01675758 0 31.57627736 0 2239.05659715 0 -53.94724532 0 -24.44104980 0 34536
