### header ###
fiducial parameters:
Omega_m = 0.31
Omega_nu = 0
Omega_de = 0.69
Omega_k = 0
H_0 = 100
w_de = -1
zeff = 0
beta = 0
fgrowth = 0
b_1 = 2
gamma = 0.55
Lx = 3500 Ly = 3500 Lz = 3500
nx = 700 ny = 700 nz = 700
xoffset = -685.467585 yoffset = -31.7331281 zoffset = 572.489161
bins = 400 dk = 0.001
kx_ny = 0.628318531 ky_ny = 0.628318531 kz_ny = 0.628318531
############################
A(data) = 8.01715381 (not used)
A(ran) = 8.0173513 (used)
Ngal = 476904
weighted Ngal = 0
Nran = 23820508
weighted Nran = 0
SN(data) = 3486.39894
SN(ran) = 69.8340375
SN(data+ran) = 3556.23298
############################
13 columns: k_central k_mean P_0(k) sigma^{lin}_{P_0(k)} P^img_1(k) sigma^{lin}_{P_1(k)} P_2(k) sigma^{lin}_{P_2(k)} P^img_3(k) sigma^{lin}_{P_3(k)} P_4(k) sigma^{lin}_{P_4(k)} N_modes
### header ###
0.00050000 0 0 0 0 0 0 0 0 0 0 0 0
0.00150000 0.00179520 27035.40623294 0 -24829.90985231 0 13140.52437152 0 37233.68173040 0 -83721.39109773 0 3
0.00250000 0.00253879 44034.85725025 0 -13103.09991363 0 11860.78506898 0 26535.82293712 0 85214.05120653 0 6
0.00350000 0.00331552 40498.46742643 0 3687.88137200 0 16791.84492697 0 -44500.44850888 0 7697.29198440 0 7
0.00450000 0.00420575 33520.90977221 0 12522.79936989 0 -6206.50309849 0 -1519.76515996 0 23072.62118034 0 24
0.00550000 0.00557378 27840.03207751 0 -3105.47708654 0 4680.58172594 0 2029.01459534 0 -3808.53649554 0 45
0.00650000 0.00659388 39659.62809816 0 -9514.17190854 0 -4093.49384708 0 18029.73084169 0 12336.23069669 0 40
0.00750000 0.00754703 33616.57465864 0 -11619.96200418 0 -19277.47112550 0 26217.60432183 0 9424.08747382 0 57
0.00850000 0.00846663 50248.75666173 0 -20415.48467036 0 -48267.47485868 0 21783.02750872 0 -13289.11497059 0 75
0.00950000 0.00948925 82555.47529432 0 -44619.36527743 0 -37862.14688711 0 -19334.38287507 0 -42082.03132199 0 112
0.01050000 0.01054430 88661.53026206 0 2394.71133945 0 -28466.94710874 0 -46490.25600204 0 -38599.45299678 0 105
0.01150000 0.01145670 83245.94547001 0 25971.02364812 0 -14654.22189748 0 -67760.85631814 0 -15111.39818924 0 144
0.01250000 0.01249090 72264.52443813 0 15629.47226750 0 -9296.76681073 0 -36262.52812056 0 6438.30221857 0 169
0.01350000 0.01339930 66588.62928959 0 -4014.58138810 0 23829.85747469 0 -15601.45928571 0 -8561.84125089 0 180
0.01450000 0.01448870 74158.99921460 0 1951.60797253 0 12343.42770783 0 12777.90573371 0 -19803.29583114 0 267
0.01550000 0.01550050 76408.56344800 0 -8580.44275659 0 22268.54895201 0 15229.20772531 0 -6849.30691584 0 238
0.01650000 0.01653350 79714.09529936 0 -6659.52726845 0 -3583.14825154 0 7202.95697055 0 640.25718264 0 315
0.01750000 0.01747870 87979.25360674 0 -6556.55464764 0 18119.97028896 0 5314.64947900 0 -23761.65195381 0 297
0.01850000 0.01844180 84699.74171870 0 3274.76186069 0 16626.64584067 0 2924.77674550 0 -2434.83744459 0 388
0.01950000 0.01947590 86257.28565094 0 9629.95520917 0 19303.82325857 0 -12824.85239094 0 -2777.91342910 0 399
0.02050000 0.02045430 76638.31418799 0 7660.03361139 0 25608.84790330 0 -7171.62229131 0 9433.74254106 0 462
0.02150000 0.02154770 72449.43226260 0 -723.28854645 0 28026.37930421 0 9589.75159775 0 4919.63321877 0 571
0.02250000 0.02255340 79565.17253055 0 -6282.29316188 0 21066.75881620 0 16831.37312657 0 14472.74649370 0 510
0.02350000 0.02348930 74919.33575990 0 -4486.74960766 0 10970.04975430 0 12813.33717313 0 -6923.28111795 0 555
0.02450000 0.02439640 82047.58775489 0 2696.68685423 0 16765.60351715 0 -3886.50780692 0 1225.03094561 0 592
0.02550000 0.02547300 78915.11634045 0 6630.10810141 0 17315.89806063 0 -19116.70096914 0 3520.50103771 0 837
0.02650000 0.02652900 70089.36622751 0 9832.12478803 0 24196.68359593 0 -15937.50434396 0 13229.32441657 0 723
0.02750000 0.02749970 65514.39233569 0 9126.51874432 0 32397.73314261 0 -6011.99556840 0 12535.31109693 0 826
0.02850000 0.02848090 61844.58099780 0 2588.80919352 0 40072.51509065 0 3835.05471349 0 13019.17169151 0 831
0.02950000 0.02946900 60429.98077897 0 1772.60169719 0 37837.67704926 0 14681.90270953 0 6297.36259596 0 996
0.03050000 0.03053250 58068.36461840 0 1363.11390842 0 38516.63200714 0 13841.51325579 0 11248.26406001 0 1041
0.03150000 0.03150510 56724.73800166 0 3096.50850343 0 35518.13572300 0 9347.17910563 0 11353.56186904 0 1036
0.03250000 0.03246190 54233.68636396 0 2606.83493833 0 32185.80884558 0 7195.52744059 0 11294.21420801 0 1059
0.03350000 0.03345080 53086.92568249 0 -2225.58157785 0 30518.98106738 0 5006.49560697 0 18023.30889330 0 1302
0.03450000 0.03451200 54302.00260809 0 -1364.76368482 0 26479.79697354 0 6004.68783402 0 12486.59286773 0 1339
0.03550000 0.03553350 55968.27677005 0 -1607.21438138 0 20938.98418779 0 6331.12211433 0 15789.68880763 0 1365
0.03650000 0.03647120 58045.44490602 0 -2599.49398697 0 18652.88128248 0 8382.56923975 0 8913.29898528 0 1308
0.03750000 0.03744890 57381.65903315 0 -488.16108553 0 18687.86982891 0 2457.45820420 0 10980.25843778 0 1579
0.03850000 0.03847530 56098.93020291 0 3846.47028037 0 13373.15391596 0 872.19027785 0 6356.85419721 0 1662
0.03950000 0.03950240 51320.66842742 0 3173.28400372 0 12567.53156216 0 -2312.33324280 0 7239.22990665 0 1683
0.04050000 0.04050350 51166.43094269 0 1421.99653181 0 13449.44223396 0 -2154.99550713 0 2043.91794455 0 1822
0.04150000 0.04152450 49915.25823819 0 1720.10780523 0 16074.69044846 0 -3541.62703347 0 -2305.83378813 0 1887
0.04250000 0.04250150 46703.17680830 0 4024.82328855 0 15234.74388772 0 -3924.17585595 0 -1201.19223028 0 1920
0.04350000 0.04349210 44660.11143276 0 2672.61562008 0 16025.30787977 0 -1147.48038258 0 -3065.17382420 0 2005
0.04450000 0.04448520 42720.57229428 0 1273.59416226 0 16383.38686441 0 3399.87913114 0 -3919.24867141 0 2151
0.04550000 0.04548030 43087.95203176 0 -292.87074208 0 17811.71676601 0 2439.19994057 0 -7008.22799396 0 2274
0.04650000 0.04648670 41653.20018176 0 1280.29291878 0 18202.90200185 0 478.86143992 0 -77.69704989 0 2311
0.04750000 0.04749250 42976.23227434 0 839.22464516 0 20663.94763930 0 -395.78578680 0 3418.94567448 0 2568
0.04850000 0.04851840 42894.51851718 0 1313.62061648 0 21187.22571022 0 1205.23362883 0 8186.31228234 0 2493
0.04950000 0.04949480 42443.76417381 0 750.95717894 0 24056.61868698 0 1509.81113995 0 10486.01200252 0 2644
0.05050000 0.05050630 43322.13170168 0 418.59920486 0 24528.85334049 0 1492.38330068 0 10267.49967223 0 2829
0.05150000 0.05149060 41080.20737240 0 844.05217879 0 23359.28366990 0 2149.23789822 0 9752.91337628 0 2784
0.05250000 0.05249300 41429.64994367 0 469.84967475 0 23726.77413063 0 4334.46085211 0 7916.33578629 0 3055
0.05350000 0.05348950 39381.04840573 0 1566.35750279 0 20153.95635815 0 2887.31907063 0 5392.44363318 0 3009
0.05450000 0.05448610 38538.22304053 0 1009.83145490 0 20675.01996411 0 1480.69092567 0 3217.88332809 0 3336
0.05550000 0.05550870 36604.33078771 0 743.43685593 0 16259.04465669 0 2011.14386308 0 1743.37075967 0 3349
0.05650000 0.05647670 36015.83672360 0 1815.48481121 0 17008.86249341 0 -1800.59253433 0 -296.92874913 0 3324
0.05750000 0.05747970 34488.18806837 0 759.53269451 0 14965.13277839 0 -365.14755680 0 -2896.97413788 0 3639
0.05850000 0.05849280 34144.39238275 0 770.49872501 0 15384.55244252 0 -967.76547845 0 -2651.07994830 0 3846
0.05950000 0.05951020 33973.87858054 0 286.74774646 0 14386.93597636 0 -906.18452951 0 -4890.53514915 0 3787
0.06050000 0.06049470 34245.70415484 0 7.20674371 0 15319.44717258 0 1784.91412239 0 -4391.21758913 0 3930
0.06150000 0.06148310 33995.69106043 0 -294.05105191 0 11996.86394100 0 1848.13709710 0 -3151.06184781 0 4083
0.06250000 0.06249100 34546.87138991 0 269.40959302 0 13732.00796333 0 3323.46901756 0 -856.40889328 0 4303
0.06350000 0.06350600 34080.28362205 0 271.08040684 0 12780.34164517 0 2448.16852368 0 -553.88751289 0 4470
0.06450000 0.06451750 33165.04525254 0 707.09305694 0 11400.28707977 0 3802.56851247 0 2046.78567668 0 4479
0.06550000 0.06550280 32210.83229967 0 1274.63496080 0 12035.39563137 0 2218.01918000 0 4037.41252187 0 4636
0.06650000 0.06648880 32201.97443981 0 309.03522908 0 10097.16302722 0 1929.45225057 0 2714.07040420 0 4653
0.06750000 0.06749660 30982.69003078 0 384.43886833 0 11165.22162387 0 -284.47127647 0 4634.57621632 0 5220
0.06850000 0.06852730 30865.43411095 0 1069.18686656 0 10266.06027000 0 -916.02118287 0 4275.20176968 0 5029
0.06950000 0.06949320 30499.05088271 0 476.88502994 0 11269.52292367 0 -316.19016538 0 4020.43864792 0 5040
0.07050000 0.07048030 30239.07269596 0 217.71733737 0 10930.52155469 0 -11.59693157 0 2314.23768267 0 5475
0.07150000 0.07148790 29779.01759975 0 112.28776768 0 10491.18277821 0 1196.27611806 0 2153.78862372 0 5509
0.07250000 0.07249820 29673.05545123 0 336.72157729 0 8920.78387686 0 1381.35002740 0 1193.24230106 0 5916
0.07350000 0.07351270 29442.86181826 0 497.47069624 0 8810.65853422 0 2013.72371477 0 418.44529955 0 5721
0.07450000 0.07449140 28381.35803789 0 1157.36796864 0 8859.08888297 0 -189.85272474 0 498.08963920 0 6028
0.07550000 0.07549160 27710.26443063 0 1377.96189601 0 8914.18477127 0 303.27097678 0 1143.70471982 0 6183
0.07650000 0.07648840 26019.18826108 0 436.66702450 0 8532.05669713 0 -366.15070943 0 3685.19079707 0 6330
0.07750000 0.07749960 26624.29081242 0 153.56318014 0 9938.91736091 0 655.45173399 0 1583.24279814 0 6583
0.07850000 0.07848650 26256.46818195 0 171.01759299 0 10844.33457831 0 124.23923509 0 2521.69983280 0 6549
0.07950000 0.07947320 25820.99364683 0 1232.27224604 0 10636.79492190 0 637.84341583 0 1779.88728692 0 6828
0.08050000 0.08048110 25162.07959687 0 1230.67783127 0 10398.02023719 0 -441.31186476 0 3402.30397027 0 7147
0.08150000 0.08149960 24553.32317834 0 254.74651327 0 10139.40394640 0 458.82053200 0 3315.33085882 0 7386
0.08250000 0.08250610 24524.53513381 0 -91.36284535 0 9910.42826915 0 947.78768278 0 2884.56206175 0 7227
0.08350000 0.08350160 24210.08110896 0 124.34552941 0 10033.94005250 0 1292.02958309 0 1356.60338143 0 7798
0.08450000 0.08449610 23739.06441118 0 587.90390920 0 9485.30635774 0 146.48685735 0 -936.12188135 0 7371
0.08550000 0.08548940 23053.13388866 0 999.20977370 0 9157.23337336 0 -1320.66261507 0 365.51847968 0 8256
0.08650000 0.08650700 22606.69775197 0 922.20175459 0 10301.13739503 0 -1714.62700444 0 189.76193167 0 8037
0.08750000 0.08749060 22171.44466335 0 218.60090889 0 11173.30442099 0 -483.41548712 0 305.54855400 0 8155
0.08850000 0.08849210 22111.43266284 0 371.59275708 0 10980.71240310 0 90.78730590 0 -1148.45474716 0 8718
0.08950000 0.08949900 21660.56759622 0 667.39323630 0 10236.37536716 0 893.41813899 0 -831.21492539 0 8571
0.09050000 0.09049190 21168.18131154 0 459.34646743 0 10331.29840783 0 1824.90735963 0 -357.68038094 0 8932
0.09150000 0.09150830 20639.58852469 0 94.98227761 0 9017.64457437 0 2085.16235450 0 -248.16623063 0 9285
0.09250000 0.09250820 20298.56092028 0 275.38200503 0 8110.02396434 0 1642.38008500 0 -199.08372194 0 9204
0.09350000 0.09350330 19966.94479196 0 324.34271815 0 7267.95151723 0 790.79208194 0 -892.88998910 0 9349
0.09450000 0.09448040 19274.37087455 0 491.36209464 0 7482.47781059 0 294.71428416 0 544.29334344 0 9564
0.09550000 0.09549270 19153.23964104 0 687.11747574 0 6876.13515888 0 -183.22040217 0 1143.73793679 0 10155
0.09650000 0.09649430 18345.95643851 0 539.55660288 0 8108.21917540 0 -126.19682212 0 1806.72660228 0 9913
0.09750000 0.09749140 18176.32842229 0 398.67234189 0 7251.59769348 0 474.21549243 0 1341.50073038 0 10476
0.09850000 0.09850240 17915.68589606 0 545.67516957 0 7724.74027763 0 745.50073727 0 1759.68029413 0 10575
0.09950000 0.09950330 17694.68229268 0 -64.31736330 0 6810.56485130 0 922.97792456 0 2053.66159039 0 10882
0.10050000 0.10051200 17666.44786439 0 -19.93007395 0 6966.80642682 0 1258.81260863 0 1205.75402810 0 10875
0.10150000 0.10150300 17278.14143300 0 308.50486472 0 6129.48400706 0 527.44901569 0 1311.40615152 0 11118
0.10250000 0.10250800 17365.28062932 0 393.62668347 0 5880.98782115 0 256.68417011 0 12.64271265 0 11575
0.10350000 0.10349800 16319.38882695 0 777.11443909 0 6449.57384524 0 -23.47377151 0 1277.24802945 0 11364
0.10450000 0.10450100 16050.88495010 0 635.05651167 0 5522.03412285 0 -509.04902630 0 528.09342499 0 12093
0.10550000 0.10551000 15693.80247470 0 0.46246997 0 6263.06053367 0 146.14804421 0 798.72650991 0 12067
0.10650000 0.10649700 15711.40747116 0 -27.58891175 0 6231.80336070 0 -110.72656988 0 233.96597405 0 12054
0.10750000 0.10749900 15871.51328804 0 270.12929414 0 6663.82333048 0 -371.04689146 0 -331.38360950 0 12807
0.10850000 0.10850100 15555.17696797 0 401.28541054 0 6378.30129038 0 -452.79054390 0 -325.23071860 0 12736
0.10950000 0.10950300 15260.32095805 0 234.43322615 0 6536.29229322 0 -124.92793370 0 243.87791922 0 12933
0.11050000 0.11050200 15391.86017690 0 -195.03678722 0 7000.10090755 0 90.91319824 0 -843.58160498 0 13428
0.11150000 0.11150900 15481.32456143 0 -52.85529265 0 6661.40956367 0 381.06180926 0 -583.45504909 0 13453
0.11250000 0.11250000 15653.94210535 0 177.73627969 0 6578.73251425 0 706.81846329 0 -1393.83960980 0 13668
0.11350000 0.11349100 15187.79723049 0 364.68030469 0 5601.19017298 0 455.49772732 0 -491.25137139 0 13791
0.11450000 0.11448600 14973.10485226 0 271.85546957 0 6349.80112630 0 754.22794369 0 -28.77741510 0 14205
0.11550000 0.11549300 14691.31418562 0 336.26871921 0 5398.79914762 0 824.47298681 0 -390.27176905 0 14776
0.11650000 0.11649800 14462.67067812 0 128.45889808 0 5451.70271561 0 1278.49920216 0 359.49181328 0 14553
0.11750000 0.11747300 14212.43613721 0 248.42421579 0 4593.85220563 0 390.36588381 0 474.22213582 0 14568
0.11850000 0.11849100 14135.37275648 0 114.91301590 0 4681.54501820 0 583.39082960 0 904.82374078 0 16015
0.11950000 0.11950300 13830.10876123 0 24.37240139 0 4232.89441654 0 374.27779584 0 942.37553041 0 15270
0.12050000 0.12050700 14185.53038791 0 63.60950957 0 4825.09770947 0 50.82086369 0 1115.82460592 0 15999
0.12150000 0.12150000 13790.69128487 0 165.72391449 0 4640.00165548 0 -316.00525756 0 1401.67881577 0 15670
0.12250000 0.12250700 13668.56354212 0 403.24189034 0 4948.79772234 0 217.58889841 0 1176.14663154 0 16887
0.12350000 0.12352200 13540.34602072 0 97.91024318 0 5104.85106834 0 184.58008366 0 1454.36093725 0 16407
0.12450000 0.12449800 13412.79283881 0 161.97593254 0 4930.45088012 0 205.12478236 0 1552.61674769 0 16306
0.12550000 0.12549900 13065.12183951 0 340.55149445 0 4930.22943362 0 298.98598708 0 1589.12220262 0 17523
0.12650000 0.12650100 12976.43251771 0 97.67739219 0 4373.55723104 0 85.61409430 0 1290.39087901 0 17154
0.12750000 0.12750600 12930.15019997 0 38.15700290 0 4553.74824514 0 57.96373115 0 1016.62211171 0 18007
0.12850000 0.12850300 12756.97903980 0 252.14783863 0 4239.99177675 0 237.66966670 0 722.14034637 0 17496
0.12950000 0.12949900 12565.98143668 0 179.32958723 0 4031.16773067 0 0.39433531 0 550.69203995 0 18405
0.13050000 0.13049000 12548.81933321 0 51.42209092 0 3722.39380846 0 232.88863684 0 223.12838251 0 18100
0.13150000 0.13148800 12612.59592417 0 -149.24608070 0 3667.86260872 0 135.05136028 0 -467.81236698 0 19059
0.13250000 0.13249300 12631.30815311 0 -87.48088827 0 3563.71632148 0 238.55213099 0 -454.99836547 0 18957
0.13350000 0.13349100 12716.01143797 0 86.81001611 0 3779.37199197 0 -281.83163424 0 -406.44732837 0 19468
0.13450000 0.13450700 12515.71308201 0 432.66216461 0 3777.10216538 0 339.97351909 0 272.37254714 0 19953
0.13550000 0.13551000 12295.59526461 0 375.58875910 0 4079.88595988 0 160.02498891 0 471.64006967 0 19956
0.13650000 0.13649900 11933.30879654 0 321.68203849 0 3830.85830238 0 231.73600783 0 416.04371229 0 19723
0.13750000 0.13749600 11800.77306847 0 93.87659525 0 3734.19690671 0 418.37554390 0 807.09718747 0 20946
0.13850000 0.13851100 11513.00334643 0 224.99074755 0 3690.80446575 0 88.34895853 0 253.55402388 0 20955
0.13950000 0.13949800 11646.20341400 0 155.01586916 0 3689.32077422 0 -3.78142037 0 598.96626892 0 20506
0.14050000 0.14048300 11351.56885057 0 106.84040532 0 3549.05656342 0 -333.26258302 0 192.81567886 0 21447
0.14150000 0.14148400 11344.81473243 0 224.76930105 0 3851.65212839 0 -37.97552749 0 287.04780646 0 21771
0.14250000 0.14249400 11245.38525556 0 -14.24543167 0 3403.03474371 0 108.26928884 0 336.92973700 0 22470
0.14350000 0.14350900 11298.75386119 0 -222.68991845 0 3583.48042128 0 193.36375894 0 125.36861222 0 22519
0.14450000 0.14449900 11536.03378205 0 -174.30939515 0 3649.05072886 0 425.02890388 0 -10.21689915 0 22218
0.14550000 0.14550500 11556.18541322 0 131.12622113 0 3659.48085884 0 20.11653190 0 -226.30613974 0 23559
0.14650000 0.14650700 11366.73793557 0 326.81073935 0 3222.31225802 0 -18.50262983 0 276.86458932 0 23044
0.14750000 0.14750500 11027.80300055 0 407.05519901 0 3487.91518577 0 -38.73110294 0 235.30351088 0 23649
0.14850000 0.14849900 10784.89833868 0 294.21824401 0 3355.43481932 0 11.37404567 0 170.77621631 0 23640
0.14950000 0.14949500 10456.90286058 0 304.06929140 0 3616.70846806 0 -63.01957611 0 -433.25564122 0 24457
0.15050000 0.15050000 10270.30097041 0 275.41190031 0 3708.32088361 0 -68.08184301 0 -75.75418905 0 24591
0.15150000 0.15149900 10090.97359764 0 263.45046780 0 3901.21185428 0 -235.90695259 0 -263.90332589 0 25020
0.15250000 0.15250500 9931.91965163 0 201.47866579 0 3878.35857585 0 -269.68086498 0 186.47345120 0 25297
0.15350000 0.15350100 9876.10406221 0 90.55268334 0 3782.64940012 0 443.98361674 0 362.38390452 0 25452
0.15450000 0.15450400 9681.38615795 0 -26.48732615 0 3718.27490362 0 528.35473186 0 501.14560085 0 26061
0.15550000 0.15549900 9672.18505603 0 187.69251416 0 3379.04101583 0 780.46381735 0 177.94443939 0 26128
0.15650000 0.15649500 9517.81470341 0 196.45958095 0 3008.16242370 0 535.08227642 0 398.63801768 0 26331
0.15750000 0.15749700 9235.11610614 0 131.46171257 0 2931.48657434 0 277.38388136 0 871.91125526 0 27345
0.15850000 0.15849900 9227.55370829 0 15.37945917 0 2715.17763668 0 248.81063993 0 689.36958660 0 26980
0.15950000 0.15949700 9242.39062354 0 87.58928633 0 2776.11971248 0 -126.28872242 0 707.28239370 0 27777
0.16050000 0.16050000 9155.45072907 0 43.66935981 0 2781.37906677 0 -174.60945516 0 573.44898915 0 28224
0.16150000 0.16150500 9132.44243809 0 102.42819460 0 2716.99349795 0 -44.15012015 0 567.63048246 0 28075
0.16250000 0.16249700 9076.05108779 0 93.97536039 0 2945.82523498 0 -129.52737743 0 430.08231293 0 28590
0.16350000 0.16349900 9036.33465867 0 139.23559183 0 2806.55753341 0 94.52753723 0 -70.30959477 0 29163
0.16450000 0.16449100 8826.80198380 0 215.36668282 0 2922.88337795 0 -81.77188687 0 -48.23392571 0 28996
0.16550000 0.16550500 8605.12296861 0 391.50079710 0 2801.88501233 0 -114.54873641 0 -213.50985394 0 30777
0.16650000 0.16650700 8457.81675922 0 120.76363233 0 2993.36979775 0 -41.63725603 0 -197.53581093 0 29211
0.16750000 0.16749900 8318.79264880 0 -29.54882397 0 2864.59866011 0 259.24187714 0 -27.05157183 0 30922
0.16850000 0.16850800 8519.89928448 0 -41.35081499 0 2748.51640671 0 328.81150844 0 -384.82086354 0 30867
0.16950000 0.16949900 8496.45917284 0 -99.48528139 0 2751.80488718 0 304.93957613 0 -150.20937295 0 30852
0.17050000 0.17049200 8592.05762532 0 -34.25068670 0 2566.58703761 0 175.11988933 0 -80.74924695 0 31257
0.17150000 0.17149500 8471.12569365 0 85.13477336 0 2373.68499462 0 309.61431167 0 112.40734879 0 32608
0.17250000 0.17250900 8491.42126504 0 205.72822406 0 2466.60394450 0 157.41856364 0 -188.16640967 0 32361
0.17350000 0.17350400 8268.95611479 0 148.76222010 0 2155.88129311 0 -20.96622211 0 122.81865582 0 32508
0.17450000 0.17449800 8086.58385270 0 195.61808427 0 2130.47030766 0 108.02846577 0 133.09709495 0 32791
0.17550000 0.17549800 8047.55390771 0 9.91992832 0 2124.29195041 0 -78.23007160 0 -48.83924971 0 33633
0.17650000 0.17650100 7961.13441250 0 16.69551570 0 2156.64528353 0 280.06559843 0 -74.29297434 0 33984
0.17750000 0.17750300 7965.74049963 0 121.11794673 0 2035.74656883 0 110.25212077 0 -80.78036018 0 34069
