### header ###
fiducial parameters:
Omega_m = 0.31
Omega_nu = 0
Omega_de = 0.69
Omega_k = 0
H_0 = 100
w_de = -1
zeff = 0
beta = 0
fgrowth = 0
b_1 = 2
gamma = 0.55
Lx = 3500 Ly = 3500 Lz = 3500
nx = 700 ny = 700 nz = 700
xoffset = -685.467585 yoffset = -31.7331281 zoffset = 572.489161
bins = 400 dk = 0.001
kx_ny = 0.628318531 ky_ny = 0.628318531 kz_ny = 0.628318531
############################
A(data) = 8.00511216 (not used)
A(ran) = 8.00705481 (used)
Ngal = 475485
weighted Ngal = 0
Nran = 23820508
weighted Nran = 0
SN(data) = 3486.51376
SN(ran) = 69.7443513
SN(data+ran) = 3556.25812
############################
13 columns: k_central k_mean P_0(k) sigma^{lin}_{P_0(k)} P^img_1(k) sigma^{lin}_{P_1(k)} P_2(k) sigma^{lin}_{P_2(k)} P^img_3(k) sigma^{lin}_{P_3(k)} P_4(k) sigma^{lin}_{P_4(k)} N_modes
### header ###
0.00050000 0 0 0 0 0 0 0 0 0 0 0 0
0.00150000 0.00179520 18379.94847570 0 -28753.60959829 0 -16137.24908369 0 4296.25025916 0 11150.93832486 0 3
0.00250000 0.00253879 26904.30990708 0 -21320.09360805 0 868.50319368 0 -44652.36080539 0 4111.23171144 0 6
0.00350000 0.00331552 36573.66044796 0 -1421.62007277 0 -13320.11748008 0 20371.30609434 0 11918.91477428 0 7
0.00450000 0.00420575 39778.76631321 0 4550.30475212 0 8406.59618461 0 -18689.64140088 0 14470.86419848 0 24
0.00550000 0.00557378 35310.86180239 0 3177.08181114 0 5992.78508484 0 10243.06305135 0 7337.30855990 0 45
0.00650000 0.00659388 45717.73989944 0 -11870.19654508 0 10967.96815723 0 26357.33706104 0 21212.91350380 0 40
0.00750000 0.00754703 43408.60655851 0 -9012.27449684 0 -5671.49943558 0 19336.81878653 0 -4300.41345329 0 57
0.00850000 0.00846663 56304.21110504 0 -15320.66512831 0 -10983.18153153 0 23876.13979243 0 10109.12113802 0 75
0.00950000 0.00948925 67586.91009524 0 -21910.35924413 0 -25386.18345120 0 13566.47670729 0 3666.56714672 0 112
0.01050000 0.01054430 80332.59536373 0 -15271.83617586 0 -18828.93124710 0 -3461.13123204 0 4589.98796427 0 105
0.01150000 0.01145670 82879.67296501 0 -126.72054308 0 -25294.28315520 0 14959.48589273 0 21327.62278892 0 144
0.01250000 0.01249090 83487.65432081 0 -2221.47374534 0 -21064.98724423 0 -8451.84877614 0 26380.03532692 0 169
0.01350000 0.01339930 79887.70935252 0 4496.64826605 0 -19943.58218659 0 -6320.34874228 0 31620.23449384 0 180
0.01450000 0.01448870 80868.38516171 0 9868.48630274 0 -4784.26297554 0 -7871.63681100 0 34355.98451003 0 267
0.01550000 0.01550050 77674.13017477 0 5725.53238070 0 10460.99962076 0 -16114.10792482 0 70924.88385832 0 238
0.01650000 0.01653350 76444.88067341 0 4265.63528103 0 20655.64339568 0 1605.16600128 0 48720.66511350 0 315
0.01750000 0.01747870 75144.10395371 0 1424.79782999 0 35480.15764887 0 -1991.81158395 0 52235.68535043 0 297
0.01850000 0.01844180 76706.18753913 0 -815.76571057 0 43837.21625224 0 10541.77223031 0 43015.53902745 0 388
0.01950000 0.01947590 76996.28244938 0 -1228.28620911 0 40687.91490407 0 8127.39644198 0 32392.75059644 0 399
0.02050000 0.02045430 75712.22494016 0 3267.18839051 0 39476.38112242 0 11505.69561205 0 20695.39304178 0 462
0.02150000 0.02154770 75972.42457340 0 4036.70389308 0 36397.05686710 0 -3028.82338182 0 24381.14852741 0 571
0.02250000 0.02255340 71966.78962376 0 2000.35941871 0 42032.64875330 0 -6992.73781154 0 32465.49577050 0 510
0.02350000 0.02348930 66756.70718034 0 5331.77836550 0 33844.77527316 0 3905.70721815 0 17511.43531693 0 555
0.02450000 0.02439640 71426.12800286 0 2519.33035529 0 39625.52533772 0 8654.54982660 0 20252.27860254 0 592
0.02550000 0.02547300 69365.01473787 0 -162.73549402 0 40700.31590787 0 15675.64386200 0 17947.57419154 0 837
0.02650000 0.02652900 68008.65494759 0 1357.74383089 0 35399.44040094 0 16016.22857342 0 25682.14669360 0 723
0.02750000 0.02749970 67216.31938356 0 -615.19718988 0 26520.65385212 0 14387.37886935 0 24829.02406633 0 826
0.02850000 0.02848090 64225.24155705 0 -596.98432278 0 24321.80086638 0 16220.51296632 0 39518.45595673 0 831
0.02950000 0.02946900 68039.76818033 0 -1954.80787441 0 13348.24118512 0 10755.85563068 0 27295.16297318 0 996
0.03050000 0.03053250 66385.78429892 0 -167.94280838 0 8002.67777522 0 11055.69418677 0 27213.11704628 0 1041
0.03150000 0.03150510 65015.80554911 0 5741.87513213 0 3955.64340309 0 -2712.95209939 0 18018.43707038 0 1036
0.03250000 0.03246190 62166.23203378 0 2707.96955322 0 4580.15573983 0 -5079.66152938 0 25528.90571811 0 1059
0.03350000 0.03345080 53823.56745267 0 5407.43556098 0 1254.16223221 0 -1232.58227114 0 5293.62313417 0 1302
0.03450000 0.03451200 52629.86011398 0 3127.55530222 0 4827.54469325 0 200.79771782 0 7092.90913418 0 1339
0.03550000 0.03553350 49266.53072706 0 108.02071514 0 4411.93390886 0 -514.59626104 0 -2019.16022625 0 1365
0.03650000 0.03647120 49413.01758441 0 104.36740157 0 2849.58458765 0 1808.40959566 0 -1139.97334635 0 1308
0.03750000 0.03744890 49514.88297275 0 1315.32575451 0 7337.34177687 0 -5998.15516238 0 -1682.50619014 0 1579
0.03850000 0.03847530 48683.68354861 0 1651.99086294 0 5496.42383555 0 -1789.85237926 0 -2461.99785737 0 1662
0.03950000 0.03950240 47592.61666098 0 1248.84751630 0 8738.76592917 0 -1827.24362017 0 2426.51105633 0 1683
0.04050000 0.04050350 48201.37307951 0 370.39030260 0 10689.33310317 0 -2158.60508502 0 -1088.43499602 0 1822
0.04150000 0.04152450 46034.29766600 0 3163.49606859 0 14436.42926830 0 -2600.19154344 0 61.09531678 0 1887
0.04250000 0.04250150 46185.43489978 0 1121.26111741 0 18280.96189183 0 197.24682325 0 666.06123563 0 1920
0.04350000 0.04349210 44437.66842716 0 760.86358796 0 15393.96391861 0 1817.95393965 0 2406.84660745 0 2005
0.04450000 0.04448520 44877.35044570 0 -391.40668234 0 19414.76795326 0 2812.63623973 0 2561.30553867 0 2151
0.04550000 0.04548030 44006.73354521 0 897.57690419 0 16283.62521779 0 274.64348096 0 -3322.39500206 0 2274
0.04650000 0.04648670 42316.21099190 0 1801.95443029 0 16929.58464771 0 2895.55688030 0 -276.72175633 0 2311
0.04750000 0.04749250 38974.02974539 0 2148.78393291 0 13016.51433355 0 1361.80737409 0 1586.24339817 0 2568
0.04850000 0.04851840 38747.71142610 0 1360.65585231 0 12569.30313413 0 3442.05361637 0 1033.86947208 0 2493
0.04950000 0.04949480 38328.73465496 0 -352.43652791 0 13049.62058476 0 -1237.71982985 0 -976.59122856 0 2644
0.05050000 0.05050630 37770.91093060 0 636.97645279 0 12202.25556639 0 -1022.00104711 0 -1136.75129983 0 2829
0.05150000 0.05149060 37904.99678415 0 699.26270883 0 11971.61904042 0 -378.93813736 0 -1777.50673709 0 2784
0.05250000 0.05249300 37554.00408740 0 37.02175743 0 13734.44387479 0 -226.09576556 0 2894.03997180 0 3055
0.05350000 0.05348950 36521.95269106 0 76.87492977 0 11021.04888241 0 2317.73653731 0 -1966.00199480 0 3009
0.05450000 0.05448610 37393.23393104 0 65.56067465 0 14125.07549440 0 2555.35970025 0 1303.93233227 0 3336
0.05550000 0.05550870 36534.13224836 0 902.37675700 0 10647.09218399 0 1813.80181784 0 733.76850189 0 3349
0.05650000 0.05647670 36749.48896608 0 661.93458017 0 12823.96660496 0 1043.18683342 0 337.38370232 0 3324
0.05750000 0.05747970 34506.78957406 0 1685.24105437 0 12195.94434124 0 -295.57792550 0 4056.06938919 0 3639
0.05850000 0.05849280 35468.86387756 0 755.78360533 0 13158.12936798 0 75.62508574 0 2572.11212770 0 3846
0.05950000 0.05951020 32900.97030561 0 1479.76085039 0 13292.21522154 0 348.47817178 0 988.59362867 0 3787
0.06050000 0.06049470 32897.20571518 0 1476.05162157 0 12619.23931906 0 724.83202853 0 2061.43436241 0 3930
0.06150000 0.06148310 31187.08514694 0 449.47548985 0 11701.89720783 0 1511.82630306 0 2196.69388240 0 4083
0.06250000 0.06249100 31595.98610249 0 -1261.79106401 0 10773.75957991 0 2124.53554155 0 1788.63442353 0 4303
0.06350000 0.06350600 33015.90103723 0 -450.15754506 0 11079.18966003 0 2427.24182977 0 -173.14126489 0 4470
0.06450000 0.06451750 32631.46991953 0 804.66016878 0 10668.22925207 0 -332.49859261 0 1735.84157879 0 4479
0.06550000 0.06550280 32184.59088985 0 1333.93833253 0 11465.39234971 0 -1037.12473558 0 4705.61625235 0 4636
0.06650000 0.06648880 31130.39484387 0 1430.78795772 0 10855.40690312 0 -907.41687926 0 5873.50292957 0 4653
0.06750000 0.06749660 30734.66995485 0 465.00553264 0 13150.93235685 0 1518.38111936 0 5771.08392500 0 5220
0.06850000 0.06852730 29885.31191801 0 353.46293242 0 13777.73666483 0 1609.39562936 0 4883.76995868 0 5029
0.06950000 0.06949320 29802.15875862 0 242.95116564 0 12524.23877212 0 2202.59543152 0 6961.21490278 0 5040
0.07050000 0.07048030 28699.02303694 0 -53.09423342 0 11895.66289216 0 1457.21759706 0 4246.93412441 0 5475
0.07150000 0.07148790 28880.05554772 0 148.62160158 0 11049.56011882 0 1030.09602378 0 3411.66008475 0 5509
0.07250000 0.07249820 28857.02511210 0 10.68357549 0 9893.13329779 0 27.35074604 0 995.31452983 0 5916
0.07350000 0.07351270 28603.69032025 0 441.60417414 0 10497.04003804 0 -771.21288997 0 1805.51971888 0 5721
0.07450000 0.07449140 27487.15708554 0 1244.61788821 0 8131.71464866 0 -757.37469841 0 887.66274455 0 6028
0.07550000 0.07549160 27310.44278143 0 1505.38221002 0 8966.46828906 0 -774.57776948 0 -643.13820156 0 6183
0.07650000 0.07648840 25874.14080596 0 229.82713903 0 8536.40812078 0 -578.76259783 0 -525.73059088 0 6330
0.07750000 0.07749960 26448.79446405 0 10.27176252 0 9501.51624127 0 691.41575223 0 -2258.33351466 0 6583
0.07850000 0.07848650 26369.95951134 0 -130.62464482 0 9029.81305935 0 656.29655237 0 -1296.15956025 0 6549
0.07950000 0.07947320 26473.70719489 0 -498.17046717 0 8927.90338172 0 1998.65428069 0 -978.79572843 0 6828
0.08050000 0.08048110 26652.96813370 0 1013.38013500 0 8799.78551124 0 304.96061355 0 -72.89531478 0 7147
0.08150000 0.08149960 25414.08570974 0 1664.58009626 0 9413.09265527 0 -148.38243936 0 1437.97389652 0 7386
0.08250000 0.08250610 23833.06844889 0 1712.51219040 0 9008.36596618 0 1060.24042810 0 3307.24806171 0 7227
0.08350000 0.08350160 23269.37639237 0 433.66310278 0 9621.38522976 0 1098.37905094 0 5017.62329342 0 7798
0.08450000 0.08449610 23696.76813037 0 -746.27580001 0 9180.85064220 0 1798.26734612 0 3282.73393456 0 7371
0.08550000 0.08548940 23705.73671347 0 -635.08640695 0 9702.10247769 0 1836.40043280 0 4703.14712392 0 8256
0.08650000 0.08650700 23691.67486095 0 335.79814540 0 8583.18869314 0 840.03071041 0 3134.03261224 0 8037
0.08750000 0.08749060 23735.74271373 0 1124.10670489 0 9159.02708998 0 -603.71518904 0 4669.87478784 0 8155
0.08850000 0.08849210 21908.91984190 0 1233.81129919 0 8426.85853903 0 -126.62753556 0 3858.00764283 0 8718
0.08950000 0.08949900 21554.49472446 0 1167.83131560 0 9088.02027092 0 316.27652951 0 4199.86567161 0 8571
0.09050000 0.09049190 20752.85840759 0 316.44261439 0 8738.89879707 0 -132.82471576 0 3022.84432641 0 8932
0.09150000 0.09150830 20286.60280948 0 -9.52792374 0 8467.51611576 0 458.05654158 0 2526.81524686 0 9285
0.09250000 0.09250820 20439.84378497 0 337.65165258 0 8903.62177339 0 -333.98560583 0 2309.76446344 0 9204
0.09350000 0.09350330 20094.94086686 0 336.04284378 0 7753.26258636 0 1166.30333477 0 822.40799823 0 9349
0.09450000 0.09448040 19547.52512783 0 675.90453239 0 7943.99445369 0 960.91170939 0 845.36092758 0 9564
0.09550000 0.09549270 18959.14178697 0 541.46436444 0 6388.65391409 0 801.84558381 0 724.90289141 0 10155
0.09650000 0.09649430 18848.30781553 0 23.04571543 0 6769.29829670 0 1149.83878777 0 294.38432888 0 9913
0.09750000 0.09749140 18490.00738440 0 165.56447301 0 5240.90779571 0 224.90438341 0 717.79556611 0 10476
0.09850000 0.09850240 18398.10708841 0 136.98569542 0 6138.22007134 0 -87.49384289 0 906.48901844 0 10575
0.09950000 0.09950330 18378.39835023 0 101.88985817 0 5466.56177551 0 -262.80827297 0 472.38523713 0 10882
0.10050000 0.10051200 18201.35187638 0 213.17657697 0 5819.90180513 0 -167.80108263 0 727.73297764 0 10875
0.10150000 0.10150300 17878.59360792 0 659.66696805 0 6217.39826612 0 -575.43425699 0 503.84503364 0 11118
0.10250000 0.10250800 17668.44088286 0 338.21634114 0 6603.51237719 0 365.96580160 0 488.82653226 0 11575
0.10350000 0.10349800 17126.22913649 0 341.59782914 0 6053.58322042 0 288.41966750 0 282.40960959 0 11364
0.10450000 0.10450100 16861.37912683 0 514.28623594 0 6149.49169800 0 580.90841438 0 -6.67002383 0 12093
0.10550000 0.10551000 16485.80586898 0 262.42184883 0 6068.91839030 0 194.83969983 0 -159.88769208 0 12067
0.10650000 0.10649700 16015.12134094 0 355.90659451 0 5758.60541493 0 217.14489818 0 45.45156121 0 12054
0.10750000 0.10749900 16008.69939254 0 451.53162057 0 5666.12935804 0 738.26497300 0 510.25923141 0 12807
0.10850000 0.10850100 15602.45579495 0 61.74105476 0 5674.79898838 0 800.35857059 0 1105.94809219 0 12736
0.10950000 0.10950300 15735.76658576 0 -67.05809586 0 5082.72856335 0 976.51040059 0 1674.23516350 0 12933
0.11050000 0.11050200 15544.87970589 0 44.16971817 0 5125.24629065 0 813.94542037 0 2395.35353429 0 13428
0.11150000 0.11150900 15696.01693966 0 136.32578486 0 4533.16479330 0 658.56637896 0 1752.54971694 0 13453
0.11250000 0.11250000 15436.26019942 0 291.82440739 0 4482.16566519 0 284.43141610 0 2932.84847029 0 13668
0.11350000 0.11349100 15377.35543138 0 70.93484895 0 4977.12072923 0 -455.51876474 0 1934.03619305 0 13791
0.11450000 0.11448600 15246.36982878 0 5.41198629 0 4637.06748940 0 331.94829806 0 2219.58037780 0 14205
0.11550000 0.11549300 15121.36328158 0 218.45364697 0 4613.52772683 0 -245.29406957 0 1538.64347377 0 14776
0.11650000 0.11649800 15167.20270633 0 29.08688658 0 3962.65218470 0 349.31523954 0 588.05006389 0 14553
0.11750000 0.11747300 14890.06241612 0 71.95682453 0 4050.14569541 0 23.58216957 0 185.78807429 0 14568
0.11850000 0.11849100 14686.11019296 0 190.93338364 0 3961.06884225 0 10.84497677 0 -143.05000773 0 16015
0.11950000 0.11950300 14682.56704901 0 232.31730488 0 3835.66369135 0 274.20280244 0 -499.54564991 0 15270
0.12050000 0.12050700 14323.82372489 0 273.16089667 0 3386.81378785 0 -254.67454315 0 -494.83216124 0 15999
0.12150000 0.12150000 14208.33937703 0 381.07177435 0 3751.29257623 0 -753.89688118 0 -699.26049436 0 15670
0.12250000 0.12250700 13865.42947740 0 335.60327249 0 3939.67711070 0 -307.77298405 0 -842.60613316 0 16887
0.12350000 0.12352200 13670.88873033 0 209.24368719 0 4349.95103453 0 -72.81371175 0 -342.11490671 0 16407
0.12450000 0.12449800 13783.16210400 0 55.24248588 0 4545.62115872 0 -251.40377840 0 -659.57728221 0 16306
0.12550000 0.12549900 13777.95811133 0 -9.66365937 0 4674.29264544 0 721.42507419 0 -472.34869846 0 17523
0.12650000 0.12650100 13760.02094512 0 -48.38306993 0 4598.97869202 0 28.18814597 0 -417.75438648 0 17154
0.12750000 0.12750600 13651.51216190 0 217.87677885 0 4026.12982288 0 723.47788321 0 33.72663357 0 18007
0.12850000 0.12850300 13671.44234658 0 287.19396115 0 4457.00934320 0 254.25490204 0 133.80793820 0 17496
0.12950000 0.12949900 13041.64851089 0 484.43967716 0 4389.42387251 0 478.95887638 0 334.75070347 0 18405
0.13050000 0.13049000 12837.69628773 0 400.69414840 0 3957.10494996 0 324.52430427 0 226.32828439 0 18100
0.13150000 0.13148800 12391.14942780 0 251.72930475 0 3658.88295330 0 276.71732740 0 334.47721705 0 19059
0.13250000 0.13249300 12353.72496991 0 117.23266795 0 3687.89244432 0 117.05108182 0 662.56016652 0 18957
0.13350000 0.13349100 12318.95786998 0 -96.15107222 0 3321.14382935 0 450.68901665 0 711.14995675 0 19468
0.13450000 0.13450700 12254.40621629 0 -24.67423297 0 3113.73704085 0 295.38637428 0 361.13162459 0 19953
0.13550000 0.13551000 12386.27760488 0 81.92789592 0 2940.38872349 0 134.38369909 0 231.08938406 0 19956
0.13650000 0.13649900 12088.54279050 0 374.21136190 0 3339.87820295 0 -222.76631749 0 1.71301045 0 19723
0.13750000 0.13749600 11753.93713448 0 560.71027944 0 3668.79268401 0 -444.22056449 0 685.37801351 0 20946
0.13850000 0.13851100 11418.00279948 0 414.29207051 0 3790.67683561 0 -226.61062867 0 810.17972270 0 20955
0.13950000 0.13949800 11233.87003775 0 216.75736681 0 4083.49553777 0 236.50153643 0 801.16352860 0 20506
0.14050000 0.14048300 10988.08657143 0 160.19328824 0 3939.05706051 0 480.43260281 0 823.70567470 0 21447
0.14150000 0.14148400 10904.50159137 0 -14.36124818 0 3694.17045249 0 491.08750098 0 661.51826075 0 21771
0.14250000 0.14249400 10793.77834318 0 87.49085336 0 3513.41474983 0 357.37699924 0 677.61077765 0 22470
0.14350000 0.14350900 10726.76863338 0 139.01525256 0 3330.25635268 0 348.82141385 0 397.01260039 0 22519
0.14450000 0.14449900 10677.95075326 0 96.53561406 0 2855.40863051 0 160.76683467 0 613.65038610 0 22218
0.14550000 0.14550500 10523.24823089 0 15.22876483 0 2767.63831167 0 112.99086031 0 569.58806948 0 23559
0.14650000 0.14650700 10620.89506347 0 49.60124711 0 2899.05573494 0 -25.57585238 0 167.71250403 0 23044
0.14750000 0.14750500 10419.36767944 0 239.37701918 0 2838.85550490 0 -57.31865750 0 313.21613893 0 23649
0.14850000 0.14849900 10291.22766431 0 330.52882602 0 2643.09680211 0 -155.52408887 0 317.97391691 0 23640
0.14950000 0.14949500 10228.75760769 0 -70.79046584 0 2638.45749801 0 -9.73462190 0 -59.73264576 0 24457
0.15050000 0.15050000 10336.88993187 0 -80.29251355 0 2591.07902011 0 222.56258671 0 -152.62756870 0 24591
0.15150000 0.15149900 10208.20737282 0 -2.15430902 0 2272.61681368 0 11.50082379 0 -857.04444473 0 25020
0.15250000 0.15250500 10264.76480800 0 184.40071199 0 2224.14217562 0 -141.21310904 0 -909.71881559 0 25297
0.15350000 0.15350100 10195.30811441 0 143.94465157 0 2372.90993188 0 -293.58712150 0 -1439.96691499 0 25452
0.15450000 0.15450400 9857.76829231 0 273.33473217 0 2495.91238829 0 -475.90070026 0 -1069.94864250 0 26061
0.15550000 0.15549900 9712.56582464 0 447.60648142 0 2874.01013620 0 -354.13391530 0 -962.53712667 0 26128
0.15650000 0.15649500 9524.40273667 0 159.02072905 0 2908.26790919 0 193.14895583 0 -347.30118366 0 26331
0.15750000 0.15749700 9507.78317712 0 -59.21634326 0 3446.85900534 0 324.10134146 0 -30.91603464 0 27345
0.15850000 0.15849900 9524.23665180 0 84.53963590 0 3366.26355299 0 472.48710252 0 -253.82418861 0 26980
0.15950000 0.15949700 9467.19203434 0 140.22767213 0 3634.73421287 0 366.78847534 0 199.40592659 0 27777
0.16050000 0.16050000 9323.76113864 0 148.19310261 0 3156.88589067 0 146.18901181 0 800.86014690 0 28224
0.16150000 0.16150500 9150.80035264 0 90.58601104 0 3223.45270748 0 327.00450503 0 439.16161928 0 28075
0.16250000 0.16249700 9185.44565700 0 33.54825841 0 2865.76125421 0 31.97598829 0 258.34391160 0 28590
0.16350000 0.16349900 9016.89165629 0 124.16062159 0 2630.75115994 0 84.26847467 0 -22.11597232 0 29163
0.16450000 0.16449100 9047.19660932 0 51.57522117 0 2242.56652412 0 56.63139830 0 -34.65194775 0 28996
0.16550000 0.16550500 8850.29745707 0 11.32410949 0 2221.72840881 0 193.06923510 0 132.18141368 0 30777
0.16650000 0.16650700 8923.26407762 0 73.19338177 0 1878.67456895 0 444.23052958 0 -340.44741459 0 29211
0.16750000 0.16749900 8851.36040025 0 22.29124722 0 2106.50979675 0 114.80782881 0 -223.26346488 0 30922
0.16850000 0.16850800 8735.54388265 0 231.27650635 0 1975.72349599 0 229.53482965 0 77.21872545 0 30867
0.16950000 0.16949900 8543.20652822 0 162.31142398 0 1931.79958343 0 179.17789638 0 212.50005792 0 30852
0.17050000 0.17049200 8516.82117818 0 -17.94757419 0 1973.65297125 0 150.77073982 0 366.03445002 0 31257
0.17150000 0.17149500 8601.04835307 0 -65.58038339 0 1928.53324761 0 -12.96757466 0 398.41435672 0 32608
0.17250000 0.17250900 8467.71541761 0 204.00315585 0 2103.52026905 0 -19.27946414 0 294.43858327 0 32361
0.17350000 0.17350400 8418.73145261 0 126.64746574 0 1869.37381611 0 -91.87649050 0 517.13514512 0 32508
0.17450000 0.17449800 8262.58952802 0 119.85570170 0 1943.25943962 0 4.21957441 0 339.14530920 0 32791
0.17550000 0.17549800 8255.41466153 0 141.13560277 0 1950.46752308 0 -108.79378486 0 435.33945275 0 33633
0.17650000 0.17650100 8078.92180393 0 255.99104257 0 2037.75065962 0 144.80607844 0 95.30924336 0 33984
0.17750000 0.17750300 7857.36458430 0 190.61339345 0 1861.12493412 0 62.64422430 0 436.93386753 0 34069
0.17850000 0.17849800 7740.47405119 0 150.91689451 0 1973.50903103 0 103.55823607 0 263.57890677 0 34536
