### header ###
fiducial parameters:
Omega_m = 0.31
Omega_nu = 0
Omega_de = 0.69
Omega_k = 0
H_0 = 100
w_de = -1
zeff = 0
beta = 0
fgrowth = 0
b_1 = 2
gamma = 0.55
Lx = 3500 Ly = 3500 Lz = 3500
nx = 700 ny = 700 nz = 700
xoffset = -685.467585 yoffset = -31.7331281 zoffset = 572.489161
bins = 400 dk = 0.001
kx_ny = 0.628318531 ky_ny = 0.628318531 kz_ny = 0.628318531
############################
A(data) = 8.04836163 (not used)
A(ran) = 8.04485663 (used)
Ngal = 478097
weighted Ngal = 0
Nran = 23820508
weighted Nran = 0
SN(data) = 3488.09742
SN(ran) = 70.0736188
SN(data+ran) = 3558.17104
############################
13 columns: k_central k_mean P_0(k) sigma^{lin}_{P_0(k)} P^img_1(k) sigma^{lin}_{P_1(k)} P_2(k) sigma^{lin}_{P_2(k)} P^img_3(k) sigma^{lin}_{P_3(k)} P_4(k) sigma^{lin}_{P_4(k)} N_modes
### header ###
0.00050000 0 0 0 0 0 0 0 0 0 0 0 0
0.00150000 0.00179520 36055.03275345 0 -45806.20777474 0 6560.25280412 0 68252.79970984 0 -95376.45237158 0 3
0.00250000 0.00253879 58912.74010907 0 -41547.90237274 0 25315.43129561 0 -15562.59542560 0 112370.81011948 0 6
0.00350000 0.00331552 69200.25854457 0 -15395.29259759 0 27638.95865880 0 -46979.65275902 0 -30495.61846201 0 7
0.00450000 0.00420575 75362.56092239 0 2041.82527516 0 31341.98697115 0 -18882.07840623 0 39359.78954208 0 24
0.00550000 0.00557378 73141.00967077 0 6971.96613018 0 41342.62147060 0 -1298.37402521 0 20926.47246075 0 45
0.00650000 0.00659388 82017.58175463 0 10531.48604055 0 53279.69485758 0 -20178.97981224 0 34028.02224890 0 40
0.00750000 0.00754703 64054.83847810 0 20801.90880654 0 42124.99194228 0 17274.70901231 0 11571.90811446 0 57
0.00850000 0.00846663 64081.07988792 0 8284.62345441 0 43582.10988842 0 13496.49961444 0 36027.24121816 0 75
0.00950000 0.00948925 54864.25526238 0 2529.86013619 0 37823.61519674 0 30954.45560250 0 21731.76264481 0 112
0.01050000 0.01054430 57273.81458941 0 -76.10761766 0 21530.24633311 0 31263.92708118 0 13090.58818659 0 105
0.01150000 0.01145670 57085.14217450 0 679.48975117 0 9253.07541699 0 24751.29634610 0 1819.23832933 0 144
0.01250000 0.01249090 58998.10773342 0 -2190.12799378 0 -5516.40938185 0 11432.17537525 0 16857.39308989 0 169
0.01350000 0.01339930 58939.31368863 0 -3231.39156437 0 -11768.33115675 0 11545.00236515 0 -2029.78965808 0 180
0.01450000 0.01448870 67278.21367930 0 -10184.56795934 0 -16121.63710569 0 7916.76760696 0 3237.81351277 0 267
0.01550000 0.01550050 73103.25304314 0 -9210.03729042 0 -6188.57700461 0 -9313.84033560 0 3854.79666864 0 238
0.01650000 0.01653350 79652.86534312 0 5061.96795431 0 119.93874413 0 -10190.67988264 0 -7058.24168517 0 315
0.01750000 0.01747870 73610.80841283 0 8229.72686796 0 7606.25532974 0 -13697.79447964 0 13052.61011246 0 297
0.01850000 0.01844180 71882.19706214 0 6021.07487476 0 20159.82469030 0 -8583.75338171 0 15103.53683862 0 388
0.01950000 0.01947590 72571.56000535 0 -5353.67942399 0 34360.74560971 0 -198.24222525 0 13573.45227193 0 399
0.02050000 0.02045430 75469.51958013 0 -760.66871504 0 31718.88890798 0 18996.12335186 0 12787.64937955 0 462
0.02150000 0.02154770 79651.64738739 0 991.36503157 0 32393.52565918 0 3147.46334225 0 9593.78192399 0 571
0.02250000 0.02255340 74259.53592395 0 3386.73628158 0 22010.67450699 0 10124.32344000 0 12554.46621887 0 510
0.02350000 0.02348930 78838.49585270 0 -527.53205812 0 26255.58239596 0 12626.10416045 0 -476.90496012 0 555
0.02450000 0.02439640 70894.76713481 0 1911.60366296 0 11121.48594084 0 2515.94222389 0 1824.63055151 0 592
0.02550000 0.02547300 67829.61545527 0 6291.27281731 0 13819.36860615 0 646.63816343 0 -8896.11473717 0 837
0.02650000 0.02652900 61122.33324988 0 7145.15943499 0 12916.64196369 0 -3611.68163259 0 -1551.84168496 0 723
0.02750000 0.02749970 56910.86378186 0 6144.32092231 0 16525.66623833 0 354.09626940 0 -5177.40801287 0 826
0.02850000 0.02848090 53477.55730209 0 1918.02561136 0 17021.92783670 0 900.75576865 0 3416.88622206 0 831
0.02950000 0.02946900 52893.15999816 0 -560.83871841 0 20821.39609822 0 4428.38738354 0 4420.90249197 0 996
0.03050000 0.03053250 55128.55165580 0 -1783.00968252 0 18797.92873761 0 -1016.35083975 0 1080.46402938 0 1041
0.03150000 0.03150510 56451.91591812 0 -688.61113235 0 18720.64391037 0 5784.72502918 0 8985.77842355 0 1036
0.03250000 0.03246190 56129.60054265 0 -220.41344847 0 15175.06405695 0 5850.84895299 0 5322.33367243 0 1059
0.03350000 0.03345080 57408.23261271 0 2070.08184809 0 12762.40447896 0 2436.13290660 0 2156.42383703 0 1302
0.03450000 0.03451200 53528.82216600 0 672.26063029 0 8793.81752817 0 2439.85320774 0 -2447.31595467 0 1339
0.03550000 0.03553350 52263.14471598 0 1977.16289822 0 7829.38481949 0 -490.76972526 0 -9182.85473299 0 1365
0.03650000 0.03647120 49306.28037316 0 822.97047233 0 5984.46976891 0 -2838.54547981 0 -7003.56654521 0 1308
0.03750000 0.03744890 48898.26520359 0 301.62230762 0 6555.56921073 0 -3646.17192440 0 -10141.57412207 0 1579
0.03850000 0.03847530 50072.37452736 0 1403.39502611 0 6017.81961126 0 -2911.65604058 0 -12908.22699683 0 1662
0.03950000 0.03950240 49060.14259244 0 1433.38995405 0 11335.84614933 0 -4831.08783720 0 -7799.81063990 0 1683
0.04050000 0.04050350 47544.67349452 0 2379.59761607 0 8008.49074575 0 -3583.70186778 0 -7672.10244544 0 1822
0.04150000 0.04152450 46531.22360386 0 1567.18792716 0 13882.59158087 0 258.70486939 0 -6995.15157835 0 1887
0.04250000 0.04250150 45255.91323125 0 379.78627744 0 16497.09964029 0 -2034.17429871 0 -4535.94394683 0 1920
0.04350000 0.04349210 45465.95523306 0 57.49825061 0 17816.58858893 0 3224.85889273 0 -6017.66459871 0 2005
0.04450000 0.04448520 45651.30595053 0 259.07136334 0 16928.14524548 0 4639.18230344 0 -374.48041939 0 2151
0.04550000 0.04548030 45293.22696589 0 -1341.88826175 0 14670.27676847 0 6517.59113660 0 -2973.55033632 0 2274
0.04650000 0.04648670 46185.21345328 0 810.28933872 0 15268.62520167 0 3408.65948472 0 1542.36377491 0 2311
0.04750000 0.04749250 44312.21898696 0 2891.81443451 0 13997.30086599 0 334.58351137 0 1601.89966546 0 2568
0.04850000 0.04851840 42014.26869410 0 2661.13361924 0 16156.84709862 0 1463.01949526 0 5053.17652841 0 2493
0.04950000 0.04949480 39863.35887483 0 2933.99999207 0 15651.72764039 0 -3431.52383547 0 8683.94684899 0 2644
0.05050000 0.05050630 38157.33506677 0 1948.39699834 0 18597.40893514 0 1548.66392773 0 9691.93808351 0 2829
0.05150000 0.05149060 36801.41816948 0 199.87760763 0 14976.64799620 0 2215.17359252 0 5334.23642161 0 2784
0.05250000 0.05249300 37163.26174455 0 -477.34674588 0 17391.74348564 0 3805.32552135 0 6017.42100757 0 3055
0.05350000 0.05348950 37463.32174714 0 -491.19158084 0 14140.35530265 0 -1003.21795529 0 1092.42546188 0 3009
0.05450000 0.05448610 37289.81841723 0 2865.77232654 0 16646.24385560 0 -242.44405316 0 752.66453143 0 3336
0.05550000 0.05550870 34002.66662507 0 3428.39036755 0 14234.24861711 0 -6066.02851352 0 1734.12536845 0 3349
0.05650000 0.05647670 32197.43478664 0 1964.72867744 0 16276.09603691 0 649.03753622 0 3950.32868717 0 3324
0.05750000 0.05747970 32304.50416763 0 -1776.76489132 0 15953.55921495 0 750.96271510 0 2107.24057019 0 3639
0.05850000 0.05849280 32986.89154621 0 -1292.70499490 0 15887.67888228 0 4352.53088621 0 385.07331254 0 3846
0.05950000 0.05951020 34848.92441096 0 -734.61664198 0 14616.79743959 0 2729.29485082 0 -862.27943990 0 3787
0.06050000 0.06049470 33866.58775305 0 1105.03019646 0 13889.23497576 0 1380.92927906 0 2456.97102191 0 3930
0.06150000 0.06148310 34160.00436074 0 1476.22877877 0 14833.37211304 0 -492.63762646 0 1121.26111741 0 4083
0.06250000 0.06249100 32511.77808824 0 950.35646214 0 14262.37232215 0 1869.80563677 0 2847.87944963 0 4303
0.06350000 0.06350600 31665.96319534 0 11.69436803 0 12883.97860547 0 2043.89579990 0 351.30604354 0 4470
0.06450000 0.06451750 31425.91519327 0 -386.67879964 0 12562.77046248 0 3206.08022984 0 1643.34337726 0 4479
0.06550000 0.06550280 31676.92479691 0 550.20264319 0 9771.32665246 0 -9.52528852 0 1614.55533273 0 4636
0.06650000 0.06648880 30730.24102492 0 507.09808267 0 8343.06318480 0 2515.46611392 0 1707.60715051 0 4653
0.06750000 0.06749660 30602.79856626 0 -199.21326814 0 7034.51369308 0 992.82879291 0 1977.43970634 0 5220
0.06850000 0.06852730 31154.53251197 0 386.59022104 0 7487.24998259 0 1062.22458871 0 -500.86214933 0 5029
0.06950000 0.06949320 31045.69155900 0 161.03257046 0 6468.71789485 0 -526.23991782 0 -487.18893542 0 5040
0.07050000 0.07048030 29946.20970451 0 242.48944969 0 6457.31340029 0 -890.08315475 0 494.26193651 0 5475
0.07150000 0.07148790 29864.49594735 0 1033.27267377 0 7314.83174052 0 -720.43963728 0 -131.45839087 0 5509
0.07250000 0.07249820 28869.86900889 0 1583.72998044 0 9590.74810699 0 -618.05052798 0 -81.70412424 0 5916
0.07350000 0.07351270 27573.41049587 0 1461.72403326 0 9393.07389200 0 1343.64876139 0 1527.75937848 0 5721
0.07450000 0.07449140 26614.43644333 0 542.94473427 0 8613.57115244 0 587.40344012 0 839.92220163 0 6028
0.07550000 0.07549160 25691.89033944 0 1152.71759222 0 10662.06196714 0 -283.16695661 0 403.49766104 0 6183
0.07650000 0.07648840 25805.16022234 0 840.50128422 0 11037.93417776 0 -909.83286053 0 611.76366195 0 6330
0.07750000 0.07749960 24725.94072226 0 103.32793172 0 10487.98287634 0 598.22885209 0 1943.30372892 0 6583
0.07850000 0.07848650 24874.30987483 0 -153.32401793 0 10729.81352271 0 868.76782225 0 2641.65739988 0 6549
0.07950000 0.07947320 24949.93385334 0 -4.70318034 0 10159.84345802 0 2381.97816591 0 939.17230684 0 6828
0.08050000 0.08048110 24965.87800108 0 413.72295301 0 8026.35040569 0 2743.44528194 0 2242.99834479 0 7147
0.08150000 0.08149960 23919.54330572 0 853.95748057 0 7128.96062378 0 899.09602716 0 1992.18804299 0 7386
0.08250000 0.08250610 23640.18855055 0 390.54304100 0 6575.59904632 0 1449.24552319 0 2888.83597913 0 7227
0.08350000 0.08350160 22670.47434293 0 119.83577151 0 6932.79224497 0 -486.36626168 0 1936.93714215 0 7798
0.08450000 0.08449610 23035.75033870 0 739.47739257 0 5633.89782050 0 848.16665469 0 1947.28976586 0 7371
0.08550000 0.08548940 22545.35707248 0 180.89742842 0 6695.98843408 0 -1210.43762150 0 1200.82684356 0 8256
0.08650000 0.08650700 21794.21055678 0 598.15356028 0 6214.16514727 0 -131.41410158 0 1515.17014516 0 8037
0.08750000 0.08749060 22148.63567423 0 148.30825478 0 7545.55684509 0 607.78980457 0 645.78005826 0 8155
0.08850000 0.08849210 20881.85099173 0 212.75472139 0 6154.79534159 0 1619.29428775 0 355.19907295 0 8718
0.08950000 0.08949900 21229.18982129 0 215.02786968 0 6082.58163912 0 1273.62737924 0 -194.80980456 0 8571
0.09050000 0.09049190 20898.79164870 0 298.03044545 0 5427.54290285 0 529.46528604 0 -777.25173592 0 8932
0.09150000 0.09150830 20510.15304756 0 410.89397402 0 5157.76570865 0 -899.14253092 0 69.43842425 0 9285
0.09250000 0.09250820 19968.16274769 0 840.38723927 0 5170.26636337 0 -1462.79804877 0 -267.14751706 0 9204
0.09350000 0.09350330 19765.64992676 0 472.75837448 0 5534.04759528 0 -438.00013241 0 -266.66697816 0 9349
0.09450000 0.09448040 19500.35702410 0 33.50861949 0 5763.01220021 0 -233.62051751 0 -691.84646567 0 9564
0.09550000 0.09549270 19306.03772354 0 145.00427306 0 5478.91849001 0 402.32510184 0 -2440.79435535 0 10155
0.09650000 0.09649430 19510.21139319 0 284.28415418 0 5419.32723784 0 474.52108859 0 -1152.96118337 0 9913
0.09750000 0.09749140 18732.49129793 0 790.39126378 0 5051.80356013 0 551.02863862 0 -1377.41935209 0 10476
0.09850000 0.09850240 17916.46095880 0 624.24438649 0 5083.04966077 0 123.50624719 0 753.36762406 0 10575
0.09950000 0.09950330 17874.49684773 0 390.19647724 0 6007.19017943 0 426.64435607 0 -1300.43347763 0 10882
0.10050000 0.10051200 17182.91943956 0 388.51902003 0 5940.70086890 0 36.11017293 0 547.65047232 0 10875
0.10150000 0.10150300 17032.22509878 0 878.94661045 0 6840.21653716 0 -297.13026544 0 400.05195356 0 11118
0.10250000 0.10250800 16249.63318060 0 468.63171902 0 6296.35501440 0 -228.13528780 0 378.93260120 0 11575
0.10350000 0.10349800 16119.20119423 0 3.92231571 0 6802.19417374 0 288.54367754 0 535.05791730 0 11364
0.10450000 0.10450100 16189.06756384 0 23.68060254 0 7021.42620515 0 -91.68615723 0 -747.72627456 0 12093
0.10550000 0.10551000 16313.74194130 0 -108.32564697 0 6557.14148085 0 -63.04614969 0 -987.32916917 0 12067
0.10650000 0.10649700 16136.58474420 0 201.32586771 0 5982.14458069 0 -71.98063003 0 -1064.17110341 0 12054
0.10750000 0.10749900 16332.34344699 0 -25.80283503 0 5453.20855178 0 575.23495514 0 -859.37406187 0 12807
0.10850000 0.10850100 16037.59816032 0 -249.13063012 0 4918.03880400 0 782.48673110 0 -1482.91646296 0 12736
0.10950000 0.10950300 16215.64114340 0 360.15393831 0 4957.29019548 0 835.99706248 0 -1494.46489775 0 12933
0.11050000 0.11050200 15606.33110863 0 510.32345089 0 4749.59552653 0 383.57190530 0 -869.62482019 0 13428
0.11150000 0.11150900 14991.26346496 0 652.89291972 0 4614.28064492 0 57.52615287 0 -1143.87080469 0 13453
0.11250000 0.11250000 14825.40003917 0 410.16762951 0 4749.85019000 0 69.44573199 0 -265.53649380 0 13668
0.11350000 0.11349100 14769.48479884 0 -172.01631669 0 4719.68917720 0 31.99104665 0 -805.56034879 0 13791
0.11450000 0.11448600 14725.19549957 0 -135.76663246 0 4660.66261359 0 266.50864392 0 -270.63751384 0 14205
0.11550000 0.11549300 14977.20161244 0 129.69789123 0 4623.30458965 0 -96.98415394 0 -682.31540846 0 14776
0.11650000 0.11649800 14703.27229643 0 202.30687569 0 4630.96663842 0 60.54601874 0 -875.07129676 0 14553
0.11750000 0.11747300 14703.38301967 0 247.24944213 0 4625.96194761 0 389.53767391 0 -688.22692268 0 14568
0.11850000 0.11849100 14520.91110666 0 -75.74068081 0 4126.19042227 0 83.81982407 0 -1543.79210481 0 16015
0.11950000 0.11950300 14421.37090654 0 221.49300014 0 4669.38760555 0 246.89955667 0 -1478.01142307 0 15270
0.12050000 0.12050700 14211.32890473 0 321.09963421 0 4515.18333780 0 -476.15314927 0 -1746.64816782 0 15999
0.12150000 0.12150000 14036.16472610 0 320.51944439 0 4736.92878694 0 -115.37030291 0 -532.82462939 0 15670
0.12250000 0.12250700 14012.24850449 0 186.03166544 0 4520.19910094 0 128.18430443 0 -720.56143285 0 16887
0.12350000 0.12352200 14001.28690292 0 -87.42076554 0 4990.56253156 0 301.85925537 0 82.23116690 0 16407
0.12450000 0.12449800 13893.11028944 0 214.70012886 0 4826.93571539 0 332.56502656 0 -348.62321924 0 16306
0.12550000 0.12549900 13763.12119607 0 420.79595411 0 4996.08762164 0 406.69645568 0 1028.22147919 0 17523
0.12650000 0.12650100 13457.41430783 0 -4.85190381 0 5411.37730862 0 443.09118736 0 1106.91027721 0 17154
0.12750000 0.12750600 13458.30009382 0 15.20728452 0 5199.59695181 0 492.82474875 0 985.57309845 0 18007
0.12850000 0.12850300 13321.77832880 0 107.99015553 0 5000.19545415 0 554.03034588 0 1455.81141181 0 17496
0.12950000 0.12949900 13325.32147274 0 110.59702368 0 4119.50273808 0 701.17047040 0 1251.92562259 0 18405
0.13050000 0.13049000 13116.49742666 0 25.39415553 0 3919.81335997 0 424.59597598 0 1436.19125223 0 18100
0.13150000 0.13148800 13088.04155188 0 245.77682293 0 3495.24506480 0 256.21913247 0 -161.64265556 0 19059
0.13250000 0.13249300 12823.41298872 0 199.80674475 0 3124.10073688 0 221.68122966 0 512.49473379 0 18957
0.13350000 0.13349100 12606.06325253 0 297.55765718 0 2956.47681145 0 -472.80487824 0 -225.61744113 0 19468
0.13450000 0.13450700 12407.20429878 0 213.49767439 0 3320.43520056 0 21.61262443 0 -544.35313399 0 19953
0.13550000 0.13551000 12208.45606829 0 259.83203205 0 2884.92744847 0 122.58392253 0 -165.47367995 0 19956
0.13650000 0.13649900 11881.26886990 0 324.94062369 0 3109.77314857 0 268.33004135 0 -119.14375121 0 19723
0.13750000 0.13749600 11799.99800573 0 107.85285870 0 2988.46475785 0 571.74606559 0 192.17459125 0 20946
0.13850000 0.13851100 11644.09967228 0 66.09458216 0 3017.49639353 0 409.70812803 0 103.99559290 0 20955
0.13950000 0.13949800 11590.84178990 0 183.11853678 0 3097.72645916 0 -145.61546539 0 176.82281289 0 20506
0.14050000 0.14048300 11361.31249641 0 212.84772892 0 3121.94163354 0 -210.35091967 0 843.63807384 0 21447
0.14150000 0.14148400 11554.19239475 0 -55.11902946 0 3437.23715508 0 -252.86089635 0 719.49073904 0 21771
0.14250000 0.14249400 11318.90549236 0 87.75647843 0 3376.14006673 0 -416.90292470 0 167.13452867 0 22470
0.14350000 0.14350900 11447.23373701 0 284.44802459 0 3453.83456998 0 -51.72646913 0 134.01609791 0 22519
0.14450000 0.14449900 11076.64302533 0 181.52965817 0 3414.39494898 0 -146.71494724 0 409.69041231 0 22218
0.14550000 0.14550500 11094.02657529 0 100.61177972 0 3312.07559533 0 529.84728124 0 27.16849558 0 23559
0.14650000 0.14650700 10960.71578447 0 -23.12665413 0 3130.67769782 0 271.89532994 0 -168.91495850 0 23044
0.14750000 0.14750500 10882.86626867 0 236.17490285 0 3177.96759712 0 147.58080304 0 -396.92512903 0 23649
0.14850000 0.14849900 10621.32688413 0 430.85183951 0 3226.73011562 0 -330.18115502 0 -219.79450551 0 23640
0.14950000 0.14949500 10240.64928454 0 420.79041794 0 3120.93405198 0 -161.17761792 0 -65.91388182 0 24457
0.15050000 0.15050000 9971.58071913 0 201.72004248 0 3328.29655119 0 -74.47810362 0 102.59095778 0 24591
0.15150000 0.15149900 10099.36641986 0 -28.99509700 0 3489.46531125 0 -28.84229892 0 -326.23940739 0 25020
0.15250000 0.15250500 9987.42521594 0 -14.97786595 0 3515.59599782 0 1.21497727 0 -526.08822697 0 25297
0.15350000 0.15350100 9916.37410758 0 361.37300127 0 3667.59687293 0 -26.17098983 0 -89.15889909 0 25452
0.15450000 0.15450400 9667.10285894 0 364.32488307 0 3652.42778793 0 61.12643001 0 157.02217442 0 26061
0.15550000 0.15549900 9413.13694457 0 104.96929315 0 3216.87574654 0 627.52733079 0 290.12148383 0 26128
0.15650000 0.15649500 9373.15477965 0 41.75141170 0 3164.10504645 0 671.94839073 0 545.82907489 0 26331
0.15750000 0.15749700 9296.86646165 0 77.73281350 0 3143.23371417 0 525.51689501 0 575.19288031 0 27345
0.15850000 0.15849900 9145.74030020 0 130.51502880 0 2764.37197585 0 273.79091195 0 789.21649012 0 26980
0.15950000 0.15949700 8961.67397242 0 148.75557671 0 2589.55103929 0 394.74498827 0 870.07103488 0 27777
0.16050000 0.16050000 9005.91898239 0 18.74201350 0 2246.76293523 0 95.95498134 0 807.26880851 0 28224
0.16150000 0.16150500 8931.98906958 0 -3.94155941 0 2338.22033823 0 -5.76252502 0 514.08361240 0 28075
0.16250000 0.16249700 8964.84065731 0 55.69135793 0 2138.96278079 0 -184.36417332 0 327.77070991 0 28590
0.16350000 0.16349900 8872.72998715 0 47.64100272 0 2319.07628862 0 -78.09853239 0 -37.24386827 0 29163
0.16450000 0.16449100 8788.94570525 0 6.77815616 0 2223.32282358 0 39.33332669 0 129.06344702 0 28996
0.16550000 0.16550500 8862.82025644 0 128.76449425 0 2282.68155694 0 72.13719270 0 -347.19046041 0 30777
0.16650000 0.16650700 8593.24236408 0 176.47957082 0 2177.97058113 0 -90.52898857 0 34.79389496 0 29211
0.16750000 0.16749900 8468.73407149 0 378.31144378 0 2238.33689604 0 195.24383969 0 -53.97005431 0 30922
0.16850000 0.16850800 8209.36486261 0 160.28408131 0 2111.64735546 0 255.34995497 0 267.17851957 0 30867
0.16950000 0.16949900 8143.53989157 0 -75.07656277 0 2037.71744265 0 430.01809345 0 299.85959351 0 30852
0.17050000 0.17049200 8235.73914033 0 -23.99361716 0 2042.62248254 0 238.01844493 0 95.19962734 0 31257
0.17150000 0.17149500 8122.90107810 0 174.61499132 0 1749.47161065 0 129.07784104 0 246.36919231 0 32608
0.17250000 0.17250900 8148.89889678 0 135.35584921 0 1871.23396668 0 -108.27283198 0 446.47156813 0 32361
0.17350000 0.17350400 7991.81582458 0 -51.03334160 0 1711.31637932 0 -204.66638811 0 51.31136767 0 32508
0.17450000 0.17449800 8103.63523292 0 91.30128322 0 2012.28431254 0 -226.78557140 0 -85.25214000 0 32791
0.17550000 0.17549800 7994.98250948 0 102.00257444 0 2055.89820000 0 -276.81144216 0 -68.86897459 0 33633
0.17650000 0.17650100 8081.76739140 0 78.82565196 0 2175.16928295 0 -79.18550251 0 -68.34713592 0 33984
0.17750000 0.17750300 7998.47029179 0 68.81649177 0 2391.41178666 0 1.19545677 0 34.80607451 0 34069
0.17850000 0.17849800 7889.08679491 0 130.62685928 0 2054.72453357 0 9.48195144 0 -397.03363781 0 34536
