### header ###
fiducial parameters:
Omega_m = 0.31
Omega_nu = 0
Omega_de = 0.69
Omega_k = 0
H_0 = 100
w_de = -1
zeff = 0
beta = 0
fgrowth = 0
b_1 = 2
gamma = 0.55
Lx = 3500 Ly = 3500 Lz = 3500
nx = 700 ny = 700 nz = 700
xoffset = -685.467585 yoffset = -31.7331281 zoffset = 572.489161
bins = 400 dk = 0.001
kx_ny = 0.628318531 ky_ny = 0.628318531 kz_ny = 0.628318531
############################
A(data) = 8.02299326 (not used)
A(ran) = 8.01823335 (used)
Ngal = 477007
weighted Ngal = 0
Nran = 23820508
weighted Nran = 0
SN(data) = 3489.36432
SN(ran) = 69.8417204
SN(data+ran) = 3559.20604
############################
13 columns: k_central k_mean P_0(k) sigma^{lin}_{P_0(k)} P^img_1(k) sigma^{lin}_{P_1(k)} P_2(k) sigma^{lin}_{P_2(k)} P^img_3(k) sigma^{lin}_{P_3(k)} P_4(k) sigma^{lin}_{P_4(k)} N_modes
### header ###
0.00050000 0 0 0 0 0 0 0 0 0 0 0 0
0.00150000 0.00179520 228.51506854 0 -6486.00179389 0 -3913.12567578 0 -24876.52433980 0 -21115.03415241 0 3
0.00250000 0.00253879 14793.06885070 0 -23896.73431660 0 -9282.45029474 0 -17363.50905735 0 3443.42658465 0 6
0.00350000 0.00331552 21924.53181990 0 -18092.06803042 0 -4866.10960060 0 -2682.38141057 0 3350.91731079 0 7
0.00450000 0.00420575 38752.36180252 0 -7429.67389353 0 -1947.93196069 0 -14244.21370944 0 22487.11664393 0 24
0.00550000 0.00557378 50301.01803487 0 -15382.00580781 0 -10682.78935920 0 -3.22155934 0 24619.75712725 0 45
0.00650000 0.00659388 51030.46279392 0 1822.43823120 0 -2450.98089418 0 -4157.19293176 0 24168.22772115 0 40
0.00750000 0.00754703 68825.46034946 0 -4405.63375604 0 -3259.36025686 0 19763.98907804 0 14229.37679419 0 57
0.00850000 0.00846663 66820.37304805 0 -16934.67791713 0 -20212.97184943 0 23750.80107549 0 21271.81827184 0 75
0.00950000 0.00948925 81901.54379053 0 -15458.51557230 0 -18296.24170008 0 5856.83908072 0 14343.64318632 0 112
0.01050000 0.01054430 94739.57224801 0 -15130.77475767 0 -21229.63271428 0 -1896.93283258 0 -33889.17529568 0 105
0.01150000 0.01145670 97531.68039753 0 -2692.50151545 0 -16354.26665013 0 -29864.16377760 0 7532.52471877 0 144
0.01250000 0.01249090 100717.52041760 0 4161.51113844 0 -8111.31942634 0 -38708.62611949 0 5139.80639779 0 169
0.01350000 0.01339930 94460.10676959 0 12255.18127902 0 10272.95832836 0 -24891.80414805 0 4119.56917203 0 180
0.01450000 0.01448870 95394.61098428 0 3669.67846999 0 19937.49240794 0 -22429.87272462 0 -15522.95650275 0 267
0.01550000 0.01550050 87560.38755885 0 678.15110710 0 30698.13128295 0 3466.63417747 0 -29924.95084086 0 238
0.01650000 0.01653350 86449.83337954 0 8912.02566793 0 25859.74678369 0 -4399.88721946 0 -37324.25334742 0 315
0.01750000 0.01747870 79742.77262064 0 8159.78299208 0 31771.48245086 0 4796.07714612 0 -20527.31515103 0 297
0.01850000 0.01844180 71848.98008769 0 6349.02606356 0 21860.42305920 0 -597.13933533 0 -24348.37444595 0 388
0.01950000 0.01947590 70108.52134944 0 6460.61295308 0 16573.72012804 0 6986.52623732 0 -17504.01685930 0 399
0.02050000 0.02045430 64649.86521385 0 2143.86782069 0 10159.78809639 0 9003.13982886 0 -14036.82906559 0 462
0.02150000 0.02154770 61927.18054094 0 2118.21324408 0 8231.79739270 0 9884.60760767 0 -18450.70063130 0 571
0.02250000 0.02255340 57208.59859623 0 3150.63002715 0 14512.16397006 0 -1563.58942159 0 -1063.96183647 0 510
0.02350000 0.02348930 57892.75754677 0 567.15880142 0 1090.76350593 0 9176.49921855 0 -3189.70426143 0 555
0.02450000 0.02439640 60998.32321191 0 -4234.64384387 0 7895.82984072 0 7669.17935169 0 9633.54264241 0 592
0.02550000 0.02547300 62880.28626133 0 596.58571909 0 8036.22691942 0 2382.81966260 0 4760.02565651 0 837
0.02650000 0.02652900 65778.79945236 0 -1765.17216724 0 19474.22633753 0 -417.79978301 0 10380.45953003 0 723
0.02750000 0.02749970 62509.25265666 0 257.06727255 0 14719.21644416 0 -513.49013579 0 6440.26202006 0 826
0.02850000 0.02848090 65678.26274301 0 49.34913027 0 23425.05327932 0 -3801.46127999 0 9290.02376491 0 831
0.02950000 0.02946900 62882.83289604 0 -637.00966977 0 17570.22936172 0 -705.66915597 0 9030.26702467 0 996
0.03050000 0.03053250 66562.16643328 0 -2515.38860765 0 13172.74483674 0 1523.34152087 0 625.51216768 0 1041
0.03150000 0.03150510 65716.57298688 0 1645.40282967 0 20302.21478747 0 -3636.74937598 0 3099.55339276 0 1036
0.03250000 0.03246190 63139.48938534 0 4075.00306463 0 16866.47239624 0 301.84818304 0 252.28845716 0 1059
0.03350000 0.03345080 59974.90822892 0 4337.15142704 0 20341.96443357 0 -580.78883327 0 1473.21710642 0 1302
0.03450000 0.03451200 57175.60306827 0 2558.07241983 0 20084.31143504 0 -1137.57065187 0 -2638.67894451 0 1339
0.03550000 0.03553350 54979.51816374 0 3152.81127514 0 27622.57161807 0 -752.37111482 0 -5853.21843051 0 1365
0.03650000 0.03647120 53299.29287251 0 2755.11551230 0 24995.99472459 0 453.50249439 0 1091.16764579 0 1308
0.03750000 0.03744890 51706.20677760 0 1198.46843837 0 23379.21385457 0 3333.30124200 0 2192.16530154 0 1579
0.03850000 0.03847530 52314.63102639 0 -2589.75034113 0 22726.83247626 0 3568.58814440 0 5430.05632059 0 1662
0.03950000 0.03950240 55797.54152134 0 -2281.41931191 0 18269.33595077 0 7135.73688657 0 56.97165085 0 1683
0.04050000 0.04050350 56653.43222982 0 -262.63222300 0 18255.93843774 0 848.14672450 0 -2.60588272 0 1822
0.04150000 0.04152450 54008.14310740 0 3042.50877529 0 18274.87211318 0 -3275.39298320 0 -5384.72622278 0 1887
0.04250000 0.04250150 50809.12702080 0 5636.25622568 0 16846.54221157 0 -4214.59186362 0 4374.50945097 0 1920
0.04350000 0.04349210 46413.96768404 0 5161.54137141 0 15900.96567206 0 533.31291891 0 23.25930058 0 2005
0.04450000 0.04448520 44031.53555281 0 2448.04672810 0 18174.00323408 0 1017.37392257 0 -302.02644747 0 2151
0.04550000 0.04548030 39466.41603008 0 2213.99992609 0 17220.78679044 0 4940.42704478 0 -4284.28107603 0 2274
0.04650000 0.04648670 38572.76869397 0 2349.89056859 0 15161.88799041 0 3219.44452589 0 -3853.83337638 0 2311
0.04750000 0.04749250 36157.67320452 0 1392.97596846 0 11694.92164320 0 1619.46037262 0 -4412.56503138 0 2568
0.04850000 0.04851840 36043.07464265 0 445.70757771 0 12195.94434124 0 765.03563995 0 -8569.73581849 0 2493
0.04950000 0.04949480 34883.47006439 0 -509.60596424 0 12005.94324735 0 90.79627449 0 -4697.03520062 0 2644
0.05050000 0.05050630 36965.95291628 0 -398.02793258 0 12827.73119539 0 345.05018002 0 -5298.16278735 0 2829
0.05150000 0.05149060 36919.44915205 0 176.77520189 0 14296.47508259 0 252.80774919 0 -2811.36292238 0 2784
0.05250000 0.05249300 36458.28682335 0 858.17603632 0 12806.58305499 0 588.70333105 0 -5157.79892562 0 3055
0.05350000 0.05348950 35934.01224319 0 789.57080452 0 14363.24120124 0 1764.66284030 0 -3152.93307071 0 3009
0.05450000 0.05448610 35044.79383700 0 921.25728528 0 14024.42806179 0 471.25364554 0 -5129.45377408 0 3336
0.05550000 0.05550870 34310.14508528 0 991.10815363 0 13018.61807527 0 752.86936944 0 -3018.24931161 0 3349
0.05650000 0.05647670 34018.38932631 0 -316.69617063 0 10639.20868872 0 203.59347984 0 -4386.22397063 0 3324
0.05750000 0.05747970 34443.12370636 0 -898.74724892 0 10296.84133300 0 1840.02108301 0 -3126.24876790 0 3639
0.05850000 0.05849280 35813.10245617 0 80.24811353 0 10051.82185709 0 1144.16975746 0 -5082.17494711 0 3846
0.05950000 0.05951020 34979.57784382 0 459.44944005 0 11078.19315080 0 1250.64123292 0 -1980.47352334 0 3787
0.06050000 0.06049470 33455.02943954 0 1601.64500199 0 10085.60352011 0 1550.00367904 0 -965.43918300 0 3930
0.06150000 0.06148310 33468.31622932 0 1001.45967010 0 10075.68271707 0 -67.01646392 0 549.47740592 0 4083
0.06250000 0.06249100 32830.77176626 0 -239.94281498 0 9605.90611966 0 1311.37293455 0 -796.50207985 0 4303
0.06350000 0.06350600 32879.37927222 0 796.31938649 0 10971.96526649 0 -1226.84680688 0 65.75100792 0 4470
0.06450000 0.06451750 32197.10261689 0 447.95968858 0 10682.20252599 0 695.98197899 0 488.14890598 0 4479
0.06550000 0.06550280 32140.63376032 0 142.43549370 0 10502.98587647 0 -1968.49326788 0 -1649.89819355 0 4636
0.06650000 0.06648880 31355.49520743 0 711.35479476 0 11963.86841304 0 -1486.74748735 0 -3716.62512723 0 4653
0.06750000 0.06749660 30945.04412640 0 1345.04387432 0 12612.04230793 0 -1661.64593018 0 -4802.70946869 0 5220
0.06850000 0.06852730 29778.57470676 0 1381.44967832 0 11783.72168824 0 788.81677919 0 -4113.74512917 0 5029
0.06950000 0.06949320 29810.68444873 0 -440.90329598 0 12008.04698907 0 266.49867883 0 -1932.71858639 0 5040
0.07050000 0.07048030 29975.21919554 0 -588.80519644 0 11909.61402143 0 2588.42166215 0 -3094.40476172 0 5475
0.07150000 0.07148790 30568.47435932 0 -333.24929623 0 11805.53416814 0 2584.52420382 0 -1791.60180658 0 5509
0.07250000 0.07249820 30136.65369139 0 1308.21732197 0 10081.73927875 0 1710.99528190 0 -452.02101733 0 5916
0.07350000 0.07351270 28528.50923473 0 1281.31157266 0 8939.42967186 0 1185.40309508 0 346.59809103 0 5721
0.07450000 0.07449140 27748.57467451 0 333.07878243 0 8611.83279745 0 1422.47264178 0 758.00471369 0 6028
0.07550000 0.07549160 27176.91054412 0 530.34332140 0 8290.94575188 0 1216.98136547 0 -302.99195420 0 6183
0.07650000 0.07648840 26411.70217590 0 295.11620955 0 6912.35273336 0 392.31904190 0 -2092.76904165 0 6330
0.07750000 0.07749960 26162.57486748 0 395.73153241 0 6340.32321625 0 648.83712714 0 -1624.85259481 0 6583
0.07850000 0.07848650 25477.97302395 0 213.73240767 0 5112.30274294 0 -144.12291600 0 -2190.60410375 0 6549
0.07950000 0.07947320 25629.22098097 0 -23.95918223 0 4425.95147208 0 1020.37673706 0 -2162.43610941 0 6828
0.08050000 0.08048110 25387.40140693 0 -14.46809612 0 4821.17810648 0 797.07673351 0 -2230.40911147 0 7147
0.08150000 0.08149960 25902.70740399 0 211.20570315 0 4592.09170599 0 139.91543257 0 -3000.23463913 0 7386
0.08250000 0.08250610 24977.61466539 0 910.91684113 0 4933.39611852 0 194.53631813 0 -1409.63981731 0 7227
0.08350000 0.08350160 24843.75025833 0 588.60478736 0 4808.51136689 0 115.95381443 0 -1399.92938845 0 7798
0.08450000 0.08449610 24002.58574186 0 391.48418861 0 5428.06330212 0 -615.06653644 0 -1300.15666950 0 7371
0.08550000 0.08548940 24200.44818637 0 946.23312837 0 6764.58148633 0 239.34712391 0 -1047.77299036 0 8256
0.08650000 0.08650700 23603.31770890 0 367.96324900 0 6538.51783051 0 -413.91782593 0 424.58490366 0 8037
0.08750000 0.08749060 23158.87459068 0 237.79810567 0 6770.78198823 0 618.74144105 0 795.79345106 0 8155
0.08850000 0.08849210 23066.53140169 0 372.24823871 0 7179.10718289 0 -212.79790346 0 88.10481377 0 8718
0.08950000 0.08949900 22424.11511572 0 1162.73804618 0 7930.12083069 0 -431.72987486 0 637.81462778 0 8571
0.09050000 0.09049190 21322.75096600 0 1375.53705687 0 7153.45260628 0 56.72750608 0 1702.35886854 0 8932
0.09150000 0.09150830 20622.31569798 0 571.04186573 0 7732.28053083 0 215.54273278 0 2570.67272547 0 9285
0.09250000 0.09250820 20153.84563490 0 -14.89991679 0 7055.56218256 0 1499.25921439 0 2557.64059916 0 9204
0.09350000 0.09350330 19712.17059788 0 117.65230906 0 7025.63368858 0 1804.73358382 0 1623.04780587 0 9349
0.09450000 0.09448040 19778.60454680 0 366.95566744 0 6469.22722179 0 797.39229477 0 1472.20952486 0 9564
0.09550000 0.09549270 19177.82020214 0 341.90674700 0 5950.13448964 0 892.34412348 0 2030.74187801 0 10155
0.09650000 0.09649430 18671.81495792 0 651.69489418 0 5712.06843372 0 -821.12471578 0 2163.46583561 0 9913
0.09750000 0.09749140 18484.24977550 0 519.82461282 0 6351.27374550 0 -1051.16776515 0 1945.67320643 0 10476
0.09850000 0.09850240 18310.85716884 0 448.60852682 0 7397.88524898 0 -796.75452886 0 2084.18798991 0 10575
0.09950000 0.09950330 17841.16915003 0 634.77970355 0 7099.03212980 0 -354.19038416 0 1715.32456090 0 10882
0.10050000 0.10051200 17222.66908566 0 702.83131912 0 7926.79913324 0 398.33352875 0 2354.31949851 0 10875
0.10150000 0.10150300 17032.22509878 0 441.20335598 0 7814.33753006 0 234.37232837 0 1641.68252854 0 11118
0.10250000 0.10250800 16338.43322564 0 212.82669150 0 7682.48828612 0 1151.55499811 0 1384.81566507 0 11575
0.10350000 0.10349800 16306.10203717 0 255.07979024 0 6744.19733634 0 378.90381315 0 1115.90211220 0 11364
0.10450000 0.10450100 16333.89357247 0 21.63443691 0 6692.79960453 0 362.71607427 0 1399.16539803 0 12093
0.10550000 0.10551000 16101.48547452 0 -245.99494773 0 6519.03053882 0 145.10724568 0 1438.09569210 0 12067
0.10650000 0.10649700 16415.38588313 0 -59.23560910 0 6296.08927860 0 567.68141515 0 417.75770818 0 12054
0.10750000 0.10749900 16210.21570424 0 298.41354788 0 5465.39918141 0 733.89361916 0 -151.85693489 0 12807
0.10850000 0.10850100 15975.37169484 0 284.51445854 0 4983.14407393 0 729.13916289 0 39.69063061 0 12736
0.10950000 0.10950300 15692.91668872 0 201.08891996 0 4316.02543128 0 1391.34833671 0 460.25771976 0 12933
0.11050000 0.11050200 15514.20936614 0 -72.08570639 0 3610.60761709 0 757.76776594 0 458.93568418 0 13428
0.11150000 0.11150900 15526.94253968 0 -47.37803501 0 3424.78078966 0 824.02234319 0 118.86251416 0 13453
0.11250000 0.11250000 15453.64374938 0 38.37734216 0 3317.29066032 0 313.48187473 0 443.21409017 0 13668
0.11350000 0.11349100 15090.25004884 0 281.14293563 0 3164.89118151 0 -441.61303200 0 176.64676292 0 13791
0.11450000 0.11448600 14886.96216517 0 692.89944376 0 3700.00556767 0 -690.39377665 0 663.84344897 0 14205
0.11550000 0.11549300 14646.91416310 0 221.42767342 0 4560.46914630 0 -609.21259831 0 789.65827588 0 14776
0.11650000 0.11649800 14422.25669253 0 150.57254521 0 4720.16528716 0 -194.21522071 0 1318.24884826 0 14553
0.11750000 0.11747300 14426.90706895 0 302.98752527 0 4993.64063786 0 153.00292051 0 1147.30322538 0 14568
0.11850000 0.11849100 14397.89757793 0 87.35377798 0 5037.75277994 0 251.96735974 0 983.65647903 0 16015
0.11950000 0.11950300 14083.00066008 0 163.74971898 0 5201.30208983 0 1.67070309 0 604.26326912 0 15270
0.12050000 0.12050700 14129.72587082 0 71.50717742 0 4958.58565748 0 -359.37998280 0 422.32393493 0 15999
0.12150000 0.12150000 14037.93629807 0 106.89632056 0 5327.84769019 0 -313.65128130 0 3.26867208 0 15670
0.12250000 0.12250700 14002.50485865 0 172.76591308 0 5077.66851091 0 -425.11748248 0 -697.13017907 0 16887
0.12350000 0.12352200 13899.64296109 0 86.12641077 0 5413.18209756 0 -425.58584182 0 -1074.25577686 0 16407
0.12450000 0.12449800 13874.61950700 0 392.59917172 0 5360.81000117 0 -144.71639261 0 -1093.51608588 0 16306
0.12550000 0.12549900 13576.33107638 0 368.77152871 0 5610.85631255 0 156.62357072 0 -1095.09057047 0 17523
0.12650000 0.12650100 13311.37034347 0 316.19680878 0 5639.47827221 0 44.80925565 0 -1004.04284348 0 17154
0.12750000 0.12750600 13141.63160400 0 313.00244307 0 5877.77684695 0 439.36756452 0 -1081.14165566 0 18007
0.12850000 0.12850300 12906.23397836 0 331.43897112 0 5720.87093195 0 472.80044931 0 -176.66558588 0 17496
0.12950000 0.12949900 12898.48335099 0 20.67048031 0 5711.99092744 0 388.96080579 0 348.21686492 0 18405
0.13050000 0.13049000 12840.02147594 0 -186.96949135 0 5233.67756760 0 720.63008126 0 740.21813110 0 18100
0.13150000 0.13148800 12915.42400796 0 -4.84553722 0 5086.64816634 0 715.42941030 0 394.99411558 0 19059
0.13250000 0.13249300 12928.26790475 0 205.93638377 0 4879.15279923 0 728.00867852 0 1210.47083847 0 18957
0.13350000 0.13349100 12654.22786549 0 205.08713645 0 4832.37222688 0 205.04284715 0 1154.44487489 0 19468
0.13450000 0.13450700 12378.52697750 0 154.67151986 0 4738.85537146 0 387.90672046 0 1464.07136612 0 19953
0.13550000 0.13551000 12500.43327376 0 101.49889438 0 4702.92567742 0 -7.40866969 0 1543.59280297 0 19956
0.13650000 0.13649900 12177.89645179 0 166.14023390 0 4528.87980360 0 307.40427564 0 1371.39600739 0 19723
0.13750000 0.13749600 11986.78812542 0 221.79306014 0 4580.48790958 0 -33.37730172 0 1490.03596782 0 20946
0.13850000 0.13851100 11825.13218307 0 242.96334519 0 4194.87205312 0 325.98585115 0 1065.24954785 0 20955
0.13950000 0.13949800 11627.26973856 0 232.85431263 0 4146.06524532 0 349.84671113 0 908.37906428 0 20506
0.14050000 0.14048300 11450.55543445 0 75.88938214 0 3642.61770814 0 301.48058186 0 810.65693990 0 21447
0.14150000 0.14148400 11449.11603222 0 68.85945239 0 3605.55863697 0 286.66913295 0 881.21975874 0 21771
0.14250000 0.14249400 11291.55685006 0 -34.46825788 0 3253.85731143 0 201.11881524 0 507.05047168 0 22470
0.14350000 0.14350900 11341.38231174 0 22.08430547 0 3088.14889819 0 236.24687296 0 461.04164036 0 22519
0.14450000 0.14449900 11208.29296742 0 115.08906586 0 3001.26436534 0 -37.89934990 0 2.39088032 0 22218
0.14550000 0.14550500 11212.27900435 0 305.16988049 0 3116.52726670 0 -108.28921902 0 519.37064750 0 23559
0.14650000 0.14650700 10840.62534949 0 277.80684416 0 2865.82768816 0 90.44450673 0 279.03808668 0 23044
0.14750000 0.14750500 10679.64481895 0 160.59632087 0 2853.95815596 0 121.19766746 0 -29.93746257 0 23649
0.14850000 0.14849900 10581.15648969 0 213.62389889 0 2913.59369743 0 -73.78187583 0 -109.08631569 0 23640
0.14950000 0.14949500 10352.69013938 0 77.94230188 0 2980.58126258 0 -84.32350412 0 -477.48514994 0 24457
0.15050000 0.15050000 10321.96443801 0 133.25764366 0 3067.12255336 0 39.72617277 0 -446.56125396 0 24591
0.15150000 0.15149900 10114.00403327 0 227.46098321 0 2760.74025331 0 101.90436291 0 -753.21150428 0 25020
0.15250000 0.15250500 10066.82485722 0 66.13931435 0 2769.36559434 0 436.48322391 0 -297.48457983 0 25297
0.15350000 0.15350100 9905.20213184 0 123.26376328 0 2400.18106791 0 517.16282593 0 -384.04137187 0 25452
0.15450000 0.15450400 9725.80832513 0 241.99340954 0 2115.33443963 0 225.86546121 0 -491.11518180 0 26061
0.15550000 0.15549900 9588.41184645 0 285.86638940 0 2124.98950687 0 86.52800399 0 -420.14379417 0 26128
0.15650000 0.15649500 9259.48629306 0 226.86861384 0 2072.10808354 0 -117.45079275 0 125.50923075 0 26331
0.15750000 0.15749700 9291.44102249 0 63.50542972 0 2200.32560494 0 -39.09970063 0 40.38862996 0 27345
0.15850000 0.15849900 9162.26020883 0 49.72315340 0 2305.15837632 0 46.13627378 0 75.21729202 0 26980
0.15950000 0.15949700 9167.75208194 0 5.83902371 0 2154.90692853 0 203.10961924 0 65.17491486 0 27777
0.16050000 0.16050000 9229.67959465 0 14.48714052 0 2422.02676478 0 103.51815426 0 90.50983344 0 28224
0.16150000 0.16150500 9221.20926617 0 -24.76735122 0 2229.83335058 0 196.73306738 0 -7.71728860 0 28075
0.16250000 0.16249700 9095.49409017 0 204.53794914 0 2372.72170236 0 -257.05287852 0 -218.04064926 0 28590
0.16350000 0.16349900 9092.84780454 0 259.58511921 0 2337.67779431 0 -458.73527510 0 -111.12628081 0 29163
0.16450000 0.16449100 8756.66987840 0 250.76047633 0 2497.67288794 0 -139.26659434 0 -121.92954814 0 28996
0.16550000 0.16550500 8692.43932213 0 159.07830513 0 2554.21925079 0 -25.54883590 0 -66.40505014 0 30777
0.16650000 0.16650700 8602.96386527 0 41.33165987 0 2788.26605281 0 116.17636816 0 -227.60935237 0 29211
0.16750000 0.16749900 8585.92355737 0 -33.06982326 0 2665.67327241 0 401.62643815 0 -53.59569901 0 30922
0.16850000 0.16850800 8573.14609453 0 48.23879754 0 2564.04040290 0 399.67328005 0 -32.78083558 0 30867
0.16950000 0.16949900 8567.60993212 0 84.30689563 0 2210.11354008 0 417.41335887 0 185.67292212 0 30852
0.17050000 0.17049200 8486.46086353 0 13.66114508 0 2237.20751891 0 324.21206471 0 243.88788432 0 31257
0.17150000 0.17149500 8455.87910238 0 38.66876575 0 1783.00968252 0 154.69034281 0 452.94334198 0 32608
0.17250000 0.17250900 8341.30268515 0 104.34215667 0 1861.74498431 0 18.24586262 0 -6.07381236 0 32361
0.17350000 0.17350400 8322.61260086 0 178.16920759 0 1671.06847860 0 -60.22259614 0 -57.54652595 0 32508
0.17450000 0.17449800 8159.65012418 0 102.20663738 0 1688.78419831 0 -179.39602118 0 -8.83729855 0 32791
0.17550000 0.17549800 8055.51490926 0 74.22510099 0 1676.02888012 0 65.26581864 0 -315.52250419 0 33633
0.17650000 0.17650100 8027.78980791 0 87.88403161 0 1572.69087259 0 -48.88154599 0 -268.29018098 0 33984
0.17750000 0.17750300 8022.89584034 0 86.87877524 0 1663.58358703 0 280.43873577 0 -216.11960090 0 34069
0.17850000 0.17849800 7893.02854255 0 20.52941889 0 1452.34577414 0 121.62948813 0 116.26605399 0 34536
