### header ###
fiducial parameters:
Omega_m = 0.31
Omega_nu = 0
Omega_de = 0.69
Omega_k = 0
H_0 = 100
w_de = -1
zeff = 0
beta = 0
fgrowth = 0
b_1 = 2
gamma = 0.55
Lx = 3500 Ly = 3500 Lz = 3500
nx = 700 ny = 700 nz = 700
xoffset = -685.467585 yoffset = -31.7331281 zoffset = 572.489161
bins = 400 dk = 0.001
kx_ny = 0.628318531 ky_ny = 0.628318531 kz_ny = 0.628318531
############################
A(data) = 7.98158014 (not used)
A(ran) = 7.97897346 (used)
Ngal = 474812
weighted Ngal = 0
Nran = 23820508
weighted Nran = 0
SN(data) = 3490.42285
SN(ran) = 69.4997525
SN(data+ran) = 3559.9226
############################
13 columns: k_central k_mean P_0(k) sigma^{lin}_{P_0(k)} P^img_1(k) sigma^{lin}_{P_1(k)} P_2(k) sigma^{lin}_{P_2(k)} P^img_3(k) sigma^{lin}_{P_3(k)} P_4(k) sigma^{lin}_{P_4(k)} N_modes
### header ###
0.00050000 0 0 0 0 0 0 0 0 0 0 0 0
0.00150000 0.00179520 80248.88858810 0 -28374.93608950 0 28280.37843555 0 22440.50215645 0 -95139.28317396 0 3
0.00250000 0.00253879 138659.83093639 0 -11695.36453619 0 46241.46086336 0 -51117.93415999 0 93889.99276468 0 6
0.00350000 0.00331552 123574.89560347 0 23804.61257410 0 63011.93620343 0 -54409.84705182 0 112681.94244688 0 7
0.00450000 0.00420575 111299.00907703 0 32338.38548158 0 87698.45944934 0 -19236.28207718 0 59856.87724635 0 24
0.00550000 0.00557378 95073.40284129 0 18545.81190149 0 113749.31455940 0 49703.33394116 0 -21717.92223878 0 45
0.00650000 0.00659388 104589.51240668 0 6286.46742833 0 119861.23785929 0 73588.22087020 0 -16549.02884369 0 40
0.00750000 0.00754703 97412.76362898 0 -18034.49194136 0 75082.98472072 0 50882.53653434 0 -32661.14375004 0 57
0.00850000 0.00846663 104012.53356038 0 -10912.85012428 0 58348.60515956 0 19727.78257588 0 -48018.56899675 0 75
0.00950000 0.00948925 103796.73394966 0 4835.64963502 0 38065.98838702 0 8031.63190462 0 -4793.75195791 0 112
0.01050000 0.01054430 109444.50539316 0 8911.42776239 0 32693.03204552 0 -1489.80344900 0 -7428.81025220 0 105
0.01150000 0.01145670 92867.35284443 0 14255.39675751 0 45239.52619052 0 -1832.38117889 0 11445.57288828 0 144
0.01250000 0.01249090 82060.54237493 0 14312.86212332 0 52130.49826465 0 9095.21728205 0 16237.56434654 0 169
0.01350000 0.01339930 81741.77014340 0 4510.14543000 0 79116.85409864 0 24582.99700885 0 60400.19622520 0 180
0.01450000 0.01448870 76165.30447174 0 -787.36298295 0 64644.88266768 0 43639.46453098 0 58810.65327424 0 267
0.01550000 0.01550050 77775.88483986 0 2385.03412756 0 55922.43734530 0 46157.31119474 0 65208.13183121 0 238
0.01650000 0.01653350 82468.55754450 0 -5036.09193121 0 42241.80496912 0 38748.70793533 0 65109.47741707 0 315
0.01750000 0.01747870 81732.80156030 0 894.22641870 0 43322.13170168 0 26842.63705784 0 70071.53978455 0 297
0.01850000 0.01844180 79241.63919935 0 4791.64821619 0 14694.85732956 0 7088.42484262 0 40922.75891348 0 388
0.01950000 0.01947590 71104.58769013 0 5309.54513726 0 31083.66963313 0 -5124.73696371 0 39464.09084187 0 399
0.02050000 0.02045430 71335.00276960 0 2575.52240374 0 23044.71892180 0 -7147.29639368 0 24018.52988960 0 462
0.02150000 0.02154770 65788.43237495 0 2071.99736029 0 25907.46850366 0 1672.66289338 0 4031.72134691 0 571
0.02250000 0.02255340 65092.86892984 0 979.71694586 0 22217.17336485 0 -1901.79358318 0 -4085.08995254 0 510
0.02350000 0.02348930 67761.85282738 0 -3163.16389884 0 16313.74194130 0 6345.93688493 0 -6096.12309238 0 555
0.02450000 0.02439640 65298.70344822 0 -838.59020095 0 17363.61978060 0 10702.32094018 0 -12500.54399700 0 592
0.02550000 0.02547300 66558.06967309 0 4556.56061564 0 12235.02964785 0 -1395.72190501 0 -14258.82917820 0 837
0.02650000 0.02652900 63019.35466106 0 3220.65140930 0 15082.27797497 0 1938.58691855 0 -11621.95502264 0 723
0.02750000 0.02749970 57798.53206257 0 3660.97562269 0 14586.45926959 0 -6651.82093037 0 -2668.03167760 0 826
0.02850000 0.02848090 57307.36373361 0 5825.07258082 0 17513.42833540 0 -7096.38584417 0 1680.33601448 0 831
0.02950000 0.02946900 56846.09068167 0 756.29403951 0 24093.93242162 0 -1576.42224605 0 -1529.03269583 0 996
0.03050000 0.03053250 54991.14410480 0 -335.88561677 0 28878.83759199 0 3741.53785807 0 419.44845217 0 1041
0.03150000 0.03150510 57027.12319245 0 1169.08248830 0 28278.05324733 0 2921.89794104 0 -3772.20819781 0 1036
0.03250000 0.03246190 53661.35789408 0 2974.51362858 0 33797.82861593 0 4663.36426084 0 1356.54801981 0 1059
0.03350000 0.03345080 53146.71623651 0 4528.14903016 0 29168.60033250 0 4713.72119412 0 5938.99573088 0 1302
0.03450000 0.03451200 50044.69371532 0 -650.32414036 0 28810.74279436 0 2588.16699868 0 6789.31705997 0 1339
0.03550000 0.03553350 51390.20262728 0 -1356.27121169 0 28307.72707785 0 1319.07927262 0 2038.20462494 0 1365
0.03650000 0.03647120 52979.96702474 0 297.12140758 0 28296.43330653 0 -3421.10477782 0 -8676.21836627 0 1308
0.03750000 0.03744890 49770.98584580 0 1440.89699027 0 26049.30498459 0 -2192.65248384 0 1518.61363818 0 1579
0.03850000 0.03847530 49358.98463930 0 2066.76015065 0 21889.10038048 0 3368.67731980 0 -3818.05869489 0 1662
0.03950000 0.03950240 48896.38290838 0 78.36216444 0 20501.51663421 0 5606.53810587 0 -7737.18557072 0 1683
0.04050000 0.04050350 48589.12589466 0 -2230.44232844 0 15794.67135380 0 7170.40433558 0 -7883.91601922 0 1822
0.04150000 0.04152450 48283.97262266 0 1039.80755988 0 15020.60512573 0 8901.65089957 0 -5275.01055615 0 1887
0.04250000 0.04250150 48276.11127204 0 1716.07747899 0 11644.65328852 0 5511.88080100 0 677.65728141 0 1920
0.04350000 0.04349210 44139.49071979 0 1321.10550806 0 9993.41534367 0 4312.72587849 0 1892.35996243 0 2005
0.04450000 0.04448520 43412.03897920 0 1967.65177120 0 10398.92816783 0 3087.52884800 0 7975.57272407 0 2151
0.04550000 0.04548030 43000.70211219 0 773.79495611 0 12503.75497120 0 985.83883425 0 7689.50814005 0 2274
0.04650000 0.04648670 41218.61143263 0 2872.00604541 0 13073.31535987 0 402.38046347 0 11175.51888596 0 2311
0.04750000 0.04749250 39216.51365892 0 1533.88237410 0 12023.43752057 0 114.28742955 0 14374.53497256 0 2568
0.04850000 0.04851840 39920.71351739 0 830.47861579 0 12596.65177643 0 79.74487636 0 10643.41617215 0 2493
0.04950000 0.04949480 39402.19654613 0 -798.82616083 0 11670.78397509 0 1947.32298283 0 8116.49020203 0 2644
0.05050000 0.05050630 39478.37414088 0 -101.61183209 0 12664.41440432 0 1379.25735801 0 7495.15562251 0 2829
0.05150000 0.05149060 37593.31084051 0 1743.57006152 0 10238.39053028 0 -429.98044754 0 5727.10465082 0 2784
0.05250000 0.05249300 38356.41546701 0 163.55263159 0 11418.88858547 0 -1427.11194588 0 3466.83347932 0 3055
0.05350000 0.05348950 37761.16728476 0 1529.17663605 0 14071.48544227 0 -3287.32894936 0 3833.02847804 0 3009
0.05450000 0.05448610 35994.46713670 0 2124.17015483 0 15528.04977217 0 -840.62640149 0 2791.04520634 0 3336
0.05550000 0.05550870 34732.55427712 0 2255.89760320 0 17450.53753043 0 -1217.86715145 0 5355.09668156 0 3349
0.05650000 0.05647670 33491.34666495 0 842.61166933 0 16241.21821373 0 1202.46554763 0 5242.75687395 0 3324
0.05750000 0.05747970 33030.95939899 0 628.52716173 0 17866.30332737 0 2542.41615253 0 5892.82413638 0 3639
0.05850000 0.05849280 33233.14005017 0 -587.14102602 0 16136.58474420 0 3384.53288894 0 3810.81739446 0 3846
0.05950000 0.05951020 33000.06761274 0 -537.57576397 0 13120.70491010 0 2859.94828368 0 3009.80112778 0 3787
0.06050000 0.06049470 33640.15871051 0 -8.83596987 0 12099.72583857 0 -495.75891482 0 1373.87620815 0 3930
0.06150000 0.06148310 32118.71055718 0 834.85772026 0 9760.74150993 0 248.51057993 0 1701.09662351 0 4083
0.06250000 0.06249100 32665.68340322 0 525.29987744 0 11109.52783004 0 -1219.53907250 0 -336.30747234 0 4303
0.06350000 0.06350600 31288.72908877 0 463.06455410 0 12400.33945739 0 -806.56793034 0 -562.08546219 0 4470
0.06450000 0.06451750 31563.65491402 0 934.79652407 0 11315.47307166 0 1040.96240336 0 -3160.62833646 0 4479
0.06550000 0.06550280 31108.02874773 0 243.73176454 0 12078.13480517 0 -1127.11837724 0 -1514.38401010 0 4636
0.06650000 0.06648880 31625.88137950 0 -343.06380495 0 12045.69289345 0 513.94410111 0 -559.12472253 0 4653
0.06750000 0.06749660 31508.95762941 0 352.98903692 0 12756.75759331 0 1240.73150220 0 -682.45491975 0 5220
0.06850000 0.06852730 31246.32208472 0 8.90404252 0 10978.91868648 0 2741.85086717 0 -1072.93041958 0 5029
0.06950000 0.06949320 31290.83283049 0 -319.12100976 0 10169.55388688 0 2515.90900692 0 210.25901938 0 5040
0.07050000 0.07048030 30875.73137304 0 -74.50157694 0 9360.21123194 0 2834.41550265 0 -973.82093289 0 5475
0.07150000 0.07148790 30760.46847167 0 59.56766812 0 8161.07845408 0 1312.91198770 0 -1600.85886693 0 5509
0.07250000 0.07249820 30293.99142706 0 880.25425201 0 7914.38705712 0 -294.49837383 0 -680.70881413 0 5916
0.07350000 0.07351270 29856.41315023 0 796.66152133 0 8519.96571843 0 52.97387725 0 1801.99871959 0 5721
0.07450000 0.07449140 29011.37332007 0 604.91432182 0 8024.62312301 0 706.98454816 0 1308.79308286 0 6028
0.07550000 0.07549160 28261.11259036 0 541.83418009 0 7389.78030721 0 1512.49064255 0 711.64156798 0 6183
0.07650000 0.07648840 28171.42675933 0 571.69513290 0 7397.07696927 0 1633.92082884 0 -1275.32144494 0 6330
0.07750000 0.07749960 26955.02115475 0 1215.90734996 0 6019.22579651 0 16.57704183 0 -1861.99964778 0 6583
0.07850000 0.07848650 26145.41276401 0 1052.93269372 0 6073.62412835 0 -1209.25288274 0 -2118.76686032 0 6549
0.07950000 0.07947320 25295.50111093 0 480.11039816 0 5558.10775711 0 -1099.10871715 0 -2429.23484824 0 6828
0.08050000 0.08048110 24819.61259023 0 279.15545333 0 6566.09899163 0 -975.04553202 0 -2876.86679600 0 7147
0.08150000 0.08149960 24767.24049384 0 1671.82139669 0 7555.90946879 0 -1617.19054604 0 -2933.11420608 0 7386
0.08250000 0.08250610 24041.22815548 0 762.32292037 0 7914.23204457 0 145.44273712 0 -1083.80233532 0 7227
0.08350000 0.08350160 23446.53358947 0 -62.28559170 0 9265.73108426 0 483.85838011 0 1262.05679980 0 7798
0.08450000 0.08449610 23921.31487769 0 -559.61854822 0 9564.29632300 0 1710.80705238 0 400.08849223 0 7371
0.08550000 0.08548940 23987.52738011 0 710.72477948 0 10616.64329073 0 1234.12132429 0 2900.45084787 0 8256
0.08650000 0.08650700 23078.60023575 0 1147.81255232 0 9637.24079890 0 550.80719213 0 3135.23949565 0 8037
0.08750000 0.08749060 22321.14249490 0 1069.11046751 0 9862.29687317 0 138.75394570 0 4934.86873772 0 8155
0.08850000 0.08849210 21705.96412798 0 594.40004217 0 9039.72279006 0 668.63665838 0 3923.11291277 0 8718
0.08950000 0.08949900 20681.99552875 0 767.20027945 0 9329.43016894 0 666.78536567 0 3495.55508990 0 8571
0.09050000 0.09049190 20406.29464077 0 531.65428465 0 8834.78512999 0 364.95268388 0 2716.22950754 0 8932
0.09150000 0.09150830 19853.01056958 0 229.76956294 0 8706.71154882 0 1027.25597247 0 3585.94954972 0 9285
0.09250000 0.09250820 19287.43621784 0 248.43750258 0 8688.88510586 0 452.63553135 0 2805.40601163 0 9204
0.09350000 0.09350330 19478.32309771 0 310.67393316 0 8112.36022488 0 1093.04440484 0 2668.58529384 0 9349
0.09450000 0.09448040 18863.47690053 0 293.06007883 0 8018.98730968 0 1065.87070527 0 3758.68888921 0 9564
0.09550000 0.09549270 18612.91018989 0 404.86620039 0 6882.40209472 0 745.36011875 0 3319.46083598 0 10155
0.09650000 0.09649430 18403.31108107 0 192.87768388 0 6908.73208314 0 292.56293145 0 1968.09466419 0 9913
0.09750000 0.09749140 18008.47197804 0 412.75523182 0 6757.12981172 0 -297.74035054 0 1736.58342456 0 10476
0.09850000 0.09850240 17548.63832832 0 438.64232725 0 6666.02672312 0 -446.65869042 0 662.34979235 0 10575
0.09950000 0.09950330 17228.53741781 0 127.83884789 0 6109.42095448 0 76.25022920 0 30.11151951 0 10882
0.10050000 0.10051200 17173.06507047 0 217.59443457 0 5800.92384039 0 419.13399815 0 269.80487502 0 10875
0.10150000 0.10150300 17297.40727819 0 -21.42959890 0 6046.67408974 0 145.26447269 0 -316.51790620 0 11118
0.10250000 0.10250800 17244.03867256 0 50.22129730 0 5575.94527240 0 675.27673157 0 69.57660687 0 11575
0.10350000 0.10349800 17082.71489995 0 12.29404514 0 5354.77558414 0 253.55291665 0 878.59229606 0 11364
0.10450000 0.10450100 17085.26153466 0 188.64251963 0 6018.61681865 0 -255.07757578 0 71.26912244 0 12093
0.10550000 0.10551000 16764.49628466 0 545.16030647 0 6538.42925191 0 63.59932304 0 1705.99059108 0 12067
0.10650000 0.10649700 16177.77379252 0 657.45914648 0 6605.77113145 0 373.84929687 0 1388.56918318 0 12054
0.10750000 0.10749900 15843.83247599 0 224.47477721 0 5575.76811520 0 495.68140855 0 2171.65935598 0 12807
0.10850000 0.10850100 15761.01148635 0 -147.78231935 0 6092.96747980 0 1235.20641212 0 647.57709658 0 12736
0.10950000 0.10950300 15483.42830315 0 -44.06187372 0 5207.07077106 0 462.17433919 0 534.92283494 0 12933
0.11050000 0.11050200 15581.52910104 0 483.56053457 0 4914.66174493 0 185.88440352 0 813.47484657 0 13428
0.11150000 0.11150900 14960.70384846 0 243.40845265 0 4480.36087624 0 -209.33005132 0 560.55748136 0 13453
0.11250000 0.11250000 15001.56072704 0 271.81339474 0 4291.20127904 0 283.80029359 0 1090.08034349 0 13668
0.11350000 0.11349100 14788.52919753 0 502.43109776 0 4392.28053231 0 -184.69080690 0 227.19192572 0 13791
0.11450000 0.11448600 14349.17934872 0 434.88327297 0 4689.41744114 0 -166.65620424 0 285.30834423 0 14205
0.11550000 0.11549300 14321.49853668 0 202.33234204 0 4735.94335003 0 -204.87897675 0 599.83323196 0 14776
0.11650000 0.11649800 13967.95920522 0 137.64671322 0 4990.38537436 0 -0.70403045 0 371.23401375 0 14553
0.11750000 0.11747300 14020.55274811 0 234.73107169 0 4762.42835100 0 479.37298133 0 826.21134180 0 14568
0.11850000 0.11849100 13786.59452469 0 -211.15809215 0 4918.53705861 0 551.05631943 0 536.68887075 0 16015
0.11950000 0.11950300 14101.49144253 0 118.23249888 0 4566.44820171 0 362.79025885 0 393.98985572 0 15270
0.12050000 0.12050700 13521.08017554 0 345.35577619 0 4321.56159369 0 211.35628677 0 272.40133519 0 15999
0.12150000 0.12150000 13365.84618158 0 416.57961281 0 4225.98528586 0 214.55508141 0 406.20373723 0 15670
0.12250000 0.12250700 12977.31830369 0 126.49688212 0 4157.48081220 0 233.69248762 0 366.95898914 0 16887
0.12350000 0.12352200 12880.87835452 0 198.91431537 0 4059.11427852 0 540.67490768 0 308.99647595 0 16407
0.12450000 0.12449800 12793.18554196 0 135.30934545 0 3978.92850218 0 296.65636994 0 -90.43531670 0 16306
0.12550000 0.12549900 12926.93922577 0 -36.70674979 0 3472.17033988 0 132.75606734 0 956.56139296 0 17523
0.12650000 0.12650100 12940.44746205 0 -136.73767535 0 3557.39402401 0 331.06029761 0 382.21775997 0 17154
0.12750000 0.12750600 13136.64905783 0 -267.44425537 0 3142.51401305 0 437.84069093 0 601.17076880 0 18007
0.12850000 0.12850300 13193.22863766 0 -121.67931359 0 2871.03168083 0 618.95181522 0 615.27469615 0 17496
0.12950000 0.12949900 13321.77832880 0 20.21474342 0 2693.13263796 0 -67.28253189 0 -228.96681939 0 18405
0.13050000 0.13049000 13214.37677806 0 184.38410351 0 2774.73567188 0 -320.09648158 0 254.92920662 0 18100
0.13150000 0.13148800 13018.95024501 0 383.36928175 0 2970.22863888 0 -503.17183629 0 -584.84130415 0 19059
0.13250000 0.13249300 12712.24684754 0 379.86046202 0 3182.27473148 0 -645.25523006 0 -235.18614424 0 18957
0.13350000 0.13349100 12503.42280146 0 179.80680443 0 3319.23938948 0 -83.67134419 0 -699.18963149 0 19468
0.13450000 0.13450700 12312.42519833 0 359.25818723 0 3417.82736967 0 -399.67992344 0 -792.09861627 0 19953
0.13550000 0.13551000 12138.14680569 0 308.57683484 0 3725.94802472 0 198.59764688 0 -1174.87331418 0 19956
0.13650000 0.13649900 11841.74067029 0 174.48876682 0 3326.13744785 0 412.58582525 0 -487.73590826 0 19723
0.13750000 0.13749600 11962.76118056 0 -58.85638198 0 3418.04881617 0 577.32983900 0 -618.28747573 0 20946
0.13850000 0.13851100 11784.60747423 0 -21.64406983 0 3108.93165188 0 94.41504241 0 -413.48268356 0 20955
0.13950000 0.13949800 11939.06640545 0 50.66020425 0 3262.58230339 0 335.17366628 0 -216.18271315 0 20506
0.14050000 0.14048300 11892.00902497 0 164.00438245 0 3454.43247552 0 -83.19169108 0 -103.09508073 0 21447
0.14150000 0.14148400 11586.19141348 0 261.67557414 0 3597.98516679 0 -88.27953506 0 261.12306513 0 21771
0.14250000 0.14249400 11516.54649037 0 341.17818803 0 3581.19952237 0 193.75461200 0 474.55873449 0 22470
0.14350000 0.14350900 11228.66604509 0 287.78190159 0 3556.69646754 0 20.58444835 0 746.31012422 0 22519
0.14450000 0.14449900 11003.10064388 0 245.43358086 0 3624.42587846 0 256.34314250 0 620.15426970 0 22218
0.14550000 0.14550500 10888.33599713 0 78.73209081 0 3013.23354847 0 66.28724061 0 143.74092080 0 23559
0.14650000 0.14650700 10751.72565352 0 135.49536050 0 3341.63870259 0 185.25992440 0 492.19251900 0 23044
0.14750000 0.14750500 10558.62430869 0 275.04872805 0 3056.52633851 0 23.48406877 0 -170.26356767 0 23649
0.14850000 0.14849900 10264.82016962 0 184.44610853 0 2894.59358804 0 120.30302362 0 -240.98914968 0 23640
0.14950000 0.14949500 10107.20562583 0 236.46942669 0 2939.48079285 0 9.31232343 0 -305.71796057 0 24457
0.15050000 0.15050000 9984.45783289 0 154.60951484 0 2805.77139834 0 149.88827553 0 -307.57146774 0 24591
0.15150000 0.15149900 9830.98433858 0 185.96633872 0 2972.19951269 0 60.07511277 0 -64.95368981 0 25020
0.15250000 0.15250500 9807.02382767 0 26.41059494 0 2698.91239152 0 381.83576477 0 193.72360949 0 25297
0.15350000 0.15350100 9671.39892097 0 4.53268868 0 2780.83652285 0 199.37270961 0 500.36610918 0 25452
0.15450000 0.15450400 9830.98433858 0 84.89516825 0 2657.67905389 0 225.39488740 0 422.53652357 0 26061
0.15550000 0.15549900 9556.90001002 0 207.10119234 0 2726.58213124 0 -67.45714245 0 234.72996446 0 26128
0.15650000 0.15649500 9455.73217815 0 273.89167011 0 2556.38942645 0 -99.80350000 0 423.22854387 0 26331
0.15750000 0.15749700 9249.46583910 0 127.57864826 0 2658.56483988 0 -38.49061204 0 432.43850365 0 27345
0.15850000 0.15849900 9070.02774309 0 130.04002607 0 2458.69830458 0 498.17157440 0 372.00132586 0 26980
0.15950000 0.15949700 9142.40753043 0 -79.55919348 0 2299.03538069 0 434.41269917 0 370.12678127 0 27777
0.16050000 0.16050000 9005.96327169 0 -3.72942473 0 2173.32020470 0 332.53513128 0 325.15874848 0 28224
0.16150000 0.16150500 9124.20462843 0 87.25678441 0 2129.61773864 0 153.42920501 0 462.88628967 0 28075
0.16250000 0.16249700 8955.17451775 0 181.30488998 0 2271.63137677 0 -165.08725581 0 792.59797812 0 28590
0.16350000 0.16349900 8803.21793194 0 278.20876956 0 2197.76789790 0 -44.11933909 0 1112.28146198 0 29163
0.16450000 0.16449100 8708.17309569 0 127.84770575 0 2482.83597268 0 32.74972235 0 868.63052542 0 28996
0.16550000 0.16550500 8471.69038222 0 179.53774693 0 2535.75061299 0 22.14863567 0 934.15875816 0 30777
0.16650000 0.16650700 8420.96806222 0 219.89526367 0 2421.47314854 0 190.45395197 0 1040.17848276 0 29211
0.16750000 0.16749900 8181.16365130 0 -12.84843644 0 2098.48236125 0 311.29287611 0 745.01244775 0 30922
0.16850000 0.16850800 8236.94602374 0 -88.27045575 0 1840.65220553 0 489.07233787 0 561.07455893 0 30867
0.16950000 0.16949900 8269.75332217 0 -1.26329690 0 1686.43686545 0 398.41435672 0 497.02558878 0 30852
0.17050000 0.17049200 8189.67826909 0 74.03011735 0 1323.37533465 0 246.43673349 0 787.56117756 0 31257
0.17150000 0.17149500 8132.43434977 0 48.55391590 0 1137.26062677 0 258.64175714 0 962.52051818 0 32608
0.17250000 0.17250900 8183.71028601 0 30.77286948 0 1160.92218491 0 238.89537305 0 770.43782723 0 32361
0.17350000 0.17350400 8185.78081075 0 37.18352410 0 1420.72321445 0 -254.23718632 0 1010.13483660 0 32508
0.17450000 0.17449800 8222.49663985 0 148.72235973 0 1473.91466288 0 -261.22493052 0 1014.58148225 0 32791
0.17550000 0.17549800 8089.90555015 0 195.94803955 0 1864.39126994 0 -572.62188648 0 1538.45524425 0 33633
0.17650000 0.17650100 8032.00836367 0 125.35200374 0 2222.38167597 0 -248.53051011 0 1386.60938169 0 33984
0.17750000 0.17750300 7967.32384208 0 64.90375362 0 2213.67882867 0 -0.48457033 0 1175.48229205 0 34069
0.17850000 0.17849800 7934.85978571 0 16.96413030 0 2221.06406932 0 125.47822824 0 793.32542986 0 34536
