### header ###
fiducial parameters:
Omega_m = 0.31
Omega_nu = 0
Omega_de = 0.69
Omega_k = 0
H_0 = 100
w_de = -1
zeff = 0
beta = 0
fgrowth = 0
b_1 = 2
gamma = 0.55
Lx = 3500 Ly = 3500 Lz = 3500
nx = 700 ny = 700 nz = 700
xoffset = -685.467585 yoffset = -31.7331281 zoffset = 572.489161
bins = 400 dk = 0.001
kx_ny = 0.628318531 ky_ny = 0.628318531 kz_ny = 0.628318531
############################
A(data) = 7.99446991 (not used)
A(ran) = 7.98359968 (used)
Ngal = 474396
weighted Ngal = 0
Nran = 23820508
weighted Nran = 0
SN(data) = 3498.95363
SN(ran) = 69.5400486
SN(data+ran) = 3568.49368
############################
13 columns: k_central k_mean P_0(k) sigma^{lin}_{P_0(k)} P^img_1(k) sigma^{lin}_{P_1(k)} P_2(k) sigma^{lin}_{P_2(k)} P^img_3(k) sigma^{lin}_{P_3(k)} P_4(k) sigma^{lin}_{P_4(k)} N_modes
### header ###
0.00050000 0 0 0 0 0 0 0 0 0 0 0 0
0.00150000 0.00179520 39724.06902861 0 -45375.16216955 0 -30515.43792344 0 116955.85982688 0 -13056.59614940 0 3
0.00250000 0.00253879 60350.70293327 0 -31336.34008549 0 6611.30729386 0 -32522.62896656 0 68625.49416323 0 6
0.00350000 0.00331552 64564.49758950 0 -5266.13055165 0 -3113.88098107 0 -78055.12887178 0 -65710.48320823 0 7
0.00450000 0.00420575 57696.88812073 0 7703.23782283 0 -23600.99252069 0 -26173.42574581 0 14454.36643450 0 24
0.00550000 0.00557378 44174.70071271 0 -1109.15906638 0 -32364.29472166 0 -34467.03992796 0 -4799.97460446 0 45
0.00650000 0.00659388 45975.94651421 0 -16425.79386846 0 -9858.93088642 0 -26172.65068307 0 -20553.99945385 0 40
0.00750000 0.00754703 71368.99480680 0 -17808.94868481 0 -15163.43811589 0 -33044.57835851 0 -18933.23254689 0 57
0.00850000 0.00846663 81488.43535155 0 -19157.33640122 0 2194.01437979 0 -45693.27006159 0 -16058.08196123 0 75
0.00950000 0.00948925 100520.76520557 0 10590.29115767 0 22168.01224266 0 -46424.70783911 0 -15568.02086476 0 112
0.01050000 0.01054430 87489.08178702 0 13440.91654385 0 50581.59074577 0 -21626.35411253 0 -8896.35832831 0 105
0.01150000 0.01145670 84568.97756259 0 12790.52818400 0 55672.42425089 0 3277.27527842 0 17417.87417221 0 144
0.01250000 0.01249090 80644.94564687 0 3311.41125584 0 65624.45124439 0 29425.03537530 0 -1568.18443639 0 169
0.01350000 0.01339930 83600.25986421 0 -5607.88892950 0 63924.40649173 0 48336.45544230 0 19780.59756526 0 180
0.01450000 0.01448870 87155.58336348 0 -4313.93276189 0 37149.64278503 0 41630.61263913 0 -8163.53651019 0 267
0.01550000 0.01550050 91989.98182580 0 -3842.65032831 0 25182.00978154 0 6284.83979659 0 8386.04594974 0 238
0.01650000 0.01653350 89336.16701326 0 7922.39234796 0 10526.96853203 0 3794.34177513 0 -19216.57333900 0 315
0.01750000 0.01747870 76582.28822441 0 3171.83352917 0 9454.06025710 0 -14110.68147213 0 12236.46905008 0 297
0.01850000 0.01844180 76102.63511326 0 5757.09957875 0 9230.05605370 0 -1677.47935467 0 -2407.87633366 0 388
0.01950000 0.01947590 75447.92854674 0 15.14140419 0 10315.70857449 0 -5237.94041266 0 -9058.13606624 0 399
0.02050000 0.02045430 75509.49067273 0 -1715.14740371 0 11113.62459022 0 -418.53055645 0 -24581.55760663 0 462
0.02150000 0.02154770 70134.98420576 0 6552.28073026 0 14064.06698464 0 -2541.28677540 0 -8694.50984687 0 571
0.02250000 0.02255340 66535.48213046 0 10078.92690824 0 23027.11392534 0 -8605.94232064 0 -244.52232853 0 510
0.02350000 0.02348930 65516.60680065 0 -926.20882894 0 27239.35845610 0 -2087.44325341 0 13317.34939888 0 555
0.02450000 0.02439640 63217.99216830 0 -1847.78278271 0 25222.86666012 0 2160.55381419 0 3007.40950562 0 592
0.02550000 0.02547300 71010.47292917 0 -3531.86124298 0 28976.05260390 0 7889.38574768 0 8160.48054854 0 837
0.02650000 0.02652900 78148.46857001 0 -4163.60380783 0 32730.89939640 0 1336.63997978 0 -1345.15459757 0 723
0.02750000 0.02749970 72339.92697014 0 -1958.59460950 0 20090.73338343 0 4208.61280822 0 2039.94297994 0 826
0.02850000 0.02848090 78477.42734037 0 3813.66298194 0 23460.92761173 0 7105.54265679 0 1723.57344289 0 831
0.02950000 0.02946900 70167.97973372 0 3004.46426721 0 18048.88596363 0 897.84928338 0 -8805.77563897 0 996
0.03050000 0.03053250 66171.64553692 0 8133.19834019 0 19810.71428877 0 2878.85981447 0 -16147.76779227 0 1041
0.03150000 0.03150510 57571.21723404 0 5885.97036732 0 18207.55237828 0 -3223.79594955 0 -11354.44765503 0 1036
0.03250000 0.03246190 53348.01110171 0 4253.44465141 0 13392.30903790 0 2881.19607501 0 -14822.18906498 0 1059
0.03350000 0.03345080 52038.59796866 0 562.82841518 0 19895.30685038 0 2232.01459857 0 -8214.73494015 0 1302
0.03450000 0.03451200 52467.20766239 0 -1206.07512552 0 14265.47257310 0 4691.69834005 0 -11671.89120758 0 1339
0.03550000 0.03553350 52219.51975620 0 2204.75453486 0 18164.25958824 0 301.54701581 0 -4554.19113813 0 1365
0.03650000 0.03647120 50046.79745703 0 5374.20751420 0 16311.41675309 0 -3129.52617604 0 -3833.68174521 0 1308
0.03750000 0.03744890 48840.24622155 0 4135.66833231 0 22918.49441887 0 -879.32860566 0 2682.17103639 0 1579
0.03850000 0.03847530 44277.45188703 0 2330.04896251 0 21294.51653772 0 -860.92418734 0 450.00806867 0 1662
0.03950000 0.03950240 44511.85300344 0 918.79701471 0 24613.55662535 0 2001.02375820 0 -1682.16294807 0 1683
0.04050000 0.04050350 43682.09298153 0 584.10388732 0 23953.64606616 0 3959.85088652 0 -3342.96738157 0 1822
0.04150000 0.04152450 42091.33207484 0 407.50141370 0 20116.97479325 0 -412.75633905 0 -5472.47439697 0 1887
0.04250000 0.04250150 42620.47847792 0 427.91988789 0 21607.42043709 0 -1791.73467448 0 -2848.02338985 0 1920
0.04350000 0.04349210 41965.32901840 0 1245.99085649 0 22341.40484932 0 369.08376827 0 -877.42084409 0 2005
0.04450000 0.04448520 43306.63044693 0 -183.79948476 0 23229.07313003 0 4198.40412473 0 2145.51759708 0 2151
0.04550000 0.04548030 42798.74290750 0 -918.55453079 0 20422.90312799 0 5195.79914440 0 2799.49339017 0 2274
0.04650000 0.04648670 44815.34542672 0 399.21488580 0 21228.85765154 0 5816.34758886 0 3683.00954908 0 2311
0.04750000 0.04749250 43556.97571108 0 141.37144328 0 19272.93147233 0 3935.76858004 0 4414.43625427 0 2568
0.04850000 0.04851840 43147.85330903 0 1629.15972917 0 19790.23048786 0 1736.73843710 0 2794.05687869 0 2493
0.04950000 0.04949480 41236.99149183 0 735.47696161 0 16803.69231452 0 -1695.10649579 0 1724.87997722 0 2644
0.05050000 0.05050630 40477.98362551 0 1506.63338272 0 17571.89021044 0 790.44994711 0 -3747.41726255 0 2829
0.05150000 0.05149060 37980.95293241 0 1564.85166662 0 17030.23208031 0 -1860.09520791 0 -5224.48753800 0 2784
0.05250000 0.05249300 38260.30768758 0 2274.94200189 0 17380.00682133 0 1378.37157202 0 -5966.80941082 0 3055
0.05350000 0.05348950 36449.76113324 0 1380.56389234 0 16055.97821952 0 -2506.49753082 0 -5776.24362837 0 3009
0.05450000 0.05448610 35414.38803945 0 916.72427550 0 15836.19257187 0 1768.75960048 0 -6315.70943818 0 3336
0.05550000 0.05550870 35993.58135071 0 -264.61306191 0 17148.37378613 0 2835.14627609 0 -5257.39448736 0 3349
0.05650000 0.05647670 34232.86025805 0 904.58125687 0 16105.47151146 0 3872.37952045 0 -4595.04801671 0 3324
0.05750000 0.05747970 34851.69249216 0 822.44896583 0 15998.51285371 0 4015.04642574 0 -251.78909531 0 3639
0.05850000 0.05849280 33259.04929025 0 709.12039962 0 13301.07308139 0 4059.90041358 0 4520.39840279 0 3846
0.05950000 0.05951020 32583.41602982 0 799.11514851 0 13166.10144185 0 5111.08478721 0 3049.78329270 0 3787
0.06050000 0.06049470 32515.54267868 0 -604.58658100 0 11595.49216633 0 4400.69549917 0 6907.91273111 0 3930
0.06150000 0.06148310 32272.61587216 0 198.54007079 0 10468.57309094 0 1935.55310155 0 5901.87022576 0 4083
0.06250000 0.06249100 32069.54943498 0 683.36506485 0 9150.46818290 0 -1036.97525919 0 5285.82821750 0 4303
0.06350000 0.06350600 31916.64062924 0 931.88893157 0 11212.83262059 0 -1896.33492704 0 5219.99217413 0 4470
0.06450000 0.06451750 30558.73071348 0 653.39671050 0 11446.01578128 0 -2482.60345386 0 4811.54518389 0 4479
0.06550000 0.06550280 30871.63461285 0 999.25406300 0 12214.10295395 0 -581.58382619 0 1631.08631368 0 4636
0.06650000 0.06648880 29760.85898705 0 561.17420985 0 11324.44165477 0 -1018.12573342 0 1032.56515222 0 4653
0.06750000 0.06749660 29166.71803728 0 831.34668606 0 12264.92492486 0 1248.79215467 0 536.80845186 0 5220
0.06850000 0.06852730 29296.81785390 0 -48.72952297 0 11975.93724710 0 1087.60457166 0 258.90195677 0 5029
0.06950000 0.06949320 28529.39502072 0 -458.22926985 0 11259.55783133 0 2892.91059467 0 2427.36362534 0 5040
0.07050000 0.07048030 29253.30361736 0 263.38624832 0 10238.15801146 0 1285.30868192 0 1683.91237539 0 5475
0.07150000 0.07148790 28853.92486115 0 619.96271848 0 11156.58521052 0 1985.00210419 0 3747.21796070 0 5509
0.07250000 0.07249820 28187.26018382 0 931.25448736 0 10659.53747708 0 405.87156748 0 4698.55210912 0 5916
0.07350000 0.07351270 27827.96324346 0 136.94583505 0 9676.49219038 0 214.15204878 0 5498.49436029 0 5721
0.07450000 0.07449140 28248.15797032 0 -317.45130318 0 10489.30048300 0 564.67749343 0 4204.59355431 0 6028
0.07550000 0.07549160 27603.85938913 0 353.11636865 0 10006.11530023 0 551.28330209 0 2965.37896061 0 6183
0.07650000 0.07648840 27466.23039163 0 818.62347761 0 9664.02475264 0 469.88289172 0 3097.92576101 0 6330
0.07750000 0.07749960 26086.95088897 0 701.54250051 0 8323.66447172 0 1849.83116280 0 2946.93246746 0 6583
0.07850000 0.07848650 25931.49544852 0 552.85446498 0 7968.13212179 0 664.41478093 0 2500.04236545 0 6549
0.07950000 0.07947320 25470.55456632 0 -201.22621679 0 7044.79988284 0 1136.97274633 0 211.50465592 0 6828
0.08050000 0.08048110 25260.51256451 0 855.29280294 0 7125.96002376 0 -717.46782530 0 882.07122052 0 7147
0.08150000 0.08149960 24582.44339261 0 712.43766813 0 7690.07282862 0 -1355.70652312 0 1166.58014289 0 7386
0.08250000 0.08250610 24177.52847400 0 602.87812128 0 7879.09955792 0 -914.41680301 0 1123.48665470 0 7227
0.08350000 0.08350160 23496.69122090 0 251.43256645 0 8109.30426323 0 944.32758127 0 1587.80459597 0 7798
0.08450000 0.08449610 23379.43530107 0 273.50635321 0 7438.39888549 0 2639.02218658 0 36.16520239 0 7371
0.08550000 0.08548940 23045.71543103 0 18.11122315 0 6168.14856532 0 2232.14746646 0 366.78626087 0 8256
0.08650000 0.08650700 22763.70331790 0 414.82243487 0 5621.41931043 0 877.12521302 0 -1442.15923530 0 8037
0.08750000 0.08749060 22377.83279797 0 323.44143090 0 5169.66845783 0 471.45073292 0 456.48316423 0 8155
0.08850000 0.08849210 21759.99707309 0 1178.21715628 0 5081.62133087 0 -1283.58139925 0 -192.74813768 0 8718
0.08950000 0.08949900 21279.56889921 0 771.06673528 0 5196.36383296 0 -468.86866677 0 1147.61325048 0 8571
0.09050000 0.09049190 20682.32769849 0 213.60175424 0 5634.75038951 0 -792.00560874 0 618.20111160 0 8932
0.09150000 0.09150830 20428.55001365 0 514.21426583 0 6385.77510963 0 -573.08360243 0 47.17231121 0 9285
0.09250000 0.09250820 20202.89603385 0 623.90446611 0 7299.31941344 0 -427.04406700 0 -166.99501738 0 9204
0.09350000 0.09350330 19431.93005672 0 567.10565426 0 7302.02106070 0 148.26507272 0 -386.31784185 0 9349
0.09450000 0.09448040 18836.01753498 0 383.89632441 0 7067.57565499 0 139.70948733 0 169.61251497 0 9564
0.09550000 0.09549270 18499.64030699 0 600.05800015 0 7649.54811978 0 692.62595733 0 -1096.68498524 0 10155
0.09650000 0.09649430 18196.92294645 0 625.18221240 0 7165.64323591 0 -277.98067966 0 -586.44125509 0 9913
0.09750000 0.09749140 17355.09409049 0 651.55427565 0 6963.23006590 0 424.57272410 0 115.63382424 0 10476
0.09850000 0.09850240 16928.14524548 0 183.63339988 0 6416.40116008 0 308.51040089 0 -712.03463551 0 10575
0.09950000 0.09950330 17027.68544560 0 209.53488933 0 6160.60831212 0 1438.17319837 0 297.41039526 0 10882
0.10050000 0.10051200 16844.43846985 0 -92.91961422 0 5850.45034930 0 743.55532980 0 -33.45934765 0 10875
0.10150000 0.10150300 16817.86489029 0 121.58076990 0 5718.52359909 0 764.47316585 0 769.53986169 0 11118
0.10250000 0.10250800 16901.23949617 0 -27.61371376 0 5591.04792345 0 651.28632539 0 1265.74388397 0 11575
0.10350000 0.10349800 16680.01444630 0 223.35979410 0 5640.89552978 0 733.27356897 0 2272.57252438 0 11364
0.10450000 0.10450100 16718.32469017 0 322.06735539 0 5421.17631608 0 -256.44057896 0 1187.24110100 0 12093
0.10550000 0.10551000 16200.47205840 0 509.56278218 0 5787.95814802 0 209.94235089 0 1502.75806904 0 12067
0.10650000 0.10649700 15760.34714686 0 187.96932228 0 5138.80988856 0 -395.93194149 0 997.27654579 0 12054
0.10750000 0.10749900 15633.56902769 0 -18.29668459 0 4737.26095668 0 307.15736279 0 930.67319031 0 12807
0.10850000 0.10850100 15672.21144130 0 150.05103871 0 4888.73036020 0 290.68395793 0 -728.32091808 0 12736
0.10950000 0.10950300 15346.90653813 0 472.00656362 0 4540.78255278 0 261.72872130 0 -575.37557367 0 12933
0.11050000 0.11050200 14852.97012797 0 464.80623079 0 3995.16053036 0 -391.78535585 0 -367.49046073 0 13428
0.11150000 0.11150900 14786.97907205 0 352.38670245 0 4591.25020930 0 -233.41457227 0 -457.48188793 0 13453
0.11250000 0.11250000 14486.14400673 0 298.05259010 0 4876.56187523 0 -0.76241371 0 145.01755985 0 13668
0.11350000 0.11349100 14489.57642743 0 236.20147643 0 4788.09399993 0 104.33805991 0 373.55698750 0 13791
0.11450000 0.11448600 14366.56289869 0 -348.43831142 0 5314.97057642 0 253.48758993 0 559.92303715 0 14205
0.11550000 0.11549300 14415.39185114 0 -2.04360792 0 4887.84457422 0 655.71746978 0 329.38062594 0 14776
0.11650000 0.11649800 14681.01692354 0 17.40835197 0 4922.86633762 0 305.26288802 0 438.79512533 0 14553
0.11750000 0.11747300 14388.70754833 0 65.49424070 0 4613.42807591 0 49.01629619 0 429.62613315 0 14568
0.11850000 0.11849100 14644.03535865 0 -81.88892134 0 4245.84903658 0 717.98933180 0 239.11681955 0 16015
0.11950000 0.11950300 14458.90608768 0 286.93819044 0 4309.12737292 0 -28.80531736 0 -59.36183360 0 15270
0.12050000 0.12050700 14005.27293986 0 611.43149221 0 4168.92959607 0 262.18822278 0 97.77338925 0 15999
0.12150000 0.12150000 13557.72957069 0 543.95010137 0 4265.79029358 0 269.77387251 0 324.83211490 0 15670
0.12250000 0.12250700 13344.14442494 0 186.43137637 0 4120.22243919 0 325.99138731 0 607.29708612 0 16887
0.12350000 0.12352200 12983.74025209 0 218.84117834 0 4023.01849961 0 342.62866258 0 485.48379739 0 16407
0.12450000 0.12449800 12932.91828117 0 210.85360322 0 4065.18191252 0 186.15235378 0 667.27033350 0 16306
0.12550000 0.12549900 12937.90082734 0 24.95978822 0 3557.81477235 0 47.65960423 0 1128.64635806 0 17523
0.12650000 0.12650100 12842.23594091 0 -22.11464364 0 3910.04756948 0 427.16918427 0 1044.30845992 0 17154
0.12750000 0.12750600 13038.10536695 0 -47.18648379 0 3368.62195818 0 227.88837495 0 1091.68029442 0 18007
0.12850000 0.12850300 12883.97860547 0 170.60791697 0 3649.96973182 0 136.19513143 0 475.30390195 0 17496
0.12950000 0.12949900 12918.96715190 0 207.50533219 0 3386.03872512 0 -69.29913441 0 461.80120184 0 18405
0.13050000 0.13049000 12605.84180603 0 103.22506982 0 3706.77075814 0 -214.15979941 0 567.99476194 0 18100
0.13150000 0.13148800 12503.75497120 0 342.67959528 0 3370.05028808 0 -64.47780129 0 439.89571442 0 19059
0.13250000 0.13249300 12435.21728057 0 170.29899911 0 4202.78876536 0 -187.61943682 0 -70.76588527 0 18957
0.13350000 0.13349100 12062.52282718 0 156.24600445 0 3562.46514878 0 53.37790638 0 -32.05593048 0 19468
0.13450000 0.13450700 12219.63911635 0 19.49969268 0 3712.04118475 0 497.82611787 0 371.07789397 0 19953
0.13550000 0.13551000 12044.69638422 0 66.86698754 0 3527.36587910 0 303.23886704 0 -296.63533252 0 19956
0.13650000 0.13649900 12164.27749226 0 107.06306977 0 3406.11285001 0 307.81505889 0 -346.97233561 0 19723
0.13750000 0.13749600 11842.51573303 0 212.71707549 0 3352.87711228 0 -196.87368590 0 192.29417236 0 20946
0.13850000 0.13851100 11733.56405682 0 277.67951243 0 3437.74648202 0 45.11031216 0 85.60379704 0 20955
0.13950000 0.13949800 11623.17297837 0 90.06837985 0 3583.45827663 0 -176.56372049 0 376.81667993 0 20506
0.14050000 0.14048300 11493.40533150 0 162.19073564 0 3226.12113776 0 272.75232789 0 -342.57883712 0 21447
0.14150000 0.14148400 11459.52401755 0 105.61990295 0 3482.42331266 0 69.76096107 0 102.83155940 0 21771
0.14250000 0.14249400 11253.02515969 0 141.29393701 0 3499.09823384 0 56.33299915 0 -288.09857008 0 22470
0.14350000 0.14350900 11150.82760161 0 267.74874430 0 3424.36004131 0 81.19225066 0 103.73672195 0 22519
0.14450000 0.14449900 10909.04124455 0 134.64168426 0 3245.05481320 0 289.07847083 0 10.21017825 0 22218
0.14550000 0.14550500 10743.03387854 0 250.78151375 0 3085.43617861 0 232.04160399 0 277.50014077 0 23559
0.14650000 0.14650700 10557.06311089 0 197.43616000 0 3088.12675354 0 458.42635723 0 338.28831125 0 23044
0.14750000 0.14750500 10351.40574970 0 155.65252784 0 3094.71478681 0 313.60699200 0 567.60058718 0 23649
0.14850000 0.14849900 10320.87935018 0 252.53758446 0 2936.49126515 0 54.44616428 0 541.18866356 0 23640
0.14950000 0.14949500 10052.05437591 0 171.52802716 0 3145.23780496 0 -228.53832042 0 532.78587625 0 24457
0.15050000 0.15050000 9896.58786313 0 129.99905846 0 3277.40814632 0 74.31655840 0 781.42157345 0 24591
0.15150000 0.15149900 9865.70714921 0 88.56121500 0 3007.04411890 0 57.17405294 0 650.06947689 0 25020
0.15250000 0.15250500 9915.45510462 0 63.93403941 0 3141.49535917 0 126.60428367 0 363.98496269 0 25297
0.15350000 0.15350100 9699.64442158 0 166.48569044 0 3170.87023691 0 -162.22284538 0 265.57967587 0 25452
0.15450000 0.15450400 9561.16285507 0 349.75259637 0 3171.60101035 0 25.71148835 0 537.21259171 0 26061
0.15550000 0.15549900 9356.44664150 0 236.83813510 0 3364.39233009 0 -63.90658005 0 696.50459272 0 26128
0.15650000 0.15649500 9304.68352297 0 6.26197545 0 3076.79976526 0 278.83103421 0 696.63746061 0 26331
0.15750000 0.15749700 9333.10618078 0 -65.70660789 0 3115.13215378 0 512.24671371 0 574.10114908 0 27345
0.15850000 0.15849900 9231.37366035 0 -104.29653869 0 2576.25317718 0 253.14434786 0 404.21957662 0 26980
0.15950000 0.15949700 9379.65423432 0 138.06524709 0 2858.78568958 0 241.25156378 0 482.64596054 0 27777
0.16050000 0.16050000 9149.77062644 0 208.09437987 0 2586.69437948 0 -59.59867063 0 331.36257208 0 28224
0.16150000 0.16150500 8947.85571104 0 121.73135352 0 2409.84720748 0 -21.11558777 0 401.94642833 0 28075
0.16250000 0.16249700 8993.31867675 0 27.30756398 0 2363.75311926 0 -23.39216847 0 267.26377647 0 28590
0.16350000 0.16349900 8876.23991412 0 126.88884242 0 2400.28071884 0 101.03883928 0 210.90121422 0 29163
0.16450000 0.16449100 8846.25605851 0 203.87250242 0 2381.41347734 0 156.30911670 0 315.04307253 0 28996
0.16550000 0.16550500 8615.86312368 0 83.68009133 0 2118.87758357 0 302.74614859 0 686.96357042 0 30777
0.16650000 0.16650700 8580.19916544 0 -16.75907085 0 2153.70004512 0 517.70758431 0 700.16067437 0 29211
0.16750000 0.16749900 8664.30454476 0 -80.08900422 0 2064.19137129 0 284.07931617 0 452.22917703 0 30922
0.16850000 0.16850800 8660.09706133 0 175.83848321 0 2183.47352656 0 -158.91443473 0 183.64779391 0 30867
0.16950000 0.16949900 8542.98508172 0 260.50412217 0 2268.65292139 0 -493.05616034 0 465.52150298 0 30852
0.17050000 0.17049200 8276.45207869 0 263.95315135 0 2491.92635136 0 -563.88582220 0 500.46133118 0 31257
0.17150000 0.17149500 8147.33769898 0 186.00287740 0 2619.68990744 0 -264.74260811 0 570.36866838 0 32608
0.17250000 0.17250900 8167.63327037 0 46.57584507 0 2602.45029770 0 198.19239979 0 309.60434658 0 32361
0.17350000 0.17350400 8080.73766520 0 10.35507069 0 2543.97735033 0 452.93669859 0 430.39233803 0 32508
0.17450000 0.17449800 8179.76853837 0 -41.32988830 0 2391.63323315 0 519.06615857 0 660.41767167 0 32791
0.17550000 0.17549800 8135.85569814 0 18.54381888 0 2319.60776021 0 478.28235733 0 672.00707406 0 33633
0.17650000 0.17650100 8061.23930119 0 131.91235619 0 2076.86918321 0 191.96753878 0 644.10481551 0 33984
0.17750000 0.17750300 7963.22708190 0 238.62742279 0 2185.94265500 0 -229.90464530 0 854.48230876 0 34069
0.17850000 0.17849800 7786.56813941 0 152.33083039 0 2124.50232458 0 -52.79262329 0 903.14074741 0 34536
