### header ###
fiducial parameters:
Omega_m = 0.31
Omega_nu = 0
Omega_de = 0.69
Omega_k = 0
H_0 = 100
w_de = -1
zeff = 0
beta = 0
fgrowth = 0
b_1 = 2
gamma = 0.55
Lx = 3500 Ly = 3500 Lz = 3500
nx = 700 ny = 700 nz = 700
xoffset = -685.467585 yoffset = -31.7331281 zoffset = 572.489161
bins = 400 dk = 0.001
kx_ny = 0.628318531 ky_ny = 0.628318531 kz_ny = 0.628318531
############################
A(data) = 8.05208367 (not used)
A(ran) = 8.04546866 (used)
Ngal = 478125
weighted Ngal = 0
Nran = 23820508
weighted Nran = 0
SN(data) = 3493.45924
SN(ran) = 70.0789498
SN(data+ran) = 3563.53819
############################
13 columns: k_central k_mean P_0(k) sigma^{lin}_{P_0(k)} P^img_1(k) sigma^{lin}_{P_1(k)} P_2(k) sigma^{lin}_{P_2(k)} P^img_3(k) sigma^{lin}_{P_3(k)} P_4(k) sigma^{lin}_{P_4(k)} N_modes
### header ###
0.00050000 0 0 0 0 0 0 0 0 0 0 0 0
0.00150000 0.00179520 8301.56411138 0 -11430.18235678 0 -2726.26103382 0 -3819.56453106 0 1792.25507374 0 3
0.00250000 0.00253879 12564.32058796 0 -10487.87215309 0 -1909.63278915 0 8905.47085164 0 -1515.17014516 0 6
0.00350000 0.00331552 18336.43423917 0 -5135.02315347 0 632.14338301 0 -1262.01251050 0 12426.24869747 0 7
0.00450000 0.00420575 26305.51858089 0 -2129.24127960 0 10088.81449431 0 -15527.16398618 0 8607.10491475 0 24
0.00550000 0.00557378 36168.19191310 0 -9629.18014643 0 8196.41024258 0 -8710.81938133 0 4429.87107507 0 45
0.00650000 0.00659388 39997.22328189 0 128.46997041 0 19219.45214345 0 -8152.07665400 0 9691.66127539 0 40
0.00750000 0.00754703 53336.16371416 0 -1177.89605886 0 44997.70661648 0 -19281.78933218 0 -5059.97493585 0 57
0.00850000 0.00846663 60963.88828172 0 -800.24895457 0 40835.06610091 0 10028.56997497 0 13682.62539464 0 75
0.00950000 0.00948925 58030.49726752 0 7791.38460071 0 54162.60203862 0 6836.42980208 0 20260.69356940 0 112
0.01050000 0.01054430 75211.64513511 0 -13150.60018711 0 48173.80299071 0 35681.23106758 0 20513.58546826 0 105
0.01150000 0.01145670 73587.11363772 0 -11983.79859772 0 44049.80488876 0 44014.37344934 0 10975.47519346 0 144
0.01250000 0.01249090 81606.68778061 0 5449.21144252 0 22091.39175491 0 43289.80051321 0 9653.31781454 0 169
0.01350000 0.01339930 80220.87560631 0 -706.84614410 0 15283.46211692 0 18853.06891521 0 11230.21617056 0 180
0.01450000 0.01448870 68143.95875687 0 6307.46055619 0 2908.92117635 0 5136.96081031 0 6725.17508230 0 267
0.01550000 0.01550050 67782.11518180 0 1554.70941709 0 -6776.97141780 0 -6616.22340608 0 -5250.03139136 0 238
0.01650000 0.01653350 60479.47407091 0 -8484.05816904 0 -1351.36617179 0 -3885.63309326 0 -5748.86176909 0 315
0.01750000 0.01747870 66144.29689462 0 -3214.17409928 0 -6646.04117682 0 -23601.54613693 0 -20983.71638006 0 297
0.01850000 0.01844180 76339.58286438 0 -2186.44090961 0 5843.24226584 0 -14227.05160598 0 -47524.07897035 0 388
0.01950000 0.01947590 73463.65721599 0 3331.38572981 0 6719.67213686 0 -27773.59812860 0 -16826.94419664 0 399
0.02050000 0.02045430 70243.93588197 0 6259.34023253 0 13659.48423577 0 -12307.66409866 0 -14782.99303512 0 462
0.02150000 0.02154770 71122.85702608 0 1712.81114317 0 23316.54449610 0 2019.38167275 0 -22354.91308560 0 571
0.02250000 0.02255340 72207.83413506 0 -2535.71739602 0 20720.19504937 0 2868.75078191 0 -24496.74359852 0 510
0.02350000 0.02348930 73495.32406497 0 -1759.12667789 0 22093.38477338 0 1349.20706845 0 -29368.23434898 0 555
0.02450000 0.02439640 72024.69788256 0 107.91574951 0 27958.28450657 0 -8873.53826686 0 -13054.49240768 0 592
0.02550000 0.02547300 74044.51137597 0 5648.69044646 0 32823.13186214 0 -6050.16187205 0 -17077.28946079 0 837
0.02650000 0.02652900 67520.25469984 0 5298.79390986 0 24282.49411328 0 5807.32364413 0 -7276.59900292 0 723
0.02750000 0.02749970 66966.97062865 0 1197.94803910 0 23807.60210181 0 5485.68368047 0 -9536.64872792 0 826
0.02850000 0.02848090 66303.84909526 0 -3235.45510758 0 19090.34883607 0 6906.60619678 0 -4811.08014625 0 831
0.02950000 0.02946900 67927.71625316 0 1789.29876302 0 26630.49131432 0 12014.02604447 0 -13744.07679739 0 996
0.03050000 0.03053250 63438.33143219 0 2915.16596755 0 23242.02775007 0 2571.10454614 0 -866.45592082 0 1041
0.03150000 0.03150510 64688.17545772 0 1097.54641211 0 25821.32581657 0 7101.26873941 0 966.80218619 0 1036
0.03250000 0.03246190 61990.84640865 0 822.68480635 0 21542.20444391 0 4065.93483060 0 -855.79880819 0 1059
0.03350000 0.03345080 61969.47682175 0 2628.35953778 0 26762.14125641 0 -1216.06236251 0 2277.20075615 0 1302
0.03450000 0.03451200 60591.30455157 0 2962.89875985 0 26830.56822379 0 -1804.27961850 0 -1608.67592825 0 1339
0.03550000 0.03553350 57740.40235727 0 4824.53302090 0 31852.86403828 0 -4806.49620377 0 5135.92001178 0 1365
0.03650000 0.03647120 55546.86408745 0 4166.06186394 0 28765.89987884 0 -143.41982338 0 882.55286664 0 1308
0.03750000 0.03744890 51773.19434276 0 3690.10690928 0 30893.44709275 0 5446.04475762 0 5123.18683824 0 1579
0.03850000 0.03847530 49515.21514249 0 896.30912300 0 26370.95602057 0 8241.16457949 0 3725.54942103 0 1662
0.03950000 0.03950240 48689.55188076 0 -92.77268447 0 26048.08702886 0 9923.51575709 0 5203.09580645 0 1683
0.04050000 0.04050350 48623.45010160 0 -832.36091101 0 24086.84613373 0 7841.39829192 0 5757.18815735 0 1822
0.04150000 0.04152450 49077.63686566 0 523.63127809 0 24185.83271761 0 1667.48104536 0 1365.25086711 0 1887
0.04250000 0.04250150 47301.74668799 0 2374.62614223 0 21710.94667415 0 -1688.54060717 0 7900.15911973 0 1920
0.04350000 0.04349210 47077.08921742 0 610.31208017 0 22523.54459259 0 1562.58184003 0 2712.04416875 0 2005
0.04450000 0.04448520 46019.12858100 0 -988.76746416 0 19397.16295679 0 3822.13331042 0 5874.87589785 0 2151
0.04550000 0.04548030 46861.28960671 0 1199.86355130 0 18610.69572493 0 3358.43541934 0 -2251.28044375 0 2274
0.04650000 0.04648670 44000.97593631 0 2778.47811767 0 17000.44752655 0 2381.34704340 0 -6351.55055362 0 2311
0.04750000 0.04749250 42116.02335918 0 3078.85921767 0 15830.65640946 0 -1239.38067858 0 120.00628531 0 2568
0.04850000 0.04851840 40839.38430759 0 2122.64217401 0 16902.01455891 0 -3110.54821130 0 4248.36245432 0 2493
0.04950000 0.04949480 39682.99070353 0 73.21541569 0 20283.05966553 0 102.87374495 0 1603.30585071 0 2644
0.05050000 0.05050630 39661.17822364 0 -349.99508028 0 21372.35498119 0 1062.05518214 0 718.74224988 0 2829
0.05150000 0.05149060 39732.81616522 0 1358.31959178 0 19601.66879619 0 -623.14269017 0 374.53578101 0 2784
0.05250000 0.05249300 38333.27430814 0 1699.01502645 0 19759.44942486 0 2681.42919063 0 -1485.73990579 0 3055
0.05350000 0.05348950 37407.07433706 0 776.97714227 0 17559.93209964 0 1246.82128085 0 -1468.38957280 0 3009
0.05450000 0.05448610 35630.74126640 0 864.02111660 0 15057.47596737 0 2809.60242273 0 -3053.02748387 0 3336
0.05550000 0.05550870 35949.73494443 0 -597.21351991 0 14794.84042268 0 2897.52775412 0 -2776.70654570 0 3349
0.05650000 0.05647670 34724.02858700 0 97.63531736 0 10865.84810543 0 5039.42470098 0 -2201.52141602 0 3324
0.05750000 0.05747970 35417.26684390 0 -684.24420745 0 10533.39048042 0 2077.40065480 0 -3502.05454456 0 3639
0.05850000 0.05849280 34808.95331836 0 495.42674508 0 10085.51494151 0 2286.71188317 0 -3617.04063781 0 3846
0.05950000 0.05951020 35223.50115957 0 631.16458950 0 10439.84040803 0 -1129.31069755 0 -2488.58250926 0 3787
0.06050000 0.06049470 34837.51991640 0 525.11939855 0 10850.82296065 0 -1904.84954483 0 -100.50548540 0 3930
0.06150000 0.06148310 34907.93990224 0 -557.98316584 0 12132.27847354 0 -407.04855561 0 -707.87033414 0 4083
0.06250000 0.06249100 35146.99139508 0 -182.03234172 0 11840.96560756 0 1240.36611548 0 -2542.64867135 0 4303
0.06350000 0.06350600 34525.39107976 0 1403.58325564 0 10949.04555412 0 -86.48017155 0 -4319.07032061 0 4470
0.06450000 0.06451750 33557.33772086 0 1209.79542666 0 11158.91039873 0 452.87026464 0 -2120.02910535 0 4479
0.06550000 0.06550280 32283.46675048 0 988.02008224 0 10524.00114898 0 206.90853389 0 -1107.28784349 0 4636
0.06650000 0.06648880 33005.38232865 0 462.18319704 0 10621.45975203 0 3553.46334870 0 -908.96589750 0 4653
0.06750000 0.06749660 31659.20907720 0 -81.82182305 0 10046.11960980 0 894.72245885 0 1389.20030570 0 5220
0.06850000 0.06852730 32256.22883143 0 571.85568161 0 10326.02798122 0 351.82201388 0 423.54742682 0 5029
0.06950000 0.06949320 31491.13118646 0 658.68374560 0 12200.04110143 0 -459.86133053 0 1895.90310637 0 5040
0.07050000 0.07048030 30949.69450282 0 1070.17008900 0 12584.80438887 0 -1329.93015094 0 3215.41419966 0 5475
0.07150000 0.07148790 30446.78950956 0 1153.49265496 0 12710.36455232 0 552.71716816 0 2557.28628476 0 5509
0.07250000 0.07249820 29490.80498472 0 864.12962538 0 12330.14091804 0 651.09698864 0 1213.77039127 0 5916
0.07350000 0.07351270 28084.06611651 0 803.94711106 0 12173.13535212 0 483.74654963 0 1765.85865138 0 5721
0.07450000 0.07449140 28008.66358450 0 1231.51932795 0 11370.39180276 0 1652.14587549 0 1185.52489066 0 6028
0.07550000 0.07549160 26726.93126349 0 274.03007417 0 10709.19685389 0 1373.73226792 0 2032.61310091 0 6183
0.07650000 0.07648840 26530.50822121 0 194.39569961 0 9435.60269163 0 1277.39196968 0 1213.79253592 0 6330
0.07750000 0.07749960 27093.97883123 0 -48.69951697 0 9233.37775114 0 710.59855498 0 1370.10054538 0 6583
0.07850000 0.07848650 26650.08932925 0 -29.90502066 0 9846.25307450 0 -896.55825031 0 1011.65063787 0 6549
0.07950000 0.07947320 27203.15195394 0 -147.62841404 0 9016.84736699 0 181.75996253 0 1321.18301434 0 6828
0.08050000 0.08048110 26693.82501228 0 147.26413455 0 9383.81742845 0 1056.46365811 0 2182.31093246 0 7147
0.08150000 0.08149960 26785.28241528 0 882.54179432 0 9523.53909534 0 549.60584488 0 688.29003493 0 7386
0.08250000 0.08250610 25630.10676695 0 883.50508658 0 9176.65423110 0 911.76165952 0 458.20491074 0 7227
0.08350000 0.08350160 24623.30027119 0 1364.34293648 0 9998.99579538 0 164.38969935 0 411.51402421 0 7798
0.08450000 0.08449610 23174.04367568 0 1254.23973848 0 8511.00820765 0 -906.03505312 0 1411.20101511 0 7371
0.08550000 0.08548940 23125.21472323 0 381.74607893 0 9608.75170714 0 1353.52527513 0 1767.32019825 0 8256
0.08650000 0.08650700 22412.48917466 0 117.09315665 0 8403.71738016 0 1023.70507790 0 2163.78693303 0 8037
0.08750000 0.08749060 22422.89715999 0 88.07846164 0 9226.31360791 0 1687.83197838 0 2050.72742431 0 8155
0.08850000 0.08849210 21997.49844045 0 343.38711683 0 8137.63834244 0 933.37040863 0 1515.30301306 0 8718
0.08950000 0.08949900 21732.75915404 0 587.38904609 0 8359.32842996 0 1239.69070367 0 2269.78229852 0 8571
0.09050000 0.09049190 21027.34133984 0 363.73915708 0 8558.53062577 0 167.61838927 0 3912.16238352 0 8932
0.09150000 0.09150830 21024.46253539 0 483.44316793 0 8351.85461070 0 632.88190708 0 4132.04768210 0 9285
0.09250000 0.09250820 21008.07549466 0 438.84162909 0 9086.53657940 0 23.53876606 0 4861.89104484 0 9204
0.09350000 0.09350330 20199.02072016 0 424.37342225 0 8523.91853839 0 -187.39466863 0 4301.24387765 0 9349
0.09450000 0.09448040 19991.08246007 0 475.21089443 0 9112.87764014 0 171.54685011 0 4740.13976114 0 9564
0.09550000 0.09549270 19742.84093763 0 537.69977401 0 8886.96899687 0 604.79363348 0 3137.12179087 0 10155
0.09650000 0.09649430 18935.66845835 0 582.38103358 0 8182.49233028 0 773.04425249 0 4447.09961249 0 9913
0.09750000 0.09749140 18674.58303913 0 776.62393510 0 7934.79335176 0 675.75284154 0 2133.50412466 0 10476
0.09850000 0.09850240 17850.02700988 0 357.74681489 0 7170.62578208 0 565.00080531 0 3134.23191409 0 10575
0.09950000 0.09950330 17599.90319223 0 189.90587189 0 6849.27369887 0 1401.72310507 0 2280.57781522 0 10882
0.10050000 0.10051200 17513.76050514 0 -106.30738360 0 6045.25683216 0 422.02719663 0 1905.55817361 0 10875
0.10150000 0.10150300 17443.34051930 0 125.12834278 0 6300.05317089 0 349.65848161 0 1835.90217818 0 11118
0.10250000 0.10250800 17030.78569655 0 149.28815553 0 5903.35391728 0 441.41151569 0 1564.17625481 0 11575
0.10350000 0.10349800 17048.72286276 0 260.86618719 0 6085.87011959 0 257.05177129 0 1920.52795677 0 11364
0.10450000 0.10450100 16889.17066212 0 230.95983786 0 5634.47358139 0 298.85976257 0 1940.82352816 0 12093
0.10550000 0.10551000 16773.79703751 0 136.52840841 0 5465.48776001 0 653.43546364 0 2219.82396894 0 12067
0.10650000 0.10649700 16748.33069043 0 21.06853039 0 5234.29761779 0 540.53761086 0 1907.19687769 0 12054
0.10750000 0.10749900 16541.49966282 0 351.03920052 0 4975.86955653 0 550.20817935 0 1776.48808320 0 12807
0.10850000 0.10850100 16257.93742421 0 213.11346471 0 5203.67156734 0 389.54542454 0 2431.18357740 0 12736
0.10950000 0.10950300 16017.33580590 0 174.83200889 0 4842.47018711 0 -192.46911509 0 1803.50455576 0 12933
0.11050000 0.11050200 15605.99893889 0 604.33413200 0 5294.66393270 0 -338.04582734 0 2152.89176541 0 13428
0.11150000 0.11150900 15347.23870788 0 892.98631832 0 6207.48853540 0 -742.35066086 0 1150.70242910 0 13453
0.11250000 0.11250000 14615.57948386 0 531.40515735 0 6033.95198852 0 -693.59146406 0 1884.48753948 0 13668
0.11350000 0.11349100 14312.52995357 0 349.93750420 0 6377.14976860 0 -202.18840182 0 1335.83170007 0 13791
0.11450000 0.11448600 14217.19723689 0 87.37492612 0 6330.67922133 0 185.95858810 0 1221.81997141 0 14205
0.11550000 0.11549300 14308.10102365 0 -147.63727190 0 6076.02682283 0 859.89113944 0 430.12106607 0 14776
0.11650000 0.11649800 14133.04756826 0 1.44229210 0 5405.60862739 0 668.61229927 0 1247.37489709 0 14553
0.11750000 0.11747300 14591.33109251 0 -169.06000596 0 5598.80962315 0 1204.72430189 0 904.10957583 0 14568
0.11850000 0.11849100 14217.52940663 0 193.28625266 0 5270.32696275 0 849.06794193 0 1197.74873726 0 16015
0.11950000 0.11950300 14265.36184985 0 107.07237052 0 4976.13529232 0 405.33455973 0 1681.02249862 0 15270
0.12050000 0.12050700 13988.44300613 0 -57.27281808 0 4645.80355368 0 1144.20297443 0 1935.65275247 0 15999
0.12150000 0.12150000 14108.35628392 0 51.77319434 0 4135.08149910 0 436.29277992 0 2172.17975525 0 15670
0.12250000 0.12250700 14228.49100820 0 22.22747063 0 4236.59257303 0 172.59872097 0 1617.68880065 0 16887
0.12350000 0.12352200 13851.14617838 0 404.18857411 0 3600.22177641 0 -295.12617465 0 1408.94226085 0 16407
0.12450000 0.12449800 13569.46623500 0 482.71350172 0 3957.30425181 0 -756.39147596 0 1289.11756166 0 16306
0.12550000 0.12549900 13331.85414439 0 370.31501079 0 4123.95381265 0 -431.50953560 0 1205.73188345 0 17523
0.12650000 0.12650100 12934.91129964 0 335.30099802 0 4099.49504713 0 -572.10148722 0 641.91470966 0 17154
0.12750000 0.12750600 12969.12478333 0 232.11357410 0 4476.59628580 0 -15.16089148 0 505.78490495 0 18007
0.12850000 0.12850300 12652.56701676 0 58.91318300 0 4816.27306659 0 106.41245996 0 512.08727224 0 17496
0.12950000 0.12949900 12931.03598595 0 -116.70673252 0 4819.98229540 0 91.80053435 0 499.22676696 0 18405
0.13050000 0.13049000 13000.23801607 0 -76.18667406 0 4660.57403499 0 808.55873435 0 1520.20805295 0 18100
0.13150000 0.13148800 12876.67087109 0 117.58808957 0 4325.42583505 0 719.82955218 0 1242.04910886 0 19059
0.13250000 0.13249300 12964.69585340 0 133.52005776 0 3895.00028005 0 576.96555951 0 962.01783464 0 18957
0.13350000 0.13349100 12723.31917235 0 156.05334599 0 3400.31095181 0 317.54984687 0 1418.03263952 0 19468
0.13450000 0.13450700 12641.16252220 0 37.65586948 0 3750.32928397 0 23.70739756 0 975.26144235 0 19953
0.13550000 0.13551000 12507.85173138 0 -54.14433270 0 3212.77898635 0 54.05198951 0 906.34064929 0 19956
0.13650000 0.13649900 12618.46425632 0 175.21843302 0 3271.58410346 0 -142.41556351 0 181.99912474 0 19723
0.13750000 0.13749600 12420.60181181 0 396.31061500 0 3760.73726930 0 -725.40668219 0 178.86897852 0 20946
0.13850000 0.13851100 12274.00423121 0 280.92591807 0 3949.75292628 0 -272.14999341 0 642.99426133 0 20955
0.13950000 0.13949800 11944.71329111 0 186.16231887 0 4115.88208786 0 101.70949000 0 798.23822038 0 20506
0.14050000 0.14048300 12084.99964656 0 147.07258333 0 4054.76285486 0 471.69210960 0 937.51810151 0 21447
0.14150000 0.14148400 11874.73619825 0 88.59520704 0 4005.24741827 0 726.83833379 0 503.31799098 0 21771
0.14250000 0.14249400 11587.29864596 0 321.88576927 0 3798.39424601 0 193.03823259 0 315.61883342 0 22470
0.14350000 0.14350900 11185.48397829 0 453.95645970 0 3688.47927754 0 72.83751725 0 714.79828778 0 22519
0.14450000 0.14449900 11025.61068024 0 108.44843905 0 3309.00856135 0 213.45559955 0 885.12718216 0 22218
0.14550000 0.14550500 10721.45391747 0 -7.28119402 0 3340.86363985 0 590.04418959 0 908.51636111 0 23559
0.14650000 0.14650700 11036.78265598 0 -59.07539256 0 3288.70191763 0 367.84588236 0 442.07696241 0 23044
0.14750000 0.14750500 10766.85044922 0 140.87318867 0 2906.03129958 0 193.21871148 0 590.68306273 0 23649
0.14850000 0.14849900 10798.34014101 0 253.73339554 0 3220.41889048 0 -384.78321763 0 783.48545479 0 23640
0.14950000 0.14949500 10495.20203212 0 244.82460300 0 3055.66269718 0 -108.94702584 0 794.51902648 0 24457
0.15050000 0.15050000 10390.64606886 0 105.88143127 0 3473.12255981 0 -57.51341970 0 652.50981728 0 24591
0.15150000 0.15149900 10328.76284545 0 150.50721849 0 2958.00479228 0 225.33177515 0 708.87127231 0 25020
0.15250000 0.15250500 10202.99230784 0 87.16111953 0 3073.68844198 0 198.12818030 0 456.02919891 0 25297
0.15350000 0.15350100 10102.06806711 0 290.07498006 0 2858.88534050 0 225.13690223 0 126.97742102 0 25452
0.15450000 0.15450400 9939.29381995 0 182.29032688 0 2736.19290918 0 -15.47700635 0 272.50873674 0 26061
0.15550000 0.15549900 9654.65756584 0 210.61444100 0 2606.19274349 0 102.51012981 0 266.48428481 0 26128
0.15650000 0.15649500 9662.69607366 0 66.34193789 0 2598.97358771 0 165.24116113 0 313.62913665 0 26331
0.15750000 0.15749700 9600.11529378 0 -61.48417682 0 2653.93660811 0 148.17206519 0 -56.48336132 0 27345
0.15850000 0.15849900 9551.24205204 0 105.95162981 0 2538.25295840 0 -61.56577986 0 0.70678635 0 26980
0.15950000 0.15949700 9494.25279619 0 276.33422496 0 2651.50069665 0 -280.34904994 0 -299.77544384 0 27777
0.16050000 0.16050000 9334.49022139 0 215.33568031 0 2829.58796903 0 -389.02059634 0 -366.75415113 0 28224
0.16150000 0.16150500 9250.73915646 0 183.81830771 0 3078.80385605 0 -160.65832589 0 -179.14467940 0 28075
0.16250000 0.16249700 8945.51945051 0 21.13131047 0 2894.88146848 0 65.31243313 0 130.35115839 0 28590
0.16350000 0.16349900 9173.85293292 0 12.57461785 0 2991.64251507 0 423.54521236 0 -173.39260666 0 29163
0.16450000 0.16449100 9197.62521430 0 -96.64733381 0 2923.09375212 0 364.55297296 0 -30.40006430 0 28996
0.16550000 0.16550500 9168.36105981 0 22.00901366 0 2840.40563038 0 356.33952241 0 -126.99735120 0 30777
0.16650000 0.16650700 9095.73768132 0 100.25259350 0 2806.18107436 0 -45.18150721 0 310.57649670 0 29211
0.16750000 0.16749900 9031.57355900 0 151.10623127 0 2693.75268815 0 -29.45448776 0 384.44219003 0 30922
0.16850000 0.16850800 9026.77924235 0 136.81961055 0 2970.69367652 0 54.85451162 0 538.98859261 0 30867
0.16950000 0.16949900 8918.74656909 0 91.97625214 0 3010.03364660 0 15.93850085 0 564.74724907 0 30852
0.17050000 0.17049200 8745.43146871 0 287.52502366 0 2864.17791176 0 24.10910151 0 678.67482806 0 31257
0.17150000 0.17149500 8561.17691140 0 334.54807993 0 2933.36886955 0 5.62289193 0 652.37141322 0 32608
0.17250000 0.17250900 8333.61849173 0 193.68817805 0 2976.08589870 0 283.61760023 0 848.58408133 0 32361
0.17350000 0.17350400 8131.37140659 0 10.98669146 0 2592.16410794 0 183.05763899 0 393.18711217 0 32508
0.17450000 0.17449800 8154.55685476 0 -2.59321598 0 2522.38631694 0 409.34606301 0 493.16356189 0 32791
0.17550000 0.17549800 8222.35269963 0 -46.76783919 0 2390.49278370 0 246.61499792 0 239.19986199 0 33633
0.17650000 0.17650100 8137.69370406 0 60.14852228 0 2299.23468254 0 257.56441993 0 36.81935534 0 33984
0.17750000 0.17750300 8063.91880380 0 140.36496896 0 2121.08097621 0 -141.23636092 0 147.67823950 0 34069
0.17850000 0.17849800 7969.51616239 0 228.81069961 0 2192.69677314 0 36.72911589 0 330.13575849 0 34536
