### header ###
fiducial parameters:
Omega_m = 0.31
Omega_nu = 0
Omega_de = 0.69
Omega_k = 0
H_0 = 100
w_de = -1
zeff = 0
beta = 0
fgrowth = 0
b_1 = 2
gamma = 0.55
Lx = 3500 Ly = 3500 Lz = 3500
nx = 700 ny = 700 nz = 700
xoffset = -685.467585 yoffset = -31.7331281 zoffset = 572.489161
bins = 400 dk = 0.001
kx_ny = 0.628318531 ky_ny = 0.628318531 kz_ny = 0.628318531
############################
A(data) = 8.06043486 (not used)
A(ran) = 8.05920332 (used)
Ngal = 479124
weighted Ngal = 0
Nran = 23820508
weighted Nran = 0
SN(data) = 3489.77755
SN(ran) = 70.1985837
SN(data+ran) = 3559.97613
############################
13 columns: k_central k_mean P_0(k) sigma^{lin}_{P_0(k)} P^img_1(k) sigma^{lin}_{P_1(k)} P_2(k) sigma^{lin}_{P_2(k)} P^img_3(k) sigma^{lin}_{P_3(k)} P_4(k) sigma^{lin}_{P_4(k)} N_modes
### header ###
0.00050000 0 0 0 0 0 0 0 0 0 0 0 0
0.00150000 0.00179520 5990.68134313 0 -11881.93320939 0 6315.17796659 0 -31329.91813710 0 -29404.44085113 0 3
0.00250000 0.00253879 29680.58463211 0 -38047.38688132 0 -26088.50101445 0 -18717.65438267 0 -6976.82688078 0 6
0.00350000 0.00331552 34843.05607881 0 -24131.02470976 0 -29983.63416240 0 18497.20439553 0 27694.09883640 0 7
0.00450000 0.00420575 53532.91892618 0 -15644.64135251 0 -32853.02713915 0 -12690.32364440 0 -2397.97767527 0 24
0.00550000 0.00557378 62627.72653222 0 -22504.50019390 0 -51053.60395279 0 2190.65946537 0 -5919.32020967 0 45
0.00650000 0.00659388 61800.95603801 0 -6533.53528434 0 -57174.60655904 0 -11491.41231303 0 -13585.18893624 0 40
0.00750000 0.00754703 74186.56930340 0 -3128.65146238 0 -44670.51941809 0 -33213.43131200 0 -13439.47714162 0 57
0.00850000 0.00846663 68789.69674029 0 8016.00885431 0 -38255.21441817 0 -38219.89370200 0 12131.39268755 0 75
0.00950000 0.00948925 62884.60446801 0 5160.73309170 0 -39655.86350773 0 -43351.58408569 0 -5390.43954238 0 112
0.01050000 0.01054430 62334.75281752 0 -1928.55539226 0 -10526.54778369 0 -40517.06893212 0 -1414.45627861 0 105
0.01150000 0.01145670 64603.02927987 0 6253.07329668 0 4660.24186524 0 -33399.99998519 0 -8376.86699247 0 144
0.01250000 0.01249090 65245.77773559 0 2189.54116056 0 16346.51602276 0 -37658.19466395 0 -19966.83406871 0 169
0.01350000 0.01339930 62931.21895550 0 1965.34872763 0 17494.16249021 0 -3737.58503811 0 -13683.73262712 0 180
0.01450000 0.01448870 77392.11806164 0 -13890.34220824 0 37594.63951949 0 7262.19390833 0 -18479.59939907 0 267
0.01550000 0.01550050 68105.98068274 0 -10431.48080279 0 10712.02029672 0 15616.84981721 0 -23483.29370787 0 238
0.01650000 0.01653350 96376.50474920 0 -3626.45211390 0 28326.21786029 0 20432.09315759 0 -23453.73060060 0 315
0.01750000 0.01747870 88486.14463693 0 547.42127520 0 2874.20943805 0 8585.60245995 0 -17160.22117368 0 297
0.01850000 0.01844180 80218.99331109 0 16640.59696994 0 14851.75217224 0 -4009.94208400 0 -3991.71703734 0 388
0.01950000 0.01947590 73960.02953761 0 10482.88960693 0 15860.10879348 0 7352.42228327 0 7873.03192392 0 399
0.02050000 0.02045430 61687.35398537 0 -1318.21563128 0 12739.81693633 0 10948.31478068 0 13748.50572731 0 462
0.02150000 0.02154770 71895.81602167 0 -7017.08585382 0 11044.97617634 0 12710.14310582 0 -6733.65648311 0 571
0.02250000 0.02255340 75948.84052153 0 981.23828329 0 15965.62804900 0 -10227.32927779 0 -5804.79915407 0 510
0.02350000 0.02348930 70059.36022725 0 10701.33550327 0 16168.58376292 0 -23655.91125179 0 8089.60659738 0 555
0.02450000 0.02439640 67825.74014158 0 9782.34361565 0 30825.57374161 0 -13905.73273974 0 22587.76407653 0 592
0.02550000 0.02547300 61121.11529415 0 -1434.80721162 0 25847.12433340 0 7609.25592977 0 17105.85605882 0 837
0.02650000 0.02652900 64455.65663653 0 -3058.32005513 0 31490.90973996 0 22212.08009544 0 1736.52806293 0 723
0.02750000 0.02749970 68254.90345155 0 -3749.68708913 0 16112.77924584 0 14789.96859976 0 -6527.40121639 0 826
0.02850000 0.02848090 63317.20019868 0 2693.08834866 0 13915.58710883 0 9732.97211928 0 -929.10534911 0 831
0.02950000 0.02946900 62168.00360575 0 2279.83596946 0 248.28691897 0 -1403.06285637 0 7053.03769250 0 996
0.03050000 0.03053250 62394.10047855 0 -3308.18920932 0 974.73218522 0 6515.09986351 0 3090.75089453 0 1041
0.03150000 0.03150510 61424.38627093 0 -342.21566487 0 3992.07135174 0 -2998.42985019 0 -1516.27737764 0 1036
0.03250000 0.03246190 64611.55496998 0 5814.48743829 0 4106.59240734 0 -8348.63256418 0 -10517.41311571 0 1059
0.03350000 0.03345080 56609.91799329 0 5261.48017522 0 13621.50616164 0 -7913.03623349 0 2802.90366622 0 1302
0.03450000 0.03451200 54601.73044093 0 3573.18315920 0 15513.54502665 0 -4327.31920260 0 3379.98216344 0 1339
0.03550000 0.03553350 54189.50778793 0 -1209.20859344 0 22607.91570770 0 3287.41752796 0 6953.37569681 0 1365
0.03650000 0.03647120 54418.48346518 0 4223.50508510 0 20036.03609883 0 3173.31722070 0 4085.41104996 0 1308
0.03750000 0.03744890 52993.69670752 0 1537.79090476 0 22571.26631256 0 1952.49375852 0 4783.13359841 0 1579
0.03850000 0.03847530 49743.63720350 0 1400.12869029 0 23007.40518716 0 2990.71243979 0 6908.32240712 0 1662
0.03950000 0.03950240 49203.63992209 0 3996.97639163 0 18781.87386662 0 4220.26089393 0 -1090.59299213 0 1683
0.04050000 0.04050350 44973.23677863 0 3502.85175195 0 18326.35842358 0 -280.08552861 0 -279.16320396 0 1822
0.04150000 0.04152450 42077.04877582 0 1181.90424044 0 15481.32456143 0 -3174.34694691 0 -3066.94539617 0 1887
0.04250000 0.04250150 43238.75709579 0 337.19325833 0 19575.20593988 0 -1285.13152473 0 583.88576252 0 1920
0.04350000 0.04349210 43603.14730557 0 -710.91411624 0 21715.48632732 0 -1741.11200541 0 -1932.22033178 0 2005
0.04450000 0.04448520 43391.33373179 0 136.50958546 0 21200.06960701 0 3309.39609272 0 -4466.27687907 0 2151
0.04550000 0.04548030 42910.46266492 0 684.29403291 0 23616.05088244 0 2456.19595917 0 -2008.86296417 0 2274
0.04650000 0.04648670 42637.64058139 0 1267.78119174 0 19056.24607563 0 3374.72280915 0 -128.07801011 0 2311
0.04750000 0.04749250 40756.00970171 0 1246.37838786 0 19707.52022146 0 2038.58108399 0 -614.24829164 0 2568
0.04850000 0.04851840 40330.38953568 0 376.69599159 0 18036.04206684 0 5424.89661722 0 2212.75982571 0 2493
0.04950000 0.04949480 40089.89864062 0 903.37215900 0 17142.61617722 0 1635.18307387 0 -650.30421018 0 2644
0.05050000 0.05050630 37059.95695399 0 2438.77919223 0 12589.78693504 0 -480.21669248 0 -2469.81491870 0 2829
0.05150000 0.05149060 35716.33033725 0 2688.93622686 0 14246.42817441 0 -897.09082913 0 792.89360919 0 2784
0.05250000 0.05249300 33435.32070136 0 979.95942977 0 12313.97532381 0 1664.39186674 0 2071.14479128 0 3055
0.05350000 0.05348950 33464.21946914 0 -1148.45474716 0 12423.92350926 0 2929.21674775 0 832.87355965 0 3009
0.05450000 0.05448610 35267.12611936 0 -981.01130063 0 12727.74810228 0 3395.38376726 0 1437.87424560 0 3336
0.05550000 0.05550870 35462.10975942 0 93.35575309 0 13756.25635469 0 779.35437040 0 2164.18553673 0 3349
0.05650000 0.05647670 35430.77508018 0 779.98327845 0 11968.51878947 0 15.73831322 0 5096.12607638 0 3324
0.05750000 0.05747970 35670.49091250 0 643.78261086 0 14135.04058673 0 600.48539189 0 7304.87772050 0 3639
0.05850000 0.05849280 34239.39292969 0 164.67093640 0 12321.06161169 0 3452.21801056 0 8182.79128305 0 3846
0.05950000 0.05951020 34521.84793582 0 214.67576975 0 12079.57420740 0 1315.37004381 0 4361.90914533 0 3787
0.06050000 0.06049470 34498.81750019 0 350.50662169 0 10375.59877943 0 2657.54618600 0 2912.39788635 0 3930
0.06150000 0.06148310 33426.01994852 0 -20.88107593 0 8528.49140854 0 -353.78292261 0 770.80764288 0 4083
0.06250000 0.06249100 32887.46206934 0 373.67989030 0 8566.52484429 0 -201.20296491 0 464.62796636 0 4303
0.06350000 0.06350600 33917.18827747 0 354.41515235 0 7604.45054080 0 -418.02455120 0 -865.77497285 0 4470
0.06450000 0.06451750 32590.61304095 0 44.28110575 0 8145.06787239 0 -584.90330917 0 -2308.42471214 0 4479
0.06550000 0.06550280 31762.18169802 0 1484.89840910 0 8294.57747442 0 -15.84648983 0 -4135.34723489 0 4636
0.06650000 0.06648880 32013.08057841 0 986.95381736 0 9638.51411626 0 -1100.29788483 0 -2128.89803753 0 4653
0.06750000 0.06749660 31489.58106098 0 -397.90170808 0 9181.94680236 0 1138.11319578 0 -1624.80830551 0 5220
0.06850000 0.06852730 31537.30278095 0 28.43306579 0 9796.59369769 0 469.10340006 0 -312.20080675 0 5029
0.06950000 0.06949320 32449.44089951 0 14.00294775 0 10742.79028739 0 803.73341519 0 275.35432422 0 5040
0.07050000 0.07048030 31182.10260077 0 566.71812289 0 11581.09814406 0 1187.46254750 0 2266.90349407 0 5475
0.07150000 0.07148790 30792.68893690 0 1703.07856966 0 12491.79686040 0 217.81034490 0 4332.55641224 0 5509
0.07250000 0.07249820 29558.34616611 0 1018.00172338 0 11475.91105829 0 2189.36400337 0 5260.88226968 0 5916
0.07350000 0.07351270 29050.79079643 0 472.17264850 0 11752.49773226 0 1298.63976100 0 6437.07319052 0 5721
0.07450000 0.07449140 28075.98331939 0 1008.49281083 0 10526.69172391 0 1172.86922339 0 6525.07602818 0 6028
0.07550000 0.07549160 27919.30992321 0 828.91963246 0 10994.70782167 0 -263.87785954 0 6322.56320724 0 6183
0.07650000 0.07648840 26723.05594980 0 598.12587947 0 9941.67436979 0 -46.89494947 0 6320.42624855 0 6330
0.07750000 0.07749960 26636.13819998 0 4.55322785 0 10191.47709002 0 633.45988243 0 5393.32941916 0 6583
0.07850000 0.07848650 26382.02834539 0 79.37328914 0 9123.17490222 0 794.78697674 0 3820.29530450 0 6549
0.07950000 0.07947320 26427.75704689 0 281.16175858 0 10717.31286799 0 -166.20888232 0 2140.76756974 0 6828
0.08050000 0.08048110 26289.68515640 0 732.11208210 0 9924.41261540 0 -74.63211965 0 4748.90904239 0 7147
0.08150000 0.08149960 25209.13697735 0 883.18509639 0 10210.25575292 0 673.98126957 0 3959.28619795 0 7386
0.08250000 0.08250610 24313.82879251 0 748.79143221 0 9889.18047783 0 1352.50662125 0 3386.29338859 0 7227
0.08350000 0.08350160 24149.73693870 0 139.66298356 0 10395.39609621 0 608.65676761 0 2311.10421475 0 7798
0.08450000 0.08449610 23449.08022418 0 642.33656524 0 10163.51946986 0 349.45807253 0 3010.77549236 0 7371
0.08550000 0.08548940 23395.82234180 0 891.20699572 0 10296.34307838 0 -410.17980907 0 3633.30588297 0 8256
0.08650000 0.08650700 22570.38052657 0 520.00509171 0 9331.30139184 0 -854.19775002 0 2680.23337955 0 8037
0.08750000 0.08749060 22174.65563755 0 727.95331690 0 10429.34384410 0 247.73883889 0 3012.59135363 0 8155
0.08850000 0.08849210 21856.76919201 0 537.78835260 0 8952.01890517 0 1364.65296157 0 2076.54808579 0 8718
0.08950000 0.08949900 21086.57827762 0 -2.16089706 0 8953.81262180 0 1453.44193429 0 1387.24050420 0 8571
0.09050000 0.09049190 21203.61275096 0 -150.37877952 0 8415.99658838 0 806.42177566 0 677.27971513 0 8932
0.09150000 0.09150830 21219.00328245 0 725.69677710 0 9246.96349369 0 294.66002977 0 2083.01432348 0 9285
0.09250000 0.09250820 20310.51903108 0 1027.10871055 0 8149.86218904 0 -636.62324563 0 1417.34615539 0 9204
0.09350000 0.09350330 19502.68221232 0 642.78831609 0 8740.71465834 0 417.30152839 0 2779.28639738 0 9349
0.09450000 0.09448040 19370.25720748 0 237.67188116 0 8936.30727626 0 566.05821233 0 2222.96850919 0 9564
0.09550000 0.09549270 19045.83809030 0 -24.86390189 0 8375.20614375 0 1343.02871120 0 1301.99467542 0 10155
0.09650000 0.09649430 18921.71732908 0 495.28944825 0 7693.78205743 0 890.98333476 0 936.95784187 0 9913
0.09750000 0.09749140 18366.99385567 0 634.26373321 0 7008.74839323 0 815.11908680 0 1164.28817166 0 10476
0.09850000 0.09850240 17765.10227853 0 449.57956970 0 6018.25143193 0 1277.19266783 0 2239.21160970 0 10575
0.09950000 0.09950330 17177.71544690 0 190.23693441 0 5755.56052560 0 1171.92807578 0 2566.50953134 0 10882
0.10050000 0.10051200 17236.95238468 0 72.58750415 0 5319.72060377 0 1204.38105982 0 1952.99201314 0 10875
0.10150000 0.10150300 17010.41261889 0 403.47219469 0 5334.11462603 0 -44.89661629 0 1224.26695520 0 11118
0.10250000 0.10250800 16633.17851232 0 551.94321265 0 5629.62390312 0 -1281.34478964 0 1804.09138898 0 11575
0.10350000 0.10349800 16311.30602984 0 407.67414196 0 5838.91298684 0 -656.17254233 0 2707.36057536 0 11364
0.10450000 0.10450100 16219.73790359 0 238.39379674 0 5797.49141969 0 -625.85540975 0 1681.81970600 0 12093
0.10550000 0.10551000 16013.34976897 0 153.46685092 0 6657.46781603 0 -43.58233133 0 826.69188070 0 12067
0.10650000 0.10649700 15980.79713400 0 19.14161370 0 5976.89629873 0 855.93167608 0 558.74494179 0 12054
0.10750000 0.10749900 15757.46834241 0 -43.49984252 0 5544.06804924 0 1008.21932441 0 377.29943329 0 12807
0.10850000 0.10850100 15909.38063892 0 -48.58381118 0 5019.99277093 0 1072.12213986 0 882.29155978 0 12736
0.10950000 0.10950300 16024.86498678 0 -13.41412152 0 4820.48055002 0 1005.43242025 0 607.18968457 0 12933
0.11050000 0.11050200 15979.13628528 0 302.30547006 0 4669.09972510 0 -225.03946578 0 748.09498298 0 13428
0.11150000 0.11150900 15724.25136795 0 248.40096391 0 4796.22108634 0 -341.30330530 0 1421.52042184 0 13453
0.11250000 0.11250000 15471.35946909 0 135.97811387 0 5181.11724169 0 -533.61519338 0 1467.93560748 0 13668
0.11350000 0.11349100 15484.86770537 0 78.98653284 0 5736.17288485 0 -555.83402759 0 1531.25823312 0 13791
0.11450000 0.11448600 15582.85778002 0 23.60398205 0 5978.84502790 0 408.27869090 0 1274.14777851 0 14205
0.11550000 0.11549300 15296.85962995 0 174.40904608 0 5755.16192191 0 148.86629995 0 922.43648787 0 14776
0.11650000 0.11649800 15186.46855151 0 628.55816423 0 5603.03925123 0 285.81434947 0 621.79297377 0 14553
0.11750000 0.11747300 14374.53497256 0 628.99995000 0 5693.02403503 0 112.44720916 0 666.76322102 0 14568
0.11850000 0.11849100 14008.70536055 0 589.36767054 0 5444.41712588 0 -41.27220148 0 954.40671856 0 16015
0.11950000 0.11950300 13742.30522541 0 108.44766399 0 5535.50914216 0 515.40786245 0 2050.18488040 0 15270
0.12050000 0.12050700 13681.73960866 0 -134.78562448 0 4963.56820365 0 859.77598726 0 1243.38886016 0 15999
0.12150000 0.12150000 13702.77702581 0 -82.88631636 0 4865.30132089 0 1173.77715402 0 1729.37534110 0 15670
0.12250000 0.12250700 13924.22352219 0 99.04216695 0 4246.87876279 0 452.34765091 0 1146.07419733 0 16887
0.12350000 0.12352200 13611.65179255 0 384.62045446 0 4324.41825350 0 -107.42103803 0 1327.46102251 0 16407
0.12450000 0.12449800 13306.94141355 0 418.73096553 0 4591.54916207 0 -176.97339651 0 1701.15198514 0 16306
0.12550000 0.12549900 13125.90890276 0 202.23379835 0 4400.54048662 0 -82.95131091 0 1784.94733936 0 17523
0.12650000 0.12650100 13140.52437152 0 -254.12424861 0 4849.11358200 0 597.99079711 0 1171.55161674 0 17154
0.12750000 0.12750600 13308.27009252 0 -168.06903289 0 4776.09159982 0 136.88272280 0 868.78443073 0 18007
0.12850000 0.12850300 13295.86908873 0 249.72410673 0 4460.35318529 0 4.85452795 0 784.40002882 0 17496
0.12950000 0.12949900 13264.31296299 0 204.26224825 0 4383.33409386 0 271.35057156 0 1839.67784094 0 18405
0.13050000 0.13049000 13003.55971351 0 238.12141755 0 4599.49909129 0 191.50139390 0 1632.99075355 0 18100
0.13150000 0.13148800 12763.06881845 0 243.09289139 0 3829.98358872 0 566.15232709 0 1286.54878230 0 19059
0.13250000 0.13249300 12603.95951081 0 260.69345893 0 3795.67045411 0 624.83564863 0 949.67329970 0 18957
0.13350000 0.13349100 12237.02266632 0 391.44100655 0 3523.72308423 0 32.13930508 0 1206.25228272 0 19468
0.13450000 0.13450700 12034.17767564 0 180.76677499 0 3371.91043865 0 406.28567243 0 891.55355949 0 19953
0.13550000 0.13551000 11709.31566546 0 -100.17364782 0 3336.09146786 0 -171.60221174 0 1115.35956828 0 19956
0.13650000 0.13649900 11917.25392556 0 -23.41630614 0 3349.45576391 0 138.83698813 0 608.72873772 0 19723
0.13750000 0.13749600 11896.77012464 0 204.87122612 0 3429.73011885 0 -71.63129818 0 914.69582559 0 20946
0.13850000 0.13851100 11710.09072820 0 228.07771171 0 3303.17344617 0 -85.28579987 0 869.91491510 0 20955
0.13950000 0.13949800 11635.02036593 0 190.83151825 0 3257.83227604 0 27.75477518 0 755.33960511 0 20506
0.14050000 0.14048300 11437.26864467 0 148.36693810 0 3318.97365369 0 -24.24263374 0 372.53501192 0 21447
0.14150000 0.14148400 11369.83818652 0 35.59542055 0 3443.23835513 0 120.38606606 0 274.41206938 0 21771
0.14250000 0.14249400 11115.28543894 0 148.24624976 0 3132.59321002 0 126.05177467 0 -127.69933660 0 22470
0.14350000 0.14350900 11075.64651609 0 273.88281225 0 3166.72918743 0 308.24909402 0 -130.67889921 0 22519
0.14450000 0.14449900 10854.33288762 0 78.78280206 0 2808.15194818 0 60.00225687 0 -162.20623690 0 22218
0.14550000 0.14550500 10770.07249575 0 111.46398672 0 2856.98090063 0 255.25473297 0 84.25906319 0 23559
0.14650000 0.14650700 10683.17689057 0 255.20933644 0 2577.24968641 0 4.22540952 0 99.62567847 0 23044
0.14750000 0.14750500 10571.31319293 0 133.12920469 0 3115.23180470 0 187.98039461 0 127.17229394 0 23649
0.14850000 0.14849900 10507.53660197 0 98.90752748 0 2718.75399759 0 32.12878637 0 657.58204928 0 23640
0.14950000 0.14949500 10247.12659456 0 322.35523584 0 3186.17218981 0 7.85016757 0 577.07074660 0 24457
0.15050000 0.15050000 10315.57570659 0 143.97454685 0 3052.70638645 0 -290.90540443 0 739.85274438 0 24591
0.15150000 0.15149900 9969.90879808 0 93.54608636 0 3156.23262350 0 303.37948557 0 779.79837063 0 25020
0.15250000 0.15250500 10015.01744939 0 20.15307057 0 3036.25291177 0 302.94877213 0 945.42374143 0 25297
0.15350000 0.15350100 10049.06484821 0 -89.34004233 0 2841.97790050 0 439.52811323 0 776.55860839 0 25452
0.15450000 0.15450400 9886.93279589 0 121.88858053 0 2685.63667406 0 637.93974505 0 796.12229911 0 26061
0.15550000 0.15549900 9868.25378392 0 323.76806449 0 2407.00162000 0 166.41261309 0 929.78629709 0 26128
0.15650000 0.15649500 9627.30892354 0 168.70347710 0 2314.91309448 0 -21.38375948 0 732.80853133 0 26331
0.15750000 0.15749700 9387.58201889 0 157.51267841 0 2313.17473949 0 -219.80447060 0 814.33073727 0 27345
0.15850000 0.15849900 9332.95116824 0 147.24752607 0 2556.55551133 0 -89.33505978 0 771.22064059 0 26980
0.15950000 0.15949700 9334.42378744 0 140.84661509 0 2620.37639158 0 -424.09772137 0 550.45177050 0 27777
0.16050000 0.16050000 9203.69284830 0 139.04625507 0 2838.25759936 0 -226.36814475 0 700.38544257 0 28224
0.16150000 0.16150500 9212.15210446 0 160.79451548 0 2951.60498853 0 -67.63075650 0 655.98320558 0 28075
0.16250000 0.16249700 9138.10039608 0 34.35775608 0 2808.89379394 0 166.31517664 0 622.57357267 0 28590
0.16350000 0.16349900 9128.82178788 0 -103.43422604 0 2870.51128156 0 193.92180411 0 535.18635627 0 29163
0.16450000 0.16449100 9138.93082044 0 54.39279567 0 2921.80936244 0 541.30381573 0 438.84273633 0 28996
0.16550000 0.16550500 9126.18657457 0 81.44536401 0 2519.66252503 0 206.97386060 0 195.79524147 0 30777
0.16650000 0.16650700 8962.79227722 0 134.15007304 0 2472.82659105 0 236.70526721 0 509.32361996 0 29211
0.16750000 0.16749900 8910.94058010 0 155.12659241 0 2293.16704854 0 -57.60797735 0 683.39163843 0 30922
0.16850000 0.16850800 8788.60246318 0 170.57469999 0 2539.54842040 0 103.12707974 0 444.69113830 0 30867
0.16950000 0.16949900 8507.02217071 0 286.38678867 0 2637.27275925 0 -121.39254038 0 795.18004427 0 30852
0.17050000 0.17049200 8356.30568528 0 314.36987518 0 2578.50085912 0 -10.43470285 0 1099.70440822 0 31257
0.17150000 0.17149500 8259.98753168 0 44.92595795 0 2695.53533245 0 87.43383089 0 940.13670633 0 32608
0.17250000 0.17250900 8271.34773695 0 34.04651303 0 2849.98319135 0 155.33364488 0 775.43144572 0 32361
0.17350000 0.17350400 8238.91689755 0 17.91579662 0 2903.79468996 0 -46.97555600 0 826.94654417 0 32508
0.17450000 0.17449800 8109.60321600 0 191.63094010 0 2637.29490390 0 -60.14497914 0 812.35100560 0 32791
0.17550000 0.17549800 7970.54588860 0 260.16530903 0 2628.89100937 0 187.27619475 0 705.15097117 0 33633
0.17650000 0.17650100 7716.95643328 0 189.67446031 0 2414.63045180 0 276.34640452 0 492.89339716 0 33984
0.17750000 0.17750300 7633.49324880 0 87.68993376 0 2312.96436532 0 234.37122113 0 426.56574257 0 34069
0.17850000 0.17849800 7547.12911521 0 28.49230273 0 1959.53575710 0 93.06543674 0 463.95034009 0 34536
