### header ###
fiducial parameters:
Omega_m = 0.31
Omega_nu = 0
Omega_de = 0.69
Omega_k = 0
H_0 = 100
w_de = -1
zeff = 0
beta = 0
fgrowth = 0
b_1 = 2
gamma = 0.55
Lx = 3500 Ly = 3500 Lz = 3500
nx = 700 ny = 700 nz = 700
xoffset = -685.467585 yoffset = -31.7331281 zoffset = 572.489161
bins = 400 dk = 0.001
kx_ny = 0.628318531 ky_ny = 0.628318531 kz_ny = 0.628318531
############################
A(data) = 8.04746873 (not used)
A(ran) = 8.04276853 (used)
Ngal = 478405
weighted Ngal = 0
Nran = 23820508
weighted Nran = 0
SN(data) = 3492.5761
SN(ran) = 70.0554307
SN(data+ran) = 3562.63153
############################
13 columns: k_central k_mean P_0(k) sigma^{lin}_{P_0(k)} P^img_1(k) sigma^{lin}_{P_1(k)} P_2(k) sigma^{lin}_{P_2(k)} P^img_3(k) sigma^{lin}_{P_3(k)} P_4(k) sigma^{lin}_{P_4(k)} N_modes
### header ###
0.00050000 0 0 0 0 0 0 0 0 0 0 0 0
0.00150000 0.00179520 4493.75838927 0 -1380.35351817 0 15440.57840610 0 1470.50438684 0 -2400.15892326 0 3
0.00250000 0.00253879 14988.38466051 0 -6928.64012317 0 9617.34383120 0 -15188.90446297 0 -9205.71908374 0 6
0.00350000 0.00331552 17347.56490961 0 -6256.06282438 0 -8851.92508881 0 7910.26815229 0 -16833.91976128 0 7
0.00450000 0.00420575 24879.84603724 0 -7231.84466600 0 -9060.92629209 0 -13267.19176745 0 -23218.99731445 0 24
0.00550000 0.00557378 30508.90525179 0 -3806.99744240 0 -1541.55549520 0 -18079.11341038 0 -16954.16520881 0 45
0.00650000 0.00659388 51955.44480927 0 -7730.48681421 0 6043.29703067 0 -32593.60256865 0 -4363.40390918 0 40
0.00750000 0.00754703 50674.04465801 0 -19968.16274769 0 -1415.41957087 0 -18789.84594049 0 -51069.76954703 0 57
0.00850000 0.00846663 71889.50479652 0 -18914.52031795 0 9778.02540897 0 -2405.41827755 0 -17973.81560136 0 75
0.00950000 0.00948925 79710.66287867 0 -9825.28209130 0 -1954.05495632 0 -9655.54335183 0 -35261.14706396 0 112
0.01050000 0.01054430 91431.82593169 0 -1956.69016963 0 4528.01616226 0 9932.49541252 0 -12256.73140450 0 105
0.01150000 0.01145670 80232.50154737 0 1549.95938974 0 2645.18947150 0 -1129.15568501 0 -16588.77848979 0 144
0.01250000 0.01249090 82402.45576533 0 12653.23135625 0 -2479.14888852 0 4744.55761874 0 9632.47969923 0 169
0.01350000 0.01339930 76205.71845733 0 1728.64456766 0 -4304.88667252 0 -2558.79212094 0 9807.92068598 0 180
0.01450000 0.01448870 74792.88981047 0 3391.29807940 0 917.25574709 0 -7786.75636894 0 -3707.40188065 0 267
0.01550000 0.01550050 73431.54747401 0 1699.87866778 0 31376.20045484 0 -12867.81301124 0 13340.49055775 0 238
0.01650000 0.01653350 73471.85073635 0 7743.10926450 0 30271.73605418 0 -19314.45269040 0 4012.18976593 0 315
0.01750000 0.01747870 66930.65340324 0 8023.93663888 0 51037.21691206 0 -27365.14006604 0 7764.01381376 0 297
0.01850000 0.01844180 71138.35828082 0 -1847.93779526 0 59882.67576318 0 3948.93357425 0 -5346.44919588 0 388
0.01950000 0.01947590 72710.29623533 0 2589.93857065 0 65014.14470038 0 3926.13565744 0 9681.41937493 0 399
0.02050000 0.02045430 67432.22971753 0 5824.17572251 0 63913.00199717 0 11803.09825668 0 323.54661799 0 462
0.02150000 0.02154770 67955.83995820 0 -1425.78326690 0 57851.78994495 0 20104.90595920 0 14291.49253642 0 571
0.02250000 0.02255340 72427.28761296 0 -696.65406910 0 64114.96120186 0 27428.80593374 0 13708.53463472 0 510
0.02350000 0.02348930 69047.57118532 0 -607.22733047 0 49566.92289939 0 14505.40985192 0 17539.78046847 0 555
0.02450000 0.02439640 67414.51399782 0 437.96802267 0 41813.19527539 0 16230.14588892 0 20986.59518451 0 592
0.02550000 0.02547300 68463.83822088 0 1791.20320289 0 37289.04335449 0 7561.03595518 0 19432.70511946 0 837
0.02650000 0.02652900 66046.74971297 0 1967.87321769 0 33765.60815070 0 686.90045817 0 18243.98032693 0 723
0.02750000 0.02749970 63048.25342883 0 3402.51434445 0 28425.31516742 0 7654.18742388 0 12039.16022181 0 826
0.02850000 0.02848090 59479.31097004 0 1991.56799281 0 28033.46559209 0 694.55475632 0 10478.46067700 0 831
0.02950000 0.02946900 62539.14793367 0 -1980.18564289 0 20648.77855429 0 7679.93057909 0 -27.77381958 0 996
0.03050000 0.03053250 59048.26536485 0 -479.68079196 0 13960.65147084 0 5062.95339122 0 -6139.93628168 0 1041
0.03150000 0.03150510 58506.27506498 0 1948.64058948 0 13103.54280663 0 -226.91733207 0 -5973.17599759 0 1036
0.03250000 0.03246190 60961.45237026 0 1870.55855486 0 12202.69845938 0 -475.05034572 0 -11401.06214251 0 1059
0.03350000 0.03345080 56246.08139975 0 701.00659999 0 14119.42860874 0 -3740.00987724 0 -4144.09437150 0 1302
0.03450000 0.03451200 54749.65670051 0 3437.04892555 0 19444.55250702 0 -936.51273442 0 -9620.52158843 0 1339
0.03550000 0.03553350 54572.27805691 0 3414.57210617 0 21778.70930204 0 -3195.11862827 0 -3534.81755370 0 1365
0.03650000 0.03647120 51123.80249214 0 2944.60727925 0 21704.52472575 0 410.03254715 0 -1234.90745935 0 1308
0.03750000 0.03744890 48871.91307053 0 2616.87753694 0 22387.79789031 0 -257.23557188 0 1394.03891164 0 1579
0.03850000 0.03847530 47240.18456200 0 -64.64133952 0 25043.16282832 0 4684.55669055 0 -2032.19235256 0 1662
0.03950000 0.03950240 46015.80688356 0 2164.03052418 0 22670.36361968 0 6638.39020037 0 1823.29080021 0 1683
0.04050000 0.04050350 44473.98565256 0 1732.40915810 0 19533.46327531 0 5806.74788324 0 5965.09320047 0 1822
0.04150000 0.04152450 43357.45241785 0 -318.51867529 0 14415.72402088 0 6656.29414960 0 5349.30585568 0 1887
0.04250000 0.04250150 43838.32348472 0 277.16797102 0 17304.93645906 0 2284.78529865 0 7199.90100890 0 1920
0.04350000 0.04349210 44288.74565834 0 967.42002191 0 13356.21325899 0 3160.89407225 0 8411.63409240 0 2005
0.04450000 0.04448520 43037.68367709 0 1616.47084492 0 16240.44315100 0 -518.11615310 0 14909.21753805 0 2151
0.04550000 0.04548030 41259.68975771 0 1672.41930223 0 14892.71977407 0 1744.55549843 0 9264.98923850 0 2274
0.04650000 0.04648670 42008.51108519 0 -356.66061983 0 17120.36080434 0 3480.44136652 0 12303.34589198 0 2311
0.04750000 0.04749250 39711.66802481 0 665.10015783 0 12872.13121792 0 878.32102410 0 7479.06753455 0 2568
0.04850000 0.04851840 39714.87899901 0 815.06593964 0 14980.08041689 0 988.56705509 0 8249.93386075 0 2493
0.04950000 0.04949480 38863.41722046 0 1655.21290946 0 13968.29137496 0 -892.67518599 0 6452.44157737 0 2644
0.05050000 0.05050630 38094.88715479 0 1969.36798154 0 15060.35477183 0 -731.16539833 0 3111.68866076 0 2829
0.05150000 0.05149060 36319.88276312 0 149.90820572 0 12493.90060211 0 -1071.45780038 0 5617.06788677 0 2784
0.05250000 0.05249300 36444.22497083 0 84.50254361 0 12163.28098303 0 2546.49076807 0 2479.50320291 0 3055
0.05350000 0.05348950 36263.30318329 0 -1540.19359925 0 12198.38025270 0 3535.59261644 0 1151.58821509 0 3009
0.05450000 0.05448610 37409.73169502 0 436.05251047 0 12145.78670981 0 1888.11926202 0 -3195.45079801 0 3336
0.05550000 0.05550870 37478.15866239 0 1254.68263147 0 11318.24115287 0 -186.84548131 0 -2410.84371671 0 3349
0.05650000 0.05647670 34210.38343867 0 2827.41779336 0 9064.32549581 0 -4272.55548404 0 -2660.08174838 0 3324
0.05750000 0.05747970 33354.60345343 0 1721.25932701 0 10741.80485048 0 -1755.88248672 0 -2385.98634749 0 3639
0.05850000 0.05849280 32318.45529691 0 360.60347469 0 12303.01372224 0 -462.03814959 0 -3369.99492645 0 3846
0.05950000 0.05951020 32703.88292384 0 -360.02549934 0 12767.27630188 0 -602.49280438 0 -7168.45560641 0 3787
0.06050000 0.06049470 32386.77154104 0 -158.25673863 0 11309.71546276 0 1262.89829649 0 -5823.13492397 0 3930
0.06150000 0.06148310 32294.87124504 0 572.18231519 0 11793.13316434 0 866.08167624 0 -6198.88533902 0 4083
0.06250000 0.06249100 31874.01217869 0 -307.89256516 0 10186.52776083 0 1651.74727180 0 -3265.57183109 0 4303
0.06350000 0.06350600 32395.74012414 0 121.24195676 0 10442.26524717 0 2283.94380197 0 -6977.79017304 0 4470
0.06450000 0.06451750 31363.02438830 0 962.12745065 0 11492.40882227 0 -376.71702900 0 -3803.79754052 0 4479
0.06550000 0.06550280 31233.81035767 0 604.38949362 0 11395.08308711 0 -102.13666029 0 -1826.44641278 0 4636
0.06650000 0.06648880 30598.92325257 0 551.47485331 0 12129.62111558 0 1089.55662252 0 2706.31977682 0 4653
0.06750000 0.06749660 30643.98761458 0 777.72895312 0 14014.68441595 0 1015.37979687 0 4139.82045412 0 5220
0.06850000 0.06852730 29807.03058154 0 1041.78729156 0 13105.31437860 0 3477.04216280 0 6442.39897875 0 5029
0.06950000 0.06949320 29560.89280082 0 397.32262549 0 12718.33662619 0 3430.20622882 0 8019.82880637 0 5040
0.07050000 0.07048030 29222.74400086 0 282.10954959 0 12984.73676132 0 1375.92458824 0 7728.57130201 0 5475
0.07150000 0.07148790 29266.25823740 0 518.30991878 0 12325.49054162 0 265.39255358 0 7396.68943790 0 5509
0.07250000 0.07249820 27945.55133303 0 482.02037419 0 11810.51671431 0 -182.54277589 0 7804.42779935 0 5916
0.07350000 0.07351270 28466.06132275 0 297.29413585 0 11355.22271776 0 -550.96109744 0 5305.18264128 0 5721
0.07450000 0.07449140 28339.06175708 0 -195.01242810 0 12060.30836221 0 147.65388039 0 3807.81679443 0 6028
0.07550000 0.07549160 27783.12032794 0 532.08278363 0 10451.63243396 0 -351.26839764 0 2247.19475589 0 6183
0.07650000 0.07648840 27581.05040000 0 755.49572489 0 11308.05461404 0 136.25492199 0 3623.96084082 0 6330
0.07750000 0.07749960 26857.25252660 0 562.42427533 0 10360.58470698 0 1730.39399498 0 2399.43922215 0 6583
0.07850000 0.07848650 26331.87071396 0 171.48927402 0 10309.65201281 0 2875.49382773 0 4152.68649556 0 6549
0.07950000 0.07947320 26030.03913940 0 450.15090166 0 8899.17069882 0 1829.67953163 0 2239.48841782 0 6828
0.08050000 0.08048110 25711.37763112 0 673.17852602 0 8788.73533107 0 725.34024824 0 2565.52409443 0 7147
0.08150000 0.08149960 24675.34019784 0 872.36964951 0 7744.08362908 0 202.03892543 0 2906.83957929 0 7386
0.08250000 0.08250610 23993.94932850 0 974.88166161 0 7594.71796728 0 -1100.03214904 0 2010.33558337 0 7227
0.08350000 0.08350160 23236.71303416 0 571.55894330 0 7914.06595970 0 -727.63221948 0 1266.37500648 0 7798
0.08450000 0.08449610 22040.01616776 0 338.97811709 0 7393.15736628 0 368.24116435 0 -0.40893860 0 7371
0.08550000 0.08548940 22120.40124594 0 644.58313994 0 7341.43853705 0 -255.52379047 0 -1372.59181847 0 8256
0.08650000 0.08650700 21149.02618960 0 820.20682006 0 7853.46712597 0 107.56054933 0 -2028.35025585 0 8037
0.08750000 0.08749060 20713.21948474 0 975.92578184 0 7099.44180582 0 -354.44394040 0 -1512.53493185 0 8155
0.08850000 0.08849210 19702.31622880 0 598.02069239 0 7360.59365899 0 341.84917092 0 53.98688424 0 8718
0.08950000 0.08949900 19791.78061333 0 -98.00358288 0 7148.59185569 0 637.30308638 0 -815.92958098 0 8571
0.09050000 0.09049190 19809.27488654 0 -76.84348437 0 6768.03605167 0 1631.58456830 0 -567.79324563 0 8932
0.09150000 0.09150830 19921.76970670 0 202.43974359 0 7325.10685795 0 457.44645649 0 292.95267728 0 9285
0.09250000 0.09250820 19152.46457830 0 780.39406171 0 6002.32942884 0 661.69763242 0 686.16304134 0 9204
0.09350000 0.09350330 18983.27945507 0 588.97128131 0 6676.88867376 0 48.22141399 0 761.48142368 0 9349
0.09450000 0.09448040 18170.23864364 0 551.50585582 0 6295.24778192 0 289.63540877 0 1288.45322217 0 9564
0.09550000 0.09549270 18028.51288596 0 205.48463291 0 7205.55896688 0 -211.52126441 0 926.00066923 0 10155
0.09650000 0.09649430 17708.63342195 0 284.58642865 0 6381.40154133 0 732.24495000 0 2208.34196810 0 9913
0.09750000 0.09749140 17973.70487811 0 -304.59633406 0 6998.22968465 0 1102.09160145 0 1258.29220937 0 10476
0.09850000 0.09850240 17795.55117178 0 -198.74380156 0 6665.82742127 0 1081.00768053 0 2665.25252407 0 10575
0.09950000 0.09950330 18182.41820094 0 142.47313960 0 5655.51099854 0 618.49009928 0 876.66238984 0 10882
0.10050000 0.10051200 17936.50186672 0 270.13483030 0 5456.49703225 0 72.90372975 0 2439.85320774 0 10875
0.10150000 0.10150300 17417.20983272 0 771.87280052 0 5797.19246692 0 -1201.59083397 0 1902.23647617 0 11118
0.10250000 0.10250800 17160.44262018 0 572.18452965 0 5744.95323843 0 -423.71240446 0 1675.19845576 0 11575
0.10350000 0.10349800 16867.35818223 0 136.03568995 0 6051.85593775 0 -238.78575704 0 1704.57333351 0 11364
0.10450000 0.10450100 16567.96251913 0 87.43781692 0 5534.71193477 0 403.17434916 0 980.26945487 0 12093
0.10550000 0.10551000 16524.11611285 0 121.25635079 0 6332.92690327 0 949.86927984 0 169.03786131 0 12067
0.10650000 0.10649700 16259.59827293 0 333.16846826 0 4777.25419393 0 1186.78713569 0 849.97033640 0 12054
0.10750000 0.10749900 15872.06690428 0 432.97108248 0 5346.58206378 0 687.86153596 0 1732.76347249 0 12807
0.10850000 0.10850100 15614.41390575 0 190.16607153 0 4438.59606703 0 212.14906522 0 1591.21487201 0 12736
0.10950000 0.10950300 15389.64571193 0 230.74060583 0 5286.66971418 0 644.71157891 0 2089.34769328 0 12933
0.11050000 0.11050200 15147.71541465 0 447.02075544 0 4931.36988308 0 -197.80486842 0 1758.78343582 0 13428
0.11150000 0.11150900 14669.83387547 0 238.87101394 0 4657.10839732 0 774.30206859 0 2475.09641764 0 13453
0.11250000 0.11250000 14762.73068070 0 62.88006481 0 4720.88498828 0 -142.84406249 0 2091.96076194 0 13668
0.11350000 0.11349100 14561.87870849 0 6.28179491 0 4747.96789478 0 240.86403241 0 690.92746271 0 13791
0.11450000 0.11448600 14613.14357240 0 -69.13969293 0 4931.28130448 0 -123.55496542 0 926.14903839 0 14205
0.11550000 0.11549300 14445.06568165 0 515.39457566 0 4334.74873255 0 -373.69649879 0 775.76140100 0 14776
0.11650000 0.11649800 14485.92256023 0 63.67073953 0 4320.86403723 0 326.26598097 0 914.19092758 0 14553
0.11750000 0.11747300 14246.09600466 0 -43.13888473 0 4257.48604997 0 363.43466815 0 943.16055824 0 14568
0.11850000 0.11849100 14311.97633733 0 170.01554759 0 4345.98714224 0 522.64251948 0 807.53343707 0 16015
0.11950000 0.11950300 14231.59125915 0 178.90219549 0 4125.85825252 0 449.17985878 0 1516.48775181 0 15270
0.12050000 0.12050700 13941.82851865 0 304.45682277 0 4373.49079709 0 90.32237898 0 754.86570960 0 15999
0.12150000 0.12150000 13788.91971290 0 426.30111401 0 4807.28233884 0 -794.62310633 0 1184.79411722 0 15670
0.12250000 0.12250700 13468.70807915 0 540.51657344 0 5114.40648466 0 -660.25380126 0 1028.98325514 0 16887
0.12350000 0.12352200 13152.15031258 0 381.09281177 0 5444.09602846 0 -607.56946531 0 1488.04294935 0 16407
0.12450000 0.12449800 12833.59952755 0 85.35677347 0 5230.58838898 0 485.06083459 0 1484.31157589 0 16306
0.12550000 0.12549900 12913.43098949 0 68.35012544 0 5384.40512536 0 558.58328585 0 1043.53893335 0 17523
0.12650000 0.12650100 13092.47048181 0 -233.75117094 0 5106.88837610 0 610.44826976 0 711.47769757 0 17154
0.12750000 0.12750600 12901.25143219 0 70.36097036 0 4680.98032963 0 493.68063946 0 1180.39840427 0 18007
0.12850000 0.12850300 12905.45891562 0 272.69032287 0 4499.69315537 0 371.51746527 0 1475.08832931 0 17496
0.12950000 0.12949900 12479.61730310 0 153.44581350 0 4423.44912667 0 579.03940595 0 946.70591664 0 18405
0.13050000 0.13049000 12588.23680957 0 69.47097689 0 3976.43722909 0 574.29602200 0 990.22458211 0 18100
0.13150000 0.13148800 12212.10993548 0 102.59284007 0 3899.76137973 0 226.44232933 0 649.84692316 0 19059
0.13250000 0.13249300 12344.42421706 0 49.18348829 0 3658.31826473 0 64.17209440 0 734.32765430 0 18957
0.13350000 0.13349100 12151.32287222 0 175.85287723 0 3480.52994512 0 133.86440706 0 1080.53821396 0 19468
0.13450000 0.13450700 12153.75878368 0 105.97687471 0 3495.49972827 0 168.44106300 0 793.08737488 0 19953
0.13550000 0.13551000 12136.70740346 0 20.56274659 0 3387.32311479 0 101.96780734 0 811.26813223 0 19956
0.13650000 0.13649900 12090.42508572 0 128.62276849 0 3538.65965042 0 -0.06037949 0 496.14644619 0 19723
0.13750000 0.13749600 11972.50482640 0 252.25302572 0 3578.08819909 0 -198.09496333 0 668.04207454 0 20946
0.13850000 0.13851100 11777.52118635 0 278.33499406 0 3398.90476655 0 -188.45650458 0 494.42580692 0 20955
0.13950000 0.13949800 11527.50809194 0 41.95957141 0 3355.89985696 0 281.34666641 0 829.04917866 0 20506
0.14050000 0.14048300 11679.53111170 0 -35.46022746 0 3364.23731755 0 532.83348725 0 279.32928883 0 21447
0.14150000 0.14148400 11415.45616478 0 292.96374961 0 3373.70415527 0 442.96164116 0 917.12952259 0 21771
0.14250000 0.14249400 11307.16882805 0 383.27848869 0 3048.43246907 0 134.29512049 0 739.25151714 0 22470
0.14350000 0.14350900 11012.94394064 0 76.07882961 0 3174.53517643 0 149.05120778 0 1542.83988488 0 22519
0.14450000 0.14449900 10898.81041641 0 200.07358778 0 3192.26196846 0 65.33967105 0 1391.18225184 0 22218
0.14550000 0.14550500 10812.12518541 0 196.29681778 0 3229.23246103 0 275.44843898 0 1457.71585167 0 23559
0.14650000 0.14650700 10566.60745488 0 183.70537000 0 3138.56119309 0 245.47787016 0 1607.85657621 0 23044
0.14750000 0.14750500 10375.80915360 0 142.33030661 0 2601.08840175 0 455.49772732 0 1260.22986621 0 23649
0.14850000 0.14849900 10215.06114189 0 19.58926779 0 2467.35686259 0 301.70535005 0 1112.73542730 0 23640
0.14950000 0.14949500 10201.61933956 0 133.51230713 0 2437.31764535 0 192.21555885 0 546.45244677 0 24457
0.15050000 0.15050000 10037.32818390 0 215.81511197 0 2317.03898085 0 -664.53214757 0 760.20699910 0 24591
0.15150000 0.15149900 9968.85692722 0 271.78128500 0 2773.26305268 0 -389.27747428 0 446.97425167 0 25020
0.15250000 0.15250500 9766.65413138 0 106.22566985 0 2955.18134945 0 -655.30668653 0 703.29967846 0 25297
0.15350000 0.15350100 9856.78285541 0 23.57386532 0 3355.11372190 0 -169.38996124 0 451.17841341 0 25452
0.15450000 0.15450400 9806.16018633 0 135.88399910 0 3523.44627611 0 -1.21347144 0 357.41575238 0 26061
0.15550000 0.15549900 9844.35970696 0 107.23535515 0 3279.71118988 0 193.07144956 0 286.83632505 0 26128
0.15650000 0.15649500 9415.60607301 0 170.22813623 0 3209.16940846 0 235.01341597 0 154.15112059 0 26331
0.15750000 0.15749700 9454.61387334 0 159.99066470 0 3007.68631374 0 399.31564396 0 70.89100254 0 27345
0.15850000 0.15849900 9194.14850431 0 231.49352391 0 2754.01935214 0 523.37440016 0 -207.09676341 0 26980
0.15950000 0.15949700 8911.61599191 0 211.50244145 0 2167.61795742 0 115.18428786 0 -119.30872885 0 27777
0.16050000 0.16050000 8828.16387975 0 218.70941768 0 2340.95520246 0 -16.09517425 0 -166.68942121 0 28224
0.16150000 0.16150500 8738.17909595 0 26.47835757 0 2387.32609880 0 -83.70345393 0 -123.11982305 0 28075
0.16250000 0.16249700 8585.28136253 0 145.75054775 0 2560.87371801 0 -72.79433518 0 -64.84241294 0 28590
0.16350000 0.16349900 8641.18553054 0 124.08975871 0 2488.71537716 0 155.05351506 0 33.18320387 0 29163
0.16450000 0.16449100 8470.10703977 0 67.82906184 0 2499.61054478 0 298.73132361 0 395.85443522 0 28996
0.16550000 0.16550500 8555.97291874 0 -12.25263464 0 2418.28431899 0 423.67365133 0 263.48257755 0 30777
0.16650000 0.16650700 8437.41046458 0 8.56404464 0 2358.95880261 0 364.16322712 0 330.19554904 0 29211
0.16750000 0.16749900 8390.58560292 0 31.27876400 0 2091.21891617 0 196.00672287 0 220.92720434 0 30922
0.16850000 0.16850800 8353.69261662 0 96.22547824 0 1995.63153601 0 187.09239416 0 421.97072777 0 30867
0.16950000 0.16949900 8343.70537964 0 77.28383072 0 1790.20669365 0 -8.59806990 0 392.54381010 0 30852
0.17050000 0.17049200 8237.90931600 0 83.78992879 0 1950.35679983 0 -19.19110699 0 478.06866146 0 31257
0.17150000 0.17149500 8217.43658741 0 142.38345377 0 1921.97843132 0 -254.04895680 0 205.30858295 0 32608
0.17250000 0.17250900 8177.43227784 0 115.49763465 0 2067.90060010 0 -201.60378307 0 101.66830095 0 32361
0.17350000 0.17350400 8098.67483140 0 83.35190762 0 2026.96621525 0 -30.58596863 0 149.83402114 0 32508
0.17450000 0.17449800 8090.81348078 0 156.10206422 0 2017.20042476 0 20.86590684 0 34.20927621 0 32791
0.17550000 0.17549800 8001.38231322 0 0.46668631 0 2059.55206719 0 -28.43826979 0 -29.44994811 0 33633
0.17650000 0.17650100 7936.21060934 0 103.05787771 0 1967.16458890 0 141.02266505 0 -347.58020624 0 33984
0.17750000 0.17750300 7893.13926579 0 141.01380719 0 2055.37780073 0 -100.84784168 0 -170.80057542 0 34069
0.17850000 0.17849800 7695.16609804 0 99.12864181 0 1890.44445024 0 -138.72626489 0 -508.67256726 0 34536
