### header ###
fiducial parameters:
Omega_m = 0.31
Omega_nu = 0
Omega_de = 0.69
Omega_k = 0
H_0 = 100
w_de = -1
zeff = 0
beta = 0
fgrowth = 0
b_1 = 2
gamma = 0.55
Lx = 3500 Ly = 3500 Lz = 3500
nx = 700 ny = 700 nz = 700
xoffset = -685.467585 yoffset = -31.7331281 zoffset = 572.489161
bins = 400 dk = 0.001
kx_ny = 0.628318531 ky_ny = 0.628318531 kz_ny = 0.628318531
############################
A(data) = 7.98681381 (not used)
A(ran) = 7.98165559 (used)
Ngal = 474838
weighted Ngal = 0
Nran = 23820508
weighted Nran = 0
SN(data) = 3490.25173
SN(ran) = 69.5231149
SN(data+ran) = 3559.77484
############################
13 columns: k_central k_mean P_0(k) sigma^{lin}_{P_0(k)} P^img_1(k) sigma^{lin}_{P_1(k)} P_2(k) sigma^{lin}_{P_2(k)} P^img_3(k) sigma^{lin}_{P_3(k)} P_4(k) sigma^{lin}_{P_4(k)} N_modes
### header ###
0.00050000 0 0 0 0 0 0 0 0 0 0 0 0
0.00150000 0.00179520 23972.69046485 0 2351.31889849 0 60039.23843612 0 3155.56828401 0 -47660.93290511 0 3
0.00250000 0.00253879 60107.22251050 0 -14609.37898196 0 27866.82710357 0 -6507.38245312 0 -819.90233112 0 6
0.00350000 0.00331552 58625.08111028 0 -13121.36924959 0 -16399.33101215 0 44118.12113289 0 70178.05554930 0 7
0.00450000 0.00420575 71421.69907293 0 -9249.37726050 0 -7413.79617974 0 8428.17614568 0 6658.14322785 0 24
0.00550000 0.00557378 90614.46691358 0 -9654.01537100 0 34996.18633105 0 26826.69291011 0 -14671.38400095 0 45
0.00650000 0.00659388 110213.81052156 0 2050.69420734 0 36639.98367362 0 -1380.29815654 0 -16077.12635992 0 40
0.00750000 0.00754703 87954.89449214 0 20775.55667347 0 39272.98251550 0 13043.97369910 0 5381.42666998 0 57
0.00850000 0.00846663 78928.40313023 0 27331.48019859 0 60446.81071269 0 12058.53679024 0 15096.89344373 0 75
0.00950000 0.00948925 62517.00328403 0 4450.64275643 0 52322.60310026 0 32521.85390382 0 6273.00348135 0 112
0.01050000 0.01054430 70309.92693789 0 1800.44859411 0 59961.95360888 0 28613.43396609 0 12114.56275383 0 105
0.01150000 0.01145670 66362.97530979 0 -2589.65069021 0 42350.20302910 0 39856.16186370 0 -18407.85073425 0 144
0.01250000 0.01249090 65726.20590947 0 79.85714974 0 42379.43396662 0 13066.22907199 0 4110.61166125 0 169
0.01350000 0.01339930 62939.30175262 0 1452.44542506 0 27614.71026745 0 2176.12150288 0 5509.13486444 0 180
0.01450000 0.01448870 66572.90658835 0 2497.82790049 0 25782.90484945 0 15704.65335302 0 -1956.65695265 0 267
0.01550000 0.01550050 68127.01809990 0 -5306.48917561 0 18145.76880579 0 23141.38031747 0 -421.93861803 0 238
0.01650000 0.01653350 70099.33131984 0 -4172.48381233 0 9671.22176377 0 15645.30569200 0 5819.08245309 0 315
0.01750000 0.01747870 70883.03047051 0 -4316.08079291 0 12289.83765570 0 8458.45895406 0 1123.24306355 0 297
0.01850000 0.01844180 74419.53101758 0 384.82639970 0 11108.75276730 0 12505.19437343 0 13351.45215932 0 388
0.01950000 0.01947590 70832.31922284 0 9922.86248992 0 4175.90516070 0 9546.68025421 0 16165.37278873 0 399
0.02050000 0.02045430 58836.78396081 0 8445.52647867 0 10225.28089770 0 -1681.64254881 0 20679.11672430 0 462
0.02150000 0.02154770 56085.97558287 0 3511.57674391 0 14376.30654453 0 1150.60277818 0 24084.74239202 0 571
0.02250000 0.02255340 56623.75839931 0 2008.06575678 0 20180.52993771 0 -2983.16111426 0 20546.47027297 0 510
0.02350000 0.02348930 54546.25809359 0 -1222.84969762 0 15862.43398169 0 -8220.78042950 0 15764.33318380 0 555
0.02450000 0.02439640 58954.70422013 0 -2639.86368326 0 19714.16361635 0 -5550.70037181 0 21902.38717026 0 592
0.02550000 0.02547300 60590.30804234 0 176.82945628 0 28319.90663515 0 -4223.94797809 0 8751.95306803 0 837
0.02650000 0.02652900 59229.18715238 0 2064.44603476 0 27388.17050166 0 -1054.78398643 0 10658.03164091 0 723
0.02750000 0.02749970 62164.12829206 0 1908.07159135 0 28131.45566673 0 5302.74672982 0 5066.99478978 0 826
0.02850000 0.02848090 59473.33191464 0 -2909.60766049 0 19153.23964104 0 10116.37351078 0 4850.98480490 0 831
0.02950000 0.02946900 60726.82980735 0 99.72455433 0 26148.62373821 0 9903.22018570 0 -3597.85229890 0 996
0.03050000 0.03053250 60566.39182073 0 980.31374417 0 16392.46617076 0 2197.33607723 0 -2061.84403843 0 1041
0.03150000 0.03150510 58868.22936330 0 4852.57921967 0 19072.30094661 0 1988.83312857 0 -939.58751902 0 1036
0.03250000 0.03246190 53226.43697520 0 5091.79679738 0 18752.31075936 0 -4152.03322839 0 -4903.86622823 0 1059
0.03350000 0.03345080 50051.11566371 0 3833.55994964 0 19299.72649839 0 1972.76718526 0 3384.34465942 0 1302
0.03450000 0.03451200 50197.49179781 0 155.85958031 0 20348.38638196 0 1999.81687479 0 1999.04181206 0 1339
0.03550000 0.03553350 50343.75720867 0 -1808.03313661 0 20863.91382552 0 -56.15462400 0 2482.90240663 0 1365
0.03650000 0.03647120 51738.09507308 0 568.93037339 0 23049.25857498 0 -421.85225389 0 3786.91224517 0 1308
0.03750000 0.03744890 51429.95227338 0 3808.73579739 0 27043.93192305 0 -1231.64112353 0 6701.48030719 0 1579
0.03850000 0.03847530 48854.19735082 0 1508.26101447 0 23413.87023125 0 1447.57360214 0 7590.72085802 0 1662
0.03950000 0.03950240 47159.24586758 0 302.87237309 0 25410.21039606 0 4903.00258689 0 6429.59937126 0 1683
0.04050000 0.04050350 46821.42923736 0 709.99068435 0 20520.67175614 0 5687.01176265 0 4732.77666513 0 1822
0.04150000 0.04152450 45970.63179830 0 727.26683276 0 16699.61246123 0 7990.73073674 0 -2074.96474334 0 1887
0.04250000 0.04250150 45206.53066256 0 246.96156169 0 16134.81317223 0 2262.81780621 0 2222.61419480 0 1920
0.04350000 0.04349210 43022.51459208 0 1216.99243779 0 11984.46293721 0 3767.86784649 0 939.76246175 0 2005
0.04450000 0.04448520 43486.55572523 0 473.05843448 0 12165.71689449 0 2941.87241502 0 803.58061711 0 2151
0.04550000 0.04548030 40906.81476574 0 1039.49753479 0 9923.37181687 0 711.71796702 0 1159.38313176 0 2274
0.04650000 0.04648670 41005.35845662 0 1600.24988906 0 12842.01449441 0 -286.52740719 0 -403.56298776 0 2311
0.04750000 0.04749250 39264.78899513 0 888.44998684 0 13190.34983321 0 -1902.98939426 0 -1138.30142531 0 2568
0.04850000 0.04851840 38730.10642964 0 1630.87593951 0 12417.94445386 0 -1165.51719971 0 3453.49132791 0 2493
0.04950000 0.04949480 37956.59381781 0 1740.52517219 0 13408.80680188 0 608.71102200 0 3808.59185717 0 2644
0.05050000 0.05050630 38504.45244984 0 -1912.88805264 0 12415.06564940 0 465.89131863 0 349.88324980 0 2829
0.05150000 0.05149060 38102.96995191 0 654.54601782 0 11827.12520153 0 -281.65226257 0 -2853.36025041 0 2784
0.05250000 0.05249300 37968.88409836 0 1566.59002162 0 13449.44223396 0 -525.81584778 0 -1278.68743168 0 3055
0.05350000 0.05348950 36872.17032507 0 -363.64614955 0 11149.49892263 0 -1021.10640326 0 -837.22941223 0 3009
0.05450000 0.05448610 38275.80894233 0 305.67034957 0 12936.01853212 0 778.80518309 0 -2581.68968866 0 3336
0.05550000 0.05550870 38149.47371615 0 -1132.52167175 0 13056.92831914 0 400.22246736 0 -2159.00368871 0 3349
0.05650000 0.05647670 37053.86717534 0 1524.82521240 0 13911.26890215 0 80.27501927 0 -1481.12274634 0 3324
0.05750000 0.05747970 36297.07377399 0 2878.56086170 0 15726.46583292 0 1380.74104953 0 329.18021686 0 3639
0.05850000 0.05849280 33656.54575124 0 1926.61773542 0 13140.41364827 0 3589.09408996 0 1961.77236672 0 3846
0.05950000 0.05951020 32573.45093748 0 1047.41313980 0 12325.15837188 0 1971.29456606 0 2064.46817941 0 3787
0.06050000 0.06049470 32759.57671768 0 323.30967024 0 12635.51563654 0 1907.21902234 0 2882.24794587 0 3930
0.06150000 0.06148310 32074.97487414 0 -75.26279928 0 12546.16197526 0 419.27461668 0 2028.46097910 0 4083
0.06250000 0.06249100 31334.23634378 0 684.29624737 0 11608.66823286 0 -806.45277817 0 3437.31466135 0 4303
0.06350000 0.06350600 31349.84832177 0 100.51921508 0 11718.39497181 0 -1054.99768230 0 2845.19994702 0 4470
0.06450000 0.06451750 31149.99285879 0 -154.03375395 0 12620.23582829 0 1575.75790657 0 2082.43856259 0 4479
0.06550000 0.06550280 31482.93766609 0 -449.09349464 0 11871.41450081 0 255.44406973 0 -114.29075124 0 4636
0.06650000 0.06648880 31464.11471390 0 959.99824259 0 11054.05548270 0 621.23271413 0 -1323.06530955 0 4653
0.06750000 0.06749660 31014.57832626 0 1100.22037856 0 11887.02647880 0 785.29799437 0 485.35425119 0 5220
0.06850000 0.06852730 29103.16289282 0 1086.79297025 0 9846.52988262 0 1069.50464228 0 1735.90801274 0 5029
0.06950000 0.06949320 30162.23076172 0 200.66706439 0 9842.32239919 0 1112.39218523 0 2347.07819808 0 5040
0.07050000 0.07048030 29047.91199197 0 -460.47805902 0 8434.98562544 0 1119.37882219 0 421.09822857 0 5475
0.07150000 0.07148790 29296.48568415 0 523.34118318 0 8481.41188341 0 1102.93752707 0 625.22207277 0 5509
0.07250000 0.07249820 28955.90097273 0 812.38422257 0 7896.61597579 0 628.38875767 0 -567.18758946 0 5916
0.07350000 0.07351270 27768.39413593 0 699.06451422 0 6989.67077757 0 -1088.57893624 0 -375.07611046 0 5721
0.07450000 0.07449140 27816.33730240 0 183.01224246 0 7968.42000224 0 -446.93217684 0 -704.13121005 0 6028
0.07550000 0.07549160 27182.66815302 0 230.50808700 0 6926.31493495 0 -722.02408696 0 -1828.82696262 0 6183
0.07650000 0.07648840 27245.00534175 0 423.49317243 0 7529.65698665 0 463.20960156 0 -3460.77691764 0 6330
0.07750000 0.07749960 26235.09859505 0 693.37666096 0 7836.96936199 0 -1104.06358250 0 -2533.10432736 0 6583
0.07850000 0.07848650 26185.71602635 0 1286.78130112 0 8780.28714724 0 967.18196693 0 -3243.74827887 0 6549
0.07950000 0.07947320 24621.08580623 0 658.84650878 0 7911.28680617 0 277.00742231 0 -1691.39726697 0 6828
0.08050000 0.08048110 24125.70999384 0 402.14019402 0 7636.98103111 0 2248.05839723 0 -2193.72649934 0 7147
0.08150000 0.08149960 24214.28859239 0 310.85551928 0 7917.03334275 0 1399.85188217 0 -2231.95923694 0 7386
0.08250000 0.08250610 23000.42962253 0 701.01545785 0 6925.70595709 0 1194.93636675 0 -1097.68592341 0 7227
0.08350000 0.08350160 22740.56215903 0 885.17700763 0 6142.33897617 0 441.68278764 0 -385.32133262 0 7798
0.08450000 0.08449610 22428.54404564 0 -110.09367580 0 6737.47643517 0 379.59694069 0 -767.06741155 0 7371
0.08550000 0.08548940 21919.43855048 0 136.76203446 0 5034.25392529 0 593.69805678 0 -673.18959835 0 8256
0.08650000 0.08650700 21998.49494969 0 503.92032545 0 4970.52162364 0 452.63885305 0 -1331.92316941 0 8037
0.08750000 0.08749060 21318.76492907 0 558.02413344 0 4560.38056771 0 -226.82986070 0 -1116.31178822 0 8155
0.08850000 0.08849210 20846.64099880 0 1135.72157362 0 4786.64352537 0 141.95606203 0 -1161.77475392 0 8718
0.08950000 0.08949900 19703.86635427 0 579.56644861 0 4127.09835290 0 119.21793579 0 -863.22612367 0 8571
0.09050000 0.09049190 19584.50669273 0 120.90425086 0 4951.55473122 0 123.05560357 0 -456.37244098 0 8932
0.09150000 0.09150830 19543.53909090 0 116.04017856 0 5122.13496738 0 -22.44327024 0 -335.86015042 0 9285
0.09250000 0.09250820 19549.96103929 0 452.50377069 0 6447.50332050 0 587.08566439 0 220.77219179 0 9204
0.09350000 0.09350330 19173.72344195 0 107.33821704 0 5940.43513310 0 87.11926614 0 841.51440194 0 9349
0.09450000 0.09448040 18999.66649580 0 565.55442155 0 7212.13592782 0 -408.72933452 0 755.58651795 0 9564
0.09550000 0.09549270 18866.46642824 0 637.01520593 0 7589.32574509 0 -1050.98285732 0 933.71254347 0 10155
0.09650000 0.09649430 18041.13533625 0 492.64426985 0 7805.24715138 0 -802.32390824 0 903.09313642 0 9913
0.09750000 0.09749140 17840.83698028 0 473.85010571 0 7783.46788846 0 191.07843109 0 1443.32182941 0 10476
0.09850000 0.09850240 17687.92817454 0 108.38222655 0 8309.95693359 0 1121.02859859 0 1614.61069435 0 10575
0.09950000 0.09950330 17411.45222382 0 64.53249857 0 7432.14302197 0 1890.05691887 0 1589.47651702 0 10882
0.10050000 0.10051200 17409.23775885 0 41.84231549 0 6713.75951541 0 1572.86802979 0 770.10676472 0 10875
0.10150000 0.10150300 17001.11186604 0 283.89773005 0 6312.53168096 0 653.09775773 0 1627.13349372 0 11118
0.10250000 0.10250800 16966.56621260 0 280.55499518 0 5867.31350000 0 -162.32249631 0 2025.22786025 0 11575
0.10350000 0.10349800 16629.52464512 0 330.52107539 0 6288.34972355 0 223.49266200 0 2305.16944864 0 11364
0.10450000 0.10450100 16522.34454088 0 373.70978558 0 5559.65788259 0 -122.61713951 0 1503.36704690 0 12093
0.10550000 0.10551000 16188.84611734 0 144.98545011 0 5213.78059990 0 642.04757756 0 318.09460525 0 12067
0.10650000 0.10649700 16031.06548868 0 -118.09520205 0 4673.71688455 0 -36.47412025 0 128.00936169 0 12054
0.10750000 0.10749900 15841.50728778 0 333.85827409 0 4578.63883133 0 863.47635821 0 327.22816599 0 12807
0.10850000 0.10850100 15797.32871176 0 395.24656459 0 4232.30758333 0 73.17544460 0 -210.33320395 0 12736
0.10950000 0.10950300 15470.36295986 0 198.19461425 0 4394.43963565 0 168.42334728 0 -134.70922544 0 12933
0.11050000 0.11050200 15397.83923230 0 136.61698701 0 4510.32258720 0 -860.85221723 0 196.86482804 0 13428
0.11150000 0.11150900 15334.06264134 0 93.62702505 0 5493.93256246 0 -639.69027961 0 662.70078505 0 13453
0.11250000 0.11250000 15409.35445011 0 -93.93738231 0 5713.14244922 0 -173.02168378 0 861.15670617 0 13668
0.11350000 0.11349100 15678.96555944 0 -108.76178584 0 5929.44031456 0 161.22412168 0 -102.82458383 0 13791
0.11450000 0.11448600 15318.11849360 0 195.14418877 0 6183.68303704 0 238.46355239 0 -558.45927581 0 14205
0.11550000 0.11549300 15239.72643389 0 508.12780888 0 5757.57568872 0 -171.32097469 0 2.70328596 0 14776
0.11650000 0.11649800 14911.09983327 0 299.09671033 0 5750.86585988 0 913.47344093 0 202.53053665 0 14553
0.11750000 0.11747300 14518.69664170 0 160.94620633 0 5269.50761072 0 860.81789303 0 -8.29496501 0 14568
0.11850000 0.11849100 14620.00841379 0 128.93168635 0 4710.77595572 0 532.68401086 0 -456.38572777 0 16015
0.11950000 0.11950300 14202.02815188 0 146.46471270 0 4335.00339602 0 -271.25867127 0 -564.11944826 0 15270
0.12050000 0.12050700 14281.19527434 0 366.49173703 0 4650.65323195 0 -422.39811951 0 -217.74169649 0 15999
0.12150000 0.12150000 14036.49689585 0 126.03405895 0 4580.79793467 0 -389.72590343 0 -444.44090376 0 15670
0.12250000 0.12250700 13832.43394944 0 255.41971061 0 4813.87037210 0 -96.40186037 0 -855.63050885 0 16887
0.12350000 0.12352200 13763.01047283 0 266.76441462 0 4674.06012662 0 366.54599142 0 -1274.38029733 0 16407
0.12450000 0.12449800 13227.77429109 0 366.63014109 0 3799.86686521 0 435.73141305 0 -1307.13223414 0 16306
0.12550000 0.12549900 12999.46295333 0 353.94236408 0 4300.91170791 0 692.17309925 0 -949.70762390 0 17523
0.12650000 0.12650100 12678.36553359 0 152.30868574 0 3638.87526235 0 533.41921323 0 -818.94346779 0 17154
0.12750000 0.12750600 12408.75442426 0 229.49054035 0 3262.84803918 0 914.00712699 0 -290.17352375 0 18007
0.12850000 0.12850300 12236.69049658 0 -32.16598938 0 3084.12964429 0 1012.46334651 0 -405.07214563 0 17496
0.12950000 0.12949900 12290.83416494 0 -147.07036887 0 2845.81999721 0 364.73345185 0 -231.45919971 0 18405
0.13050000 0.13049000 12287.62319074 0 44.72399875 0 3059.09511787 0 -237.19244950 0 -311.92067693 0 18100
0.13150000 0.13148800 12384.39530966 0 186.71814958 0 2925.48537428 0 -493.54334263 0 -107.20966735 0 19059
0.13250000 0.13249300 12328.81223907 0 249.35761278 0 3324.49874377 0 -745.35458258 0 -109.84543427 0 18957
0.13350000 0.13349100 12149.66202350 0 302.56788416 0 3550.87242469 0 -408.21557865 0 -46.58824608 0 19468
0.13450000 0.13450700 12139.03259167 0 -0.82628996 0 4000.91813927 0 -156.03230858 0 -153.74698073 0 19953
0.13550000 0.13551000 12013.14025849 0 156.61914179 0 3999.56731564 0 73.80745290 0 -172.04621196 0 19956
0.13650000 0.13649900 11962.65045731 0 123.35787804 0 3858.49482513 0 -141.92505953 0 -35.65997220 0 19723
0.13750000 0.13749600 12053.44352083 0 -75.12151641 0 3951.48020895 0 658.19213438 0 99.74016631 0 20946
0.13850000 0.13851100 12083.00662809 0 -51.35222455 0 3839.02967810 0 -93.02369407 0 -271.97615792 0 20955
0.13950000 0.13949800 12040.48890079 0 111.07977705 0 3825.22248905 0 325.69243454 0 -445.16281933 0 20506
0.14050000 0.14048300 11885.91924632 0 126.60649814 0 3776.75892332 0 -309.88336916 0 -325.12774597 0 21447
0.14150000 0.14148400 11763.90222682 0 321.42958949 0 3441.12354109 0 27.52657456 0 -280.76536936 0 21771
0.14250000 0.14249400 11691.37849926 0 119.59439483 0 3611.42696912 0 134.64943489 0 -305.90065393 0 22470
0.14350000 0.14350900 11367.84516806 0 124.72752462 0 3233.60602934 0 396.90298438 0 -383.14340633 0 22519
0.14450000 0.14449900 11314.69800893 0 86.29482083 0 3196.21478842 0 842.98037774 0 -401.63418877 0 22218
0.14550000 0.14550500 11305.72942582 0 117.75306721 0 3079.94430550 0 286.67799081 0 -259.61612172 0 23559
0.14650000 0.14650700 11088.37968963 0 316.88993631 0 2554.81715633 0 488.01160915 0 18.76969431 0 23044
0.14750000 0.14750500 10757.06251409 0 267.30363684 0 2688.11687482 0 -2.00298356 0 160.12021090 0 23649
0.14850000 0.14849900 10804.19740084 0 110.92144280 0 2929.30532635 0 -139.29759685 0 320.47736955 0 23640
0.14950000 0.14949500 10460.02525618 0 176.97339651 0 2964.80319971 0 -48.33258013 0 -82.00130544 0 24457
0.15050000 0.15050000 10420.89566027 0 282.35424797 0 2836.09849602 0 -63.72742983 0 -146.85002960 0 24591
0.15150000 0.15149900 10239.11023139 0 71.84975515 0 2798.96191858 0 -152.78258124 0 35.65000711 0 25020
0.15250000 0.15250500 10384.15768652 0 -29.15952103 0 2814.26387148 0 457.24383294 0 -260.06344364 0 25297
0.15350000 0.15350100 10214.36358542 0 42.03608117 0 2641.54667663 0 182.02791279 0 -158.08733206 0 25452
0.15450000 0.15450400 10042.17786217 0 281.72644715 0 2397.16939556 0 14.89349484 0 -486.61760345 0 26061
0.15550000 0.15549900 9875.46186737 0 311.35488113 0 2685.42629989 0 209.20714852 0 -0.92205006 0 26128
0.15650000 0.15649500 9562.23687058 0 203.18048212 0 2535.89455321 0 199.77020608 0 63.64195149 0 26331
0.15750000 0.15749700 9267.36978833 0 147.69927692 0 2328.01165474 0 286.13544689 0 151.07633599 0 27345
0.15850000 0.15849900 9431.40628052 0 76.42395398 0 2331.23370127 0 269.78826653 0 -197.84362156 0 26980
0.15950000 0.15949700 9249.76479187 0 210.55022152 0 2443.37420703 0 -312.15873191 0 49.86355048 0 27777
0.16050000 0.16050000 9053.28638797 0 256.57012516 0 2438.19235901 0 -11.12702210 0 445.98660030 0 28224
0.16150000 0.16150500 9037.75191625 0 35.20766774 0 2564.56080217 0 -172.18793772 0 329.69286550 0 28075
0.16250000 0.16249700 9047.52877906 0 -19.95852983 0 2677.38779207 0 -14.22372991 0 341.41181409 0 28590
0.16350000 0.16349900 8971.79407730 0 150.54929333 0 2797.48929938 0 204.55234316 0 -40.64550790 0 29163
0.16450000 0.16449100 8831.15340745 0 262.40966927 0 2550.58752825 0 144.10187858 0 462.06915210 0 28996
0.16550000 0.16550500 8732.31076380 0 53.15823145 0 2615.09489264 0 266.34145182 0 413.10622452 0 30777
0.16650000 0.16650700 8631.84048839 0 21.59180846 0 2347.32178923 0 370.96052733 0 499.56336563 0 29211
0.16750000 0.16749900 8560.91117561 0 141.47995207 0 2260.23795453 0 148.38908275 0 278.74024115 0 30922
0.16850000 0.16850800 8518.84741362 0 130.47073950 0 2297.14201315 0 151.30664034 0 326.71330289 0 30867
0.16950000 0.16949900 8281.62285438 0 120.33070443 0 2165.75780685 0 -131.45506918 0 355.53899332 0 30852
0.17050000 0.17049200 8242.02822083 0 125.32543016 0 2026.89978130 0 263.20798389 0 633.40894974 0 31257
0.17150000 0.17149500 8218.00127597 0 -63.27423958 0 1949.08348248 0 232.82331012 0 336.03620039 0 32608
0.17250000 0.17250900 8130.41918666 0 88.35659844 0 1880.75616602 0 28.33562934 0 -359.45084568 0 32361
0.17350000 0.17350400 8124.98267517 0 192.93636720 0 1927.74711255 0 -138.14275337 0 -127.04939113 0 32508
0.17450000 0.17449800 7950.98109065 0 179.54106863 0 1916.80765563 0 -226.71027959 0 -103.58901714 0 32791
0.17550000 0.17549800 7824.78980469 0 114.98941494 0 2065.58648422 0 -213.36812819 0 11.17574033 0 33633
0.17650000 0.17650100 7909.06126888 0 28.03324415 0 2367.61736062 0 -190.51595699 0 -301.73192363 0 33984
0.17750000 0.17750300 7797.10899264 0 150.01117834 0 2317.41543989 0 -55.13165191 0 -172.52896532 0 34069
0.17850000 0.17849800 7812.89812783 0 123.10764350 0 2378.77826404 0 89.47922145 0 309.28103469 0 34536
