### header ###
fiducial parameters:
Omega_m = 0.31
Omega_nu = 0
Omega_de = 0.69
Omega_k = 0
H_0 = 100
w_de = -1
zeff = 0
beta = 0
fgrowth = 0
b_1 = 2
gamma = 0.55
Lx = 3500 Ly = 3500 Lz = 3500
nx = 700 ny = 700 nz = 700
xoffset = -685.467585 yoffset = -31.7331281 zoffset = 572.489161
bins = 400 dk = 0.001
kx_ny = 0.628318531 ky_ny = 0.628318531 kz_ny = 0.628318531
############################
A(data) = 8.04261712 (not used)
A(ran) = 8.04213849 (used)
Ngal = 477766
weighted Ngal = 0
Nran = 23820508
weighted Nran = 0
SN(data) = 3485.66061
SN(ran) = 70.0499429
SN(data+ran) = 3555.71055
############################
13 columns: k_central k_mean P_0(k) sigma^{lin}_{P_0(k)} P^img_1(k) sigma^{lin}_{P_1(k)} P_2(k) sigma^{lin}_{P_2(k)} P^img_3(k) sigma^{lin}_{P_3(k)} P_4(k) sigma^{lin}_{P_4(k)} N_modes
### header ###
0.00050000 0 0 0 0 0 0 0 0 0 0 0 0
0.00150000 0.00179520 23710.60853639 0 -6000.59107384 0 31026.42571382 0 -13113.28645247 0 -65235.03758051 0 3
0.00250000 0.00253879 39410.50078975 0 7665.72478634 0 24217.16739685 0 37718.64955746 0 57415.42962384 0 6
0.00350000 0.00331552 43131.35554505 0 4102.89425085 0 35924.26859735 0 5437.15368079 0 -9757.38659551 0 7
0.00450000 0.00420575 34401.27031854 0 10521.04483825 0 31060.08558127 0 37383.26883870 0 19917.11933028 0 24
0.00550000 0.00557378 50189.63044719 0 -4208.66816984 0 40974.02377739 0 43644.88997014 0 -31824.07599375 0 45
0.00650000 0.00659388 44149.67725862 0 -7660.21076858 0 36414.66186356 0 41000.37591045 0 22702.03046866 0 40
0.00750000 0.00754703 69620.34254819 0 -13351.67360581 0 9244.38364201 0 49921.01584709 0 -21014.60816630 0 57
0.00850000 0.00846663 63683.02981069 0 -12005.83252411 0 -2583.33946506 0 22110.65760010 0 24252.15594327 0 75
0.00950000 0.00948925 81625.73217930 0 1596.04240563 0 -12514.60584952 0 19941.25699838 0 -7713.56830188 0 112
0.01050000 0.01054430 69064.29039580 0 898.51694457 0 -23799.96219768 0 -2077.95427104 0 959.39701535 0 105
0.01150000 0.01145670 62958.78904430 0 8522.39055756 0 -30691.93078105 0 -7679.90843444 0 -1326.80775534 0 144
0.01250000 0.01249090 60903.32266496 0 -3731.76099525 0 -26902.09544212 0 -14462.00633863 0 -31513.16511285 0 169
0.01350000 0.01339930 67967.24445276 0 -10474.31962752 0 -21676.51174396 0 -32525.61849426 0 -14811.67035640 0 180
0.01450000 0.01448870 72574.88170280 0 -2096.55577674 0 -6748.11693932 0 -41973.19036902 0 -13247.92592226 0 267
0.01550000 0.01550050 70694.24733235 0 7216.56485775 0 15308.37484776 0 -20468.07821325 0 6103.28688653 0 238
0.01650000 0.01653350 75149.64011612 0 4945.18814445 0 27563.77757328 0 -13881.92724138 0 -16485.25225274 0 315
0.01750000 0.01747870 72739.85934259 0 -262.00110049 0 28392.09819297 0 -4898.46293372 0 -12534.64675744 0 297
0.01850000 0.01844180 73001.71982455 0 -4499.90352955 0 45539.03257687 0 1612.78376076 0 -22758.94221823 0 388
0.01950000 0.01947590 80980.43708887 0 -6366.27674563 0 48081.23835523 0 -742.06610211 0 -28175.74496601 0 399
0.02050000 0.02045430 82175.14093680 0 602.90137317 0 51236.07586580 0 5766.63285042 0 -20494.09817658 0 462
0.02150000 0.02154770 77024.84904741 0 4453.38869298 0 30320.23283688 0 7588.56175468 0 -19157.77929421 0 571
0.02250000 0.02255340 78074.50544022 0 1944.54382930 0 20049.32288861 0 8543.20652822 0 -13103.43208338 0 510
0.02350000 0.02348930 71377.85266665 0 1396.90664377 0 17464.59938295 0 22935.10290610 0 -8842.18144297 0 555
0.02450000 0.02439640 74037.86798108 0 1609.18525519 0 10880.10925979 0 12848.65788930 0 -13124.46950053 0 592
0.02550000 0.02547300 66610.44176949 0 2743.25705242 0 378.32915950 0 12180.33236325 0 -5172.37010508 0 837
0.02650000 0.02652900 66323.77927993 0 1117.44116535 0 4771.90626104 0 2419.48013007 0 2885.93503003 0 723
0.02750000 0.02749970 68254.01766557 0 -427.40059586 0 9823.84268907 0 -11404.05167021 0 -1117.92834764 0 826
0.02850000 0.02848090 65761.30517915 0 2125.42132754 0 19311.90605569 0 -11750.61543704 0 -2985.09877111 0 831
0.02950000 0.02946900 66142.30387615 0 6518.86445395 0 24938.08646579 0 -17933.73378551 0 1246.78806388 0 996
0.03050000 0.03053250 61849.23137422 0 2601.90775378 0 30389.21342050 0 -10785.45195492 0 -2838.63405841 0 1041
0.03150000 0.03150510 62918.37505871 0 -602.48505375 0 32419.43489925 0 990.01642240 0 -4000.20951048 0 1036
0.03250000 0.03246190 63508.41924830 0 -587.73007370 0 29891.73386640 0 11371.72048174 0 -20448.36947508 0 1059
0.03350000 0.03345080 57694.45220927 0 3449.75995445 0 21243.25167381 0 13057.03904239 0 -15268.18230867 0 1302
0.03450000 0.03451200 55276.81008512 0 4162.54086465 0 12660.98198363 0 12106.03706372 0 -18583.01491288 0 1339
0.03550000 0.03553350 51811.94747962 0 2134.60028481 0 11487.97989234 0 3263.24664288 0 -9449.14414488 0 1365
0.03650000 0.03647120 50447.83706196 0 323.31631363 0 4229.87167187 0 -1318.10490804 0 -14430.00731990 0 1308
0.03750000 0.03744890 50492.34780774 0 254.15414389 0 9544.12254718 0 -1030.21560489 0 -2950.75241952 0 1579
0.03850000 0.03847530 51016.84383439 0 -178.97748730 0 8585.29243486 0 -1835.49250216 0 -4174.62077102 0 1662
0.03950000 0.03950240 52840.12356228 0 -1055.67752304 0 10317.87875015 0 1122.12475875 0 -1302.22719425 0 1683
0.04050000 0.04050350 51810.61880064 0 482.48430460 0 12257.28502074 0 -874.65497735 0 -4567.62186814 0 1822
0.04150000 0.04152450 50861.94201018 0 3029.15555156 0 10608.47191502 0 -173.62844718 0 -9051.03870603 0 1887
0.04250000 0.04250150 47591.62015175 0 3877.89353821 0 13108.63607604 0 -1955.69366039 0 -3598.63843396 0 1920
0.04350000 0.04349210 45242.84788797 0 3021.37170721 0 13542.33903919 0 -3310.09364918 0 -5723.21826481 0 2005
0.04450000 0.04448520 43924.57689506 0 791.70887044 0 16500.19989124 0 -2092.19328076 0 -4758.86306240 0 2151
0.04550000 0.04548030 41532.73328774 0 1684.32205141 0 14893.93772980 0 800.75385258 0 -1709.76625385 0 2274
0.04650000 0.04648670 42166.73460685 0 1941.63180787 0 15192.89049991 0 1786.84070691 0 -3130.58911922 0 2311
0.04750000 0.04749250 40021.80384298 0 169.35785150 0 13417.33249199 0 3963.00649909 0 -3330.42243755 0 2568
0.04850000 0.04851840 39527.09237009 0 281.51607298 0 13485.20584313 0 3347.35202220 0 -990.30319562 0 2493
0.04950000 0.04949480 39853.28305924 0 -758.23723251 0 12724.53712808 0 644.80901537 0 -4942.87402857 0 2644
0.05050000 0.05050630 39198.90866246 0 565.28314959 0 11723.70968773 0 2503.84017286 0 -3274.17502747 0 2829
0.05150000 0.05149060 39043.78539175 0 1712.76685387 0 13954.45096894 0 -1383.05516542 0 -1966.61097266 0 2784
0.05250000 0.05249300 36969.49606023 0 1694.61931349 0 10782.98282649 0 2394.26844646 0 1180.60877844 0 3055
0.05350000 0.05348950 36535.57165058 0 667.32348066 0 12218.75333037 0 2189.43043731 0 2180.94903650 0 3009
0.05450000 0.05448610 37100.59238608 0 -70.71904934 0 11637.12410765 0 3684.03927528 0 2518.42242465 0 3336
0.05550000 0.05550870 36825.99873058 0 623.59554825 0 11661.04032925 0 1530.60496596 0 4999.08822167 0 3349
0.05650000 0.05647670 36145.71509372 0 1668.35575902 0 13292.99028427 0 317.16120827 0 6749.98816222 0 3324
0.05750000 0.05747970 34613.74823181 0 1110.80884278 0 13758.13864991 0 -1873.19376817 0 3899.04167861 0 3639
0.05850000 0.05849280 34509.11476227 0 1099.66676232 0 14100.93782629 0 -1021.00010894 0 4837.31048374 0 3846
0.05950000 0.05951020 33071.92700081 0 233.06136511 0 14802.59105005 0 -2125.28845964 0 3167.09457415 0 3787
0.06050000 0.06049470 33957.71298631 0 247.23172641 0 14265.80474284 0 2366.03401817 0 3186.63722746 0 3930
0.06150000 0.06148310 34523.28733804 0 -1705.42590252 0 12927.38211876 0 2451.56772740 0 -828.54538788 0 4083
0.06250000 0.06249100 34359.97054697 0 93.82466605 0 12036.50286385 0 1939.59450011 0 -1287.11347087 0 4303
0.06350000 0.06350600 34927.64864042 0 301.33110547 0 12219.08550011 0 -387.24016651 0 -3320.05874152 0 4470
0.06450000 0.06451750 34573.44496947 0 1509.70041670 0 13497.60684692 0 -1423.55772961 0 -1468.25670490 0 4479
0.06550000 0.06550280 32485.31523192 0 1289.75975650 0 12958.71679800 0 -501.78779569 0 -1816.66954997 0 4636
0.06650000 0.06648880 31691.65098892 0 615.00674589 0 14071.26399578 0 -959.31175845 0 -1080.97557079 0 4653
0.06750000 0.06749660 31608.05493654 0 907.39805631 0 14916.52527243 0 816.06355611 0 -1592.86464841 0 5220
0.06850000 0.06852730 30946.70497512 0 1138.86611387 0 14614.91514437 0 993.99803041 0 -1653.55206074 0 5029
0.06950000 0.06949320 30090.92498989 0 435.56975711 0 13577.65975536 0 1445.58058367 0 -1260.81669942 0 5040
0.07050000 0.07048030 29784.44303891 0 -214.72338074 0 13346.02672016 0 1445.92382574 0 -1154.10163282 0 5475
0.07150000 0.07148790 29651.68586433 0 614.49188279 0 14126.40417337 0 1268.09121683 0 1516.99707875 0 5509
0.07250000 0.07249820 29505.42045348 0 1301.60714406 0 13833.87335166 0 470.06669232 0 2197.81218720 0 5916
0.07350000 0.07351270 27570.31024493 0 1096.12361837 0 12567.97445515 0 979.99929014 0 4771.40800642 0 5721
0.07450000 0.07449140 28081.18731206 0 560.58516217 0 13697.01941691 0 1002.08082753 0 3902.50731628 0 6028
0.07550000 0.07549160 26453.22339397 0 474.98280454 0 12701.94958545 0 790.30822135 0 2385.91991355 0 6183
0.07650000 0.07648840 26415.57748959 0 1010.79696162 0 12820.31273777 0 175.44209398 0 251.20558379 0 6330
0.07750000 0.07749960 24984.25806028 0 811.50065105 0 11626.60539907 0 -37.11786521 0 1970.77416680 0 6583
0.07850000 0.07848650 24837.99264943 0 458.91575399 0 10625.22434247 0 551.90667398 0 -1073.04557175 0 6549
0.07950000 0.07947320 24141.65414158 0 26.62030478 0 9984.60177311 0 1049.98634809 0 -690.31737761 0 6828
0.08050000 0.08048110 24830.79563830 0 -95.82178128 0 9977.36047268 0 1266.68503158 0 -1330.36197161 0 7147
0.08150000 0.08149960 23950.10292222 0 345.23840954 0 8461.16060131 0 1270.03994600 0 -1442.65748992 0 7386
0.08250000 0.08250610 24489.76803388 0 204.73614376 0 9452.18903421 0 142.25833650 0 -808.25756711 0 7227
0.08350000 0.08350160 23849.56621287 0 490.39437345 0 8810.65853422 0 719.47634502 0 1085.73113430 0 7798
0.08450000 0.08449610 23107.83117327 0 796.64048391 0 9397.05992894 0 391.18634308 0 794.30865231 0 7371
0.08550000 0.08548940 22728.05043199 0 329.74158373 0 9449.65347182 0 589.67437394 0 1825.89279654 0 8256
0.08650000 0.08650700 22457.55353667 0 360.34991846 0 8508.16262017 0 207.50422496 0 1059.98687186 0 8037
0.08750000 0.08749060 22358.56695279 0 11.76932767 0 8598.18062095 0 70.44356990 0 1860.46059463 0 8155
0.08850000 0.08849210 22469.95454046 0 -253.29160978 0 7829.06372207 0 244.06504151 0 871.67762921 0 8718
0.08950000 0.08949900 22574.58801000 0 225.83002977 0 8172.92584164 0 409.21983851 0 -312.70681199 0 8571
0.09050000 0.09049190 21969.15328892 0 1018.85539963 0 7598.01752008 0 -127.38709704 0 -1832.50297446 0 8932
0.09150000 0.09150830 20781.86789861 0 1068.36862175 0 7566.41710504 0 -830.08776272 0 -1843.05490001 0 9285
0.09250000 0.09250820 19780.04394902 0 957.18476485 0 7726.20182450 0 -69.36457184 0 -2366.67621301 0 9204
0.09350000 0.09350330 19764.43197103 0 168.89502832 0 7121.76361265 0 793.87793887 0 -2592.85059208 0 9349
0.09450000 0.09448040 18962.79565416 0 80.60918204 0 6770.17301036 0 1299.02729237 0 -2349.20408445 0 9564
0.09550000 0.09549270 19031.11189829 0 372.57708675 0 5874.77624693 0 1309.60136258 0 -1625.32870478 0 10155
0.09650000 0.09649430 18628.74361438 0 193.90187392 0 5728.27831725 0 1189.09017925 0 -1669.69551033 0 9913
0.09750000 0.09749140 18518.46325919 0 165.71394940 0 5131.30285233 0 903.22600431 0 -246.29390050 0 10476
0.09850000 0.09850240 18474.72757615 0 60.14309684 0 5756.96671086 0 532.27101315 0 226.36150136 0 10575
0.09950000 0.09950330 18219.39976583 0 503.37224537 0 5346.58206378 0 -203.69645246 0 -176.70544625 0 10882
0.10050000 0.10051200 18155.84462138 0 488.90293130 0 6638.23518782 0 -1045.36254524 0 863.74430848 0 10875
0.10150000 0.10150300 17315.67661414 0 554.54963791 0 6989.75935616 0 -675.09846715 0 387.16598193 0 11118
0.10250000 0.10250800 17421.52803940 0 338.28831125 0 7677.63860785 0 -474.41700874 0 883.07437314 0 11575
0.10350000 0.10349800 16838.01652146 0 155.37239802 0 7575.97252136 0 515.80978784 0 1026.39011667 0 11364
0.10450000 0.10450100 17110.61715850 0 202.68997813 0 7427.18262045 0 351.79986923 0 25.50377154 0 12093
0.10550000 0.10551000 16617.23436458 0 460.40830338 0 7691.74474967 0 256.75171129 0 -275.08858842 0 12067
0.10650000 0.10649700 16220.73441282 0 521.54082317 0 6744.80631420 0 674.46845186 0 1124.04027094 0 12054
0.10750000 0.10749900 15874.05992275 0 73.01611385 0 6380.03964538 0 1008.89252176 0 814.33627344 0 12807
0.10850000 0.10850100 16035.93731160 0 -157.14507722 0 5970.33041011 0 963.37973059 0 224.28876215 0 12736
0.10950000 0.10950300 15807.51525059 0 68.27981618 0 5170.03384454 0 810.44767296 0 102.97107069 0 12933
0.11050000 0.11050200 15618.06777294 0 374.32872854 0 4861.11598210 0 460.84676744 0 311.71362446 0 13428
0.11150000 0.11150900 15197.87304607 0 276.13603035 0 4539.57566937 0 94.27508822 0 209.75079967 0 13453
0.11250000 0.11250000 15020.05150949 0 400.80597888 0 4757.20221368 0 -325.14324723 0 -518.31102602 0 13668
0.11350000 0.11349100 14634.29171280 0 453.14153660 0 4870.52745820 0 -173.06375861 0 -114.46569398 0 13791
0.11450000 0.11448600 14416.16691388 0 209.13960734 0 5230.59946130 0 -423.29387058 0 172.66294045 0 14205
0.11550000 0.11549300 14664.40843631 0 -150.92575237 0 5022.31795914 0 517.03217250 0 -705.66361981 0 14776
0.11650000 0.11649800 14563.76100371 0 -72.54133256 0 5428.96016043 0 -294.72646372 0 -70.30328354 0 14553
0.11750000 0.11747300 14814.77060735 0 145.44716605 0 5588.34627619 0 -471.96338156 0 -1096.88760879 0 14568
0.11850000 0.11849100 14380.73547446 0 324.46894265 0 5714.62614075 0 -119.43606059 0 596.49714049 0 16015
0.11950000 0.11950300 14377.74594676 0 448.42140453 0 5899.79970102 0 80.20371350 0 461.81448863 0 15270
0.12050000 0.12050700 14152.31341345 0 -46.21521945 0 5773.12123277 0 1001.69551062 0 451.48622404 0 15999
0.12150000 0.12150000 14238.56682379 0 -147.37485780 0 5792.32064400 0 668.87471336 0 330.81559923 0 15670
0.12250000 0.12250700 14258.27556196 0 11.37083470 0 5235.09482518 0 284.16568031 0 381.24007369 0 16887
0.12350000 0.12352200 14288.94590171 0 224.66854290 0 5408.09990047 0 217.49367641 0 473.83903338 0 16407
0.12450000 0.12449800 13988.33228289 0 308.20701919 0 4901.85106511 0 247.47974649 0 1405.56520178 0 16306
0.12550000 0.12549900 13871.74070254 0 211.19573806 0 4951.54365890 0 327.63009138 0 1202.12230556 0 17523
0.12650000 0.12650100 13430.50855852 0 214.04243277 0 4826.09421870 0 525.46706955 0 1009.67312066 0 17154
0.12750000 0.12750600 13237.40721368 0 309.05737373 0 4817.20314187 0 549.30689211 0 813.33754974 0 18007
0.12850000 0.12850300 12915.09183821 0 251.18233191 0 4133.30992713 0 381.84794432 0 1167.99740047 0 17496
0.12950000 0.12949900 12888.07536566 0 66.67288968 0 4331.68169858 0 61.73330413 0 987.51407700 0 18405
0.13050000 0.13049000 12931.81104869 0 75.54315054 0 4036.30528939 0 -24.14741175 0 545.43379289 0 18100
0.13150000 0.13148800 12922.28884935 0 -46.19307480 0 4489.99379883 0 -425.48729813 0 327.30899396 0 19059
0.13250000 0.13249300 12625.77199070 0 454.85110355 0 4312.68158919 0 -616.02872147 0 174.31603855 0 18957
0.13350000 0.13349100 12400.33945739 0 499.77595427 0 4831.70788739 0 -106.65029350 0 225.49453833 0 19468
0.13450000 0.13450700 12150.21563974 0 190.24357780 0 4909.70134341 0 218.02514800 0 85.63801052 0 19953
0.13550000 0.13551000 12017.12629542 0 45.51201610 0 4742.86355304 0 511.63330692 0 -274.15186974 0 19956
0.13650000 0.13649900 11952.13174874 0 -170.56362767 0 4591.80382554 0 350.93179896 0 -140.20442025 0 19723
0.13750000 0.13749600 12179.22513077 0 -25.28741831 0 4251.37412667 0 168.03249422 0 13.53713505 0 20946
0.13850000 0.13851100 12140.02910091 0 27.53343940 0 4022.08842432 0 90.12451654 0 -424.50407569 0 20955
0.13950000 0.13949800 12128.51388310 0 171.44277026 0 4036.15027684 0 19.12234785 0 -226.70585066 0 20506
0.14050000 0.14048300 11682.07774641 0 428.02286051 0 3855.29492325 0 36.70376026 0 -163.36108037 0 21447
0.14150000 0.14148400 11579.99091158 0 456.58835131 0 3912.47240862 0 126.05288190 0 146.10375491 0 21771
0.14250000 0.14249400 11091.36921733 0 262.81934529 0 4017.81450694 0 671.17775693 0 75.88738912 0 22470
0.14350000 0.14350900 10866.86675931 0 150.09754247 0 3966.59393233 0 257.61867432 0 474.71042534 0 22519
0.14450000 0.14449900 10723.14798317 0 173.90082637 0 3729.96727863 0 441.55324144 0 370.89630785 0 22218
0.14550000 0.14550500 10454.53338307 0 117.46407954 0 3366.76180761 0 244.05064749 0 678.09795994 0 23559
0.14650000 0.14650700 10618.41486271 0 -68.83487183 0 3425.06867010 0 530.63009461 0 1064.22203611 0 23044
0.14750000 0.14750500 10569.02122169 0 -126.49798936 0 2978.96470316 0 561.74554181 0 269.22136350 0 23649
0.14850000 0.14849900 10701.34657560 0 19.33294347 0 2933.47959280 0 292.37359470 0 435.79231084 0 23640
0.14950000 0.14949500 10319.10777821 0 345.04575109 0 2462.35217177 0 -19.41366072 0 407.91551864 0 24457
0.15050000 0.15050000 10332.22848312 0 280.84951902 0 2498.20435953 0 53.34313928 0 -1.72916497 0 24591
0.15150000 0.15149900 10118.14508275 0 34.84239174 0 2461.53281973 0 -264.05944567 0 287.85940787 0 25020
0.15250000 0.15250500 9939.36025390 0 181.28163809 0 2469.29451943 0 -42.03563828 0 20.77887837 0 25297
0.15350000 0.15350100 9889.94446824 0 207.90615035 0 2570.56200222 0 106.12801194 0 -46.33978311 0 25452
0.15450000 0.15450400 9696.41130273 0 97.52392977 0 2255.82009693 0 292.23629787 0 -185.67624381 0 26061
0.15550000 0.15549900 9695.61409535 0 73.15518225 0 2040.04263086 0 284.25204444 0 71.21807902 0 26128
0.15650000 0.15649500 9686.01438973 0 41.84198332 0 1976.40998013 0 314.14178529 0 -353.35331640 0 26331
0.15750000 0.15749700 9603.93524585 0 118.07084294 0 1997.30345706 0 -181.23845603 0 18.41870161 0 27345
0.15850000 0.15849900 9428.89286279 0 378.83073581 0 2139.78213283 0 -367.15386206 0 -81.75140307 0 26980
0.15950000 0.15949700 9224.32058944 0 241.50401278 0 2204.33378652 0 -184.27670196 0 377.94273536 0 27777
0.16050000 0.16050000 9042.71231776 0 18.64645933 0 2281.13143146 0 187.75230472 0 296.09721753 0 28224
0.16150000 0.16150500 9139.82767875 0 64.38844762 0 2409.95793073 0 274.60362059 0 -11.40172648 0 28075
0.16250000 0.16249700 8970.90829132 0 118.40965608 0 2245.87714924 0 124.20380365 0 -52.69706913 0 28590
0.16350000 0.16349900 8861.51372211 0 248.17287402 0 2425.17130503 0 -310.01845153 0 -84.40986825 0 29163
0.16450000 0.16449100 8624.63240494 0 181.95040651 0 2294.68395704 0 -164.41295123 0 -112.64429654 0 28996
0.16550000 0.16550500 8636.67909434 0 189.28139277 0 2512.22192275 0 -137.86151632 0 -140.30850010 0 30777
0.16650000 0.16650700 8349.11974647 0 62.42919975 0 2324.26920896 0 167.59403015 0 85.32189565 0 29211
0.16750000 0.16749900 8558.69671064 0 16.30809506 0 2328.85315143 0 190.01105898 0 -27.42393411 0 30922
0.16850000 0.16850800 8406.91728203 0 -44.80892348 0 2126.91609139 0 287.73650506 0 163.27803794 0 30867
0.16950000 0.16949900 8507.79723345 0 83.48145382 0 2058.63306423 0 328.14163279 0 49.38345448 0 30852
0.17050000 0.17049200 8340.27295894 0 78.90958018 0 1838.67025938 0 328.20474504 0 437.41772812 0 31257
0.17150000 0.17149500 8289.74994080 0 77.84364747 0 1791.90075935 0 335.95426518 0 290.71938937 0 32608
0.17250000 0.17250900 8231.76417572 0 34.05824970 0 1678.43157461 0 14.42967515 0 331.36478655 0 32361
0.17350000 0.17350400 8180.46609484 0 181.48315440 0 1952.62662642 0 -96.28083986 0 367.99646598 0 32508
0.17450000 0.17449800 8067.77197283 0 196.66331173 0 1718.10371443 0 -79.75329133 0 495.77330885 0 32791
0.17550000 0.17549800 7907.22326296 0 128.80214015 0 1826.10317072 0 -59.50433442 0 884.55695744 0 33633
0.17650000 0.17650100 7824.33583937 0 41.69649297 0 1957.45416004 0 139.86782157 0 667.28583475 0 33984
0.17750000 0.17750300 7899.83802231 0 -29.73063154 0 1944.13415328 0 283.64860274 0 504.10744774 0 34069
