### header ###
fiducial parameters:
Omega_m = 0.31
Omega_nu = 0
Omega_de = 0.69
Omega_k = 0
H_0 = 100
w_de = -1
zeff = 0
beta = 0
fgrowth = 0
b_1 = 2
gamma = 0.55
Lx = 3500 Ly = 3500 Lz = 3500
nx = 700 ny = 700 nz = 700
xoffset = -685.467585 yoffset = -31.7331281 zoffset = 572.489161
bins = 400 dk = 0.001
kx_ny = 0.628318531 ky_ny = 0.628318531 kz_ny = 0.628318531
############################
A(data) = 8.0409827 (not used)
A(ran) = 8.04415459 (used)
Ngal = 477672
weighted Ngal = 0
Nran = 23820508
weighted Nran = 0
SN(data) = 3481.38704
SN(ran) = 70.0675038
SN(data+ran) = 3551.45454
############################
13 columns: k_central k_mean P_0(k) sigma^{lin}_{P_0(k)} P^img_1(k) sigma^{lin}_{P_1(k)} P_2(k) sigma^{lin}_{P_2(k)} P^img_3(k) sigma^{lin}_{P_3(k)} P_4(k) sigma^{lin}_{P_4(k)} N_modes
### header ###
0.00050000 0 0 0 0 0 0 0 0 0 0 0 0
0.00150000 0.00179520 2946.31241727 0 -6845.53125308 0 -11834.43293591 0 10417.04249123 0 14731.61744796 0 3
0.00250000 0.00253879 12483.71406328 0 -18837.01404422 0 -7855.12797469 0 5329.35352636 0 -9204.23539222 0 6
0.00350000 0.00331552 17400.49062225 0 -14278.75936288 0 -1250.61908827 0 -18831.69932831 0 -4199.68851441 0 7
0.00450000 0.00420575 42618.48545945 0 -26555.86384504 0 -12628.65079516 0 9402.50751275 0 5318.69087756 0 24
0.00550000 0.00557378 66679.53307636 0 -21270.37886961 0 -19374.57541416 0 -2531.80886536 0 -4291.32307461 0 45
0.00650000 0.00659388 89545.43395233 0 11640.44580509 0 3371.50076263 0 -22307.08064238 0 14942.87740550 0 40
0.00750000 0.00754703 80054.12639454 0 1976.50963105 0 -16954.27593206 0 -7403.00066305 0 4806.46298680 0 57
0.00850000 0.00846663 71380.84219435 0 9989.88327205 0 809.22085937 0 -17381.88911655 0 9010.85723926 0 75
0.00950000 0.00948925 72508.89064688 0 1759.64707715 0 3781.92969901 0 4239.44923284 0 484.42971207 0 112
0.01050000 0.01054430 77447.14751599 0 -10485.09299956 0 4524.09655927 0 7022.16805091 0 -21375.34450889 0 105
0.01150000 0.01145670 83533.05085256 0 -6432.99857498 0 6127.33597604 0 7305.58634929 0 -16800.81351007 0 144
0.01250000 0.01249090 89700.66794629 0 -7236.90471844 0 811.72541924 0 -8257.10872723 0 -14950.51730963 0 169
0.01350000 0.01339930 82977.10942342 0 -3328.55121466 0 19487.40240407 0 -6920.75662789 0 -28795.35226286 0 180
0.01450000 0.01448870 94455.23494667 0 3056.79207431 0 2267.61212286 0 7390.01282603 0 -4339.18873480 0 267
0.01550000 0.01550050 91427.61844826 0 2399.84889817 0 2810.23354525 0 -507.08701035 0 -1955.82652829 0 238
0.01650000 0.01653350 88041.81224196 0 6454.88856115 0 8762.89252495 0 3757.29377628 0 -12132.94281302 0 315
0.01750000 0.01747870 82814.01407884 0 5953.19045129 0 10092.22477035 0 -6641.13613692 0 -3418.72422798 0 297
0.01850000 0.01844180 74429.71755642 0 9780.66062228 0 24734.46641237 0 -11963.42552005 0 -3292.89832874 0 388
0.01950000 0.01947590 71961.47490784 0 6389.26289195 0 33218.63530466 0 -1112.45861918 0 17531.25477836 0 399
0.02050000 0.02045430 67212.88696287 0 189.22049499 0 34197.20737213 0 -1013.51078844 0 -286.39011036 0 462
0.02150000 0.02154770 71191.83760970 0 -1126.33224218 0 31932.58477698 0 7124.58705548 0 -1850.46228532 0 571
0.02250000 0.02255340 75354.14595552 0 -4229.30698330 0 39070.58041781 0 -2441.33689926 0 2581.19143405 0 510
0.02350000 0.02348930 72349.22772299 0 -866.42381108 0 32760.24105717 0 -4470.01932486 0 -9912.46557692 0 555
0.02450000 0.02439640 78806.71828047 0 1840.72971180 0 44303.13968061 0 -3814.65949117 0 -9238.00598292 0 592
0.02550000 0.02547300 75028.84105235 0 3988.35105060 0 38446.43346779 0 -3791.19723488 0 -15201.85908301 0 837
0.02650000 0.02652900 73154.18573731 0 3845.11945675 0 41178.64034003 0 5989.17550695 0 -17673.75559877 0 723
0.02750000 0.02749970 69517.81282037 0 1386.99691306 0 32966.18629880 0 3149.47850536 0 -17804.74120138 0 826
0.02850000 0.02848090 67690.54705555 0 1763.12378715 0 33370.32615468 0 11582.64826954 0 -12080.68143988 0 831
0.02950000 0.02946900 64137.77019099 0 4185.57130027 0 31435.21594612 0 12137.03957321 0 -11021.05995474 0 996
0.03050000 0.03053250 59746.26472142 0 3575.35333486 0 25333.47918506 0 11004.60648006 0 -4511.03121599 0 1041
0.03150000 0.03150510 56673.36241450 0 1983.21945989 0 20719.30926339 0 5675.25295369 0 1600.89208390 0 1036
0.03250000 0.03246190 56864.36001762 0 746.03110163 0 23239.37039211 0 4049.33741570 0 -580.91395054 0 1059
0.03350000 0.03345080 56295.24252194 0 1407.62465419 0 24484.23187147 0 340.26361400 0 8978.06101315 0 1302
0.03450000 0.03451200 55535.23814639 0 2572.69896091 0 23753.79060319 0 -2937.29954486 0 3896.29574206 0 1339
0.03550000 0.03553350 54466.53735489 0 811.19394765 0 25240.13948684 0 -1498.51736863 0 4134.82683563 0 1365
0.03650000 0.03647120 54486.79970931 0 -153.55653675 0 25870.15476902 0 -1812.70565768 0 66.25092338 0 1308
0.03750000 0.03744890 52145.22445666 0 1638.44940969 0 25015.59273952 0 -150.65448041 0 -3687.25024948 0 1579
0.03850000 0.03847530 51603.23415679 0 1167.27769936 0 24263.11754484 0 1560.55560459 0 -5412.39596250 0 1662
0.03950000 0.03950240 50311.86891319 0 2520.79190216 0 21530.02488661 0 4482.16566519 0 -2729.64916522 0 1683
0.04050000 0.04050350 47950.14202937 0 1786.12100580 0 18896.80459824 0 4302.97116032 0 -1531.42431799 0 1822
0.04150000 0.04152450 45640.78724195 0 2163.06723192 0 17637.10620362 0 4704.01076525 0 -2819.00282650 0 1887
0.04250000 0.04250150 46386.28687199 0 -367.22915387 0 18661.73914234 0 2758.04967838 0 3575.84051716 0 1920
0.04350000 0.04349210 46216.99102551 0 -714.47386867 0 18910.86645076 0 2293.62101386 0 2877.96295616 0 2005
0.04450000 0.04448520 44948.76694078 0 2694.62740181 0 20959.24654221 0 -1952.92557919 0 2239.01230785 0 2151
0.04550000 0.04548030 44209.24636615 0 2931.70802083 0 20991.57773068 0 -1665.76483502 0 8464.93626408 0 2274
0.04650000 0.04648670 41631.83059486 0 1588.32499523 0 21342.01681119 0 -846.60767135 0 5919.90704289 0 2311
0.04750000 0.04749250 41366.09479921 0 1555.06373148 0 21429.48817726 0 1483.16005411 0 7711.54206644 0 2568
0.04850000 0.04851840 41700.14683899 0 -267.11319285 0 20553.22439111 0 4682.79619090 0 2447.07236352 0 2493
0.04950000 0.04949480 40080.59788777 0 328.23242585 0 16218.18777811 0 4557.30246141 0 -235.43859325 0 2644
0.05050000 0.05050630 38195.31314090 0 1501.09722031 0 14138.58373067 0 1367.91929739 0 -732.95357879 0 2829
0.05150000 0.05149060 36843.60372704 0 1474.80044887 0 13346.58033640 0 1879.57142726 0 1332.64287052 0 2784
0.05250000 0.05249300 35328.35607561 0 1738.85325114 0 12329.14440881 0 3725.70443358 0 230.90447623 0 3055
0.05350000 0.05348950 34167.86571136 0 75.87044846 0 10474.23104892 0 4030.63625908 0 -1542.87310185 0 3009
0.05450000 0.05448610 34233.85676728 0 -710.66166723 0 11505.47416555 0 -83.67211925 0 -1905.97892196 0 3336
0.05550000 0.05550870 35188.62333640 0 7.66150623 0 10378.30042669 0 -1396.61876332 0 -2319.98421925 0 3349
0.05650000 0.05647670 34838.07353264 0 789.29178193 0 12143.01862861 0 -2311.52496309 0 -630.45706794 0 3324
0.05750000 0.05747970 35637.38466130 0 -221.04014205 0 9908.85599903 0 -439.71634276 0 -2549.98962271 0 3639
0.05850000 0.05849280 34472.79753687 0 -429.22974392 0 11599.92109625 0 786.37422434 0 -3119.73824090 0 3846
0.05950000 0.05951020 35864.03515033 0 508.57180911 0 8770.37741652 0 2143.65744651 0 -6553.88621735 0 3787
0.06050000 0.06049470 33846.87901487 0 824.27922112 0 8763.09182679 0 2054.41450848 0 -7725.06137505 0 3930
0.06150000 0.06148310 33176.89264010 0 1009.45388862 0 7215.50191457 0 -402.24316664 0 -5298.09635340 0 4083
0.06250000 0.06249100 32295.31413803 0 147.22870311 0 8591.45971978 0 -911.33316055 0 -5700.97396425 0 4303
0.06350000 0.06350600 33002.72497070 0 920.53315524 0 8663.64020527 0 167.87969613 0 -2454.72333997 0 4470
0.06450000 0.06451750 32098.44820276 0 417.36796234 0 9034.05375976 0 2016.43643435 0 277.47799612 0 4479
0.06550000 0.06550280 32708.09040727 0 944.02309234 0 10348.08405226 0 1050.85663282 0 1986.33078317 0 4636
0.06650000 0.06648880 32017.28806184 0 217.96757191 0 9512.76572329 0 921.45215820 0 3373.62664899 0 4653
0.06750000 0.06749660 30578.88234465 0 1560.15700090 0 11291.33540356 0 2127.73544342 0 3867.66271008 0 5220
0.06850000 0.06852730 30180.72154417 0 1044.19330774 0 8485.68580079 0 1405.15552576 0 3953.24070860 0 5029
0.06950000 0.06949320 28993.98977011 0 95.20959244 0 10595.92697100 0 1722.23369159 0 6893.02045422 0 5040
0.07050000 0.07048030 28963.76232335 0 368.65194760 0 7545.36861556 0 2083.11397441 0 5213.74738293 0 5475
0.07150000 0.07148790 28475.80496859 0 292.53192894 0 8255.68039733 0 659.77436960 0 3293.65124683 0 5509
0.07250000 0.07249820 27699.08138257 0 1108.31756970 0 7865.63561094 0 -642.45836081 0 3317.43460054 0 5916
0.07350000 0.07351270 27126.08857320 0 718.05687298 0 7885.80938676 0 -837.95575674 0 2510.45035078 0 5721
0.07450000 0.07449140 27111.58382769 0 -23.53466930 0 8040.52298145 0 -865.27561100 0 2314.42591219 0 6028
0.07550000 0.07549160 26927.67251245 0 -215.27588975 0 9401.24526772 0 65.11279911 0 1514.67189054 0 6183
0.07650000 0.07648840 27282.31907639 0 178.28878869 0 8681.67702240 0 816.25953626 0 681.67210639 0 6330
0.07750000 0.07749960 26873.19667434 0 123.23054630 0 7803.20984362 0 1557.03460530 0 128.09018966 0 6583
0.07850000 0.07848650 26185.38385661 0 553.01501369 0 6955.00332856 0 441.80236875 0 1010.83792923 0 6549
0.07950000 0.07947320 26664.92624450 0 279.35807687 0 7060.10183574 0 732.85724956 0 441.81454831 0 6828
0.08050000 0.08048110 25340.34402645 0 1003.86125736 0 6415.16105970 0 10.63739283 0 278.83657037 0 7147
0.08150000 0.08149960 24823.82007366 0 836.36355643 0 6463.49175753 0 -1016.70847584 0 224.82244821 0 7386
0.08250000 0.08250610 23617.71173117 0 956.73522846 0 7810.82760309 0 -2116.36416584 0 611.57875413 0 7227
0.08350000 0.08350160 23617.93317766 0 1183.31042569 0 9136.26239016 0 -407.50805709 0 1321.03907411 0 7798
0.08450000 0.08449610 23002.09047125 0 393.31333667 0 9058.73397178 0 307.65008125 0 1486.68105340 0 7371
0.08550000 0.08548940 22572.81643803 0 41.42499957 0 8924.51525033 0 1220.02625479 0 2457.73501232 0 8256
0.08650000 0.08650700 22474.05130065 0 122.31265057 0 8913.43185318 0 2154.49725251 0 895.02030439 0 8037
0.08750000 0.08749060 22166.68356368 0 793.71406846 0 9222.37186027 0 478.41411800 0 2356.82184392 0 8155
0.08850000 0.08849210 21201.17683950 0 1094.28893415 0 8067.55052634 0 347.67210654 0 1469.72932410 0 8718
0.08950000 0.08949900 20765.25941139 0 283.83572503 0 8183.14559744 0 374.30879835 0 2745.61545760 0 8571
0.09050000 0.09049190 20410.16995445 0 90.19238989 0 7475.43581201 0 109.20932921 0 1278.36633426 0 8932
0.09150000 0.09150830 20240.87410797 0 17.43547917 0 7900.84560387 0 396.92402180 0 341.15382892 0 9285
0.09250000 0.09250820 20203.44965009 0 290.07387283 0 7865.29236887 0 -322.17918588 0 -323.05389954 0 9204
0.09350000 0.09350330 19719.36760902 0 515.57394732 0 7410.00944466 0 360.71198348 0 178.55452449 0 9349
0.09450000 0.09448040 19325.74646171 0 317.91412636 0 7489.81876195 0 271.33617754 0 -0.52751656 0 9564
0.09550000 0.09549270 19195.97881484 0 208.07334246 0 6672.31580361 0 940.34265157 0 -1378.50443992 0 10155
0.09650000 0.09649430 18837.78910696 0 149.80966203 0 6603.75596834 0 1101.16374063 0 -73.25970499 0 9913
0.09750000 0.09749140 18614.01742237 0 605.90972382 0 5572.18068196 0 769.62622582 0 -966.24967718 0 10476
0.09850000 0.09850240 17998.61760895 0 430.10777928 0 5219.80394460 0 -99.76375036 0 -170.88472509 0 10575
0.09950000 0.09950330 17471.90711733 0 893.96068291 0 5369.90037985 0 505.10063527 0 -346.34896372 0 10882
0.10050000 0.10051200 17021.81711345 0 477.66119991 0 5086.24956264 0 -127.93960605 0 739.88153243 0 10875
0.10150000 0.10150300 16804.24593076 0 39.89369704 0 5480.34681991 0 378.52956858 0 45.34006290 0 11118
0.10250000 0.10250800 16936.56021235 0 -239.32940819 0 5430.25562243 0 78.83539560 0 256.67641948 0 11575
0.10350000 0.10349800 17211.70748409 0 -152.52459607 0 5548.80700427 0 74.30460029 0 288.60900426 0 11364
0.10450000 0.10450100 16996.12931987 0 197.88348193 0 5587.83694925 0 230.33646597 0 141.36037096 0 12093
0.10550000 0.10551000 17057.58072261 0 454.39935270 0 5937.56740097 0 -688.69306756 0 -158.61658919 0 12067
0.10650000 0.10649700 16158.95084033 0 900.39481086 0 5847.47189392 0 -164.01213307 0 -403.78221979 0 12054
0.10750000 0.10749900 15921.00657998 0 525.37627648 0 6086.73376093 0 80.45018345 0 77.25271749 0 12807
0.10850000 0.10850100 15109.18372428 0 114.53323516 0 5970.65150753 0 477.91918508 0 -199.72591678 0 12736
0.10950000 0.10950300 15502.25125534 0 248.46296893 0 6391.82059898 0 609.11184016 0 -644.61414245 0 12933
0.11050000 0.11050200 15309.37135700 0 125.73842787 0 6482.95690457 0 -245.44465318 0 91.55705393 0 13428
0.11150000 0.11150900 14958.93227649 0 420.06960960 0 6332.10755124 0 -130.70325832 0 -10.42467132 0 13453
0.11250000 0.11250000 15074.85951734 0 94.11453951 0 7098.14634381 0 -343.56759573 0 968.95796783 0 13668
0.11350000 0.11349100 14783.98954435 0 12.05244701 0 6627.55039437 0 354.04422947 0 -227.62596085 0 13791
0.11450000 0.11448600 14794.17608319 0 161.70244612 0 6696.33167615 0 616.44614812 0 135.93603903 0 14205
0.11550000 0.11549300 14620.00841379 0 242.55256194 0 5987.37071801 0 379.21937441 0 -157.82491796 0 14776
0.11650000 0.11649800 14195.38475699 0 235.19832380 0 5375.14866181 0 835.36261827 0 -165.12822342 0 14553
0.11750000 0.11747300 14094.29443140 0 283.25774967 0 4972.23783398 0 588.99453319 0 -158.28552668 0 14568
0.11850000 0.11849100 13486.97741510 0 357.42018131 0 4606.51894522 0 681.07641531 0 -425.93462005 0 16015
0.11950000 0.11950300 13528.83080291 0 202.84720514 0 4273.50770398 0 687.49504201 0 -161.37581253 0 15270
0.12050000 0.12050700 13194.88948638 0 -28.15902576 0 3873.43139131 0 379.96564910 0 -42.86894145 0 15999
0.12150000 0.12150000 13615.74855274 0 -216.08416946 0 3925.09485891 0 -57.70884623 0 -152.68403755 0 15670
0.12250000 0.12250700 13561.71560762 0 -45.45222555 0 4291.73275063 0 -324.00058331 0 -42.13816801 0 16887
0.12350000 0.12352200 13383.45117804 0 143.38882087 0 4299.64946288 0 51.33838415 0 118.03984043 0 16407
0.12450000 0.12449800 13449.99585020 0 319.32474054 0 4103.59180731 0 -110.57875435 0 -120.28973683 0 16306
0.12550000 0.12549900 13138.08846006 0 262.08525015 0 4084.15987726 0 427.29097984 0 -257.79693875 0 17523
0.12650000 0.12650100 12938.78661333 0 257.98516827 0 4089.88426919 0 384.41672368 0 48.24909480 0 17154
0.12750000 0.12750600 12700.73162972 0 271.65948943 0 3993.15643957 0 422.13016925 0 283.46923108 0 18007
0.12850000 0.12850300 12508.29462438 0 217.90003073 0 3880.22979875 0 466.06293966 0 678.09463824 0 17496
0.12950000 0.12949900 12364.90801798 0 163.67331993 0 3825.27785067 0 632.12013113 0 1241.83873468 0 18405
0.13050000 0.13049000 12069.38766857 0 100.66204807 0 3460.62190509 0 684.18441689 0 1462.64303622 0 18100
0.13150000 0.13148800 11972.61554965 0 -17.28744219 0 3345.24828048 0 759.60134293 0 1770.61975105 0 19059
0.13250000 0.13249300 12085.33181630 0 -4.58214876 0 2897.80456224 0 479.03416819 0 1486.37102830 0 18957
0.13350000 0.13349100 12154.75529292 0 50.92793307 0 3043.13989781 0 -270.78256130 0 1553.03749604 0 19468
0.13450000 0.13450700 12021.33377885 0 268.72310888 0 3082.26949372 0 -676.76042310 0 1621.78556084 0 19953
0.13550000 0.13551000 11956.00706242 0 40.60996574 0 3293.62910218 0 -376.86318369 0 1067.21599274 0 19956
0.13650000 0.13649900 12011.14724002 0 -37.15407171 0 3623.40722458 0 -284.61964563 0 897.73080951 0 19723
0.13750000 0.13749600 12080.68143988 0 113.88550415 0 3835.16543673 0 -40.39582698 0 925.65521270 0 20946
0.13850000 0.13851100 11868.31424986 0 258.81891433 0 3939.24529003 0 277.43370682 0 817.74433502 0 20955
0.13950000 0.13949800 11851.70576263 0 281.09975357 0 3786.43613521 0 239.81991218 0 1157.20188377 0 20506
0.14050000 0.14048300 11481.77939044 0 258.18447012 0 3732.89037238 0 55.49404910 0 1102.51234979 0 21447
0.14150000 0.14148400 11299.97181692 0 93.76177524 0 3752.55482126 0 455.96165773 0 1579.24568888 0 21771
0.14250000 0.14249400 11304.95436309 0 26.01121619 0 3532.18234040 0 102.79247409 0 975.88702870 0 22470
0.14350000 0.14350900 11173.08297450 0 70.56503330 0 3218.28193179 0 206.97718230 0 952.38712651 0 22519
0.14450000 0.14449900 11139.75527679 0 192.79131974 0 3366.05317882 0 -95.28942390 0 843.93924107 0 22218
0.14550000 0.14550500 10882.67803915 0 217.93989110 0 3149.53386699 0 101.38174918 0 880.18449637 0 23559
0.14650000 0.14650700 10732.08334929 0 172.59097034 0 3008.38387020 0 146.85667300 0 689.39726742 0 23044
0.14750000 0.14750500 10705.10009371 0 93.31046728 0 2951.18424019 0 190.64328873 0 130.55267470 0 23649
0.14850000 0.14849900 10540.45462366 0 117.61798485 0 2842.48722744 0 300.86163890 0 531.78272362 0 23640
0.14950000 0.14949500 10508.73241305 0 80.87591434 0 2866.79098042 0 76.30514793 0 87.66302801 0 24457
0.15050000 0.15050000 10347.30898952 0 116.48639325 0 2777.72519958 0 -12.52722830 0 413.88682342 0 24591
0.15150000 0.15149900 10428.23661162 0 167.53091790 0 3062.18429649 0 -41.50460958 0 256.30881830 0 25020
0.15250000 0.15250500 10175.17862789 0 408.76808765 0 2948.16149551 0 -338.33370779 0 288.31005149 0 25297
0.15350000 0.15350100 9888.97010365 0 391.20295156 0 3160.38474531 0 -105.03772012 0 536.49953400 0 25452
0.15450000 0.15450400 9716.07575161 0 133.44476595 0 3073.03517482 0 -182.38001272 0 416.76562787 0 26061
0.15550000 0.15549900 9587.23818002 0 123.66347420 0 3396.20311930 0 -130.42645020 0 297.03725791 0 26128
0.15650000 0.15649500 9424.45286054 0 121.51655042 0 3271.86091159 0 187.27287305 0 -51.80541481 0 26331
0.15750000 0.15749700 9407.65614379 0 41.44858362 0 3116.36118183 0 466.28992232 0 324.03047859 0 27345
0.15850000 0.15849900 9318.54607365 0 -6.95618807 0 3000.36750703 0 288.86145326 0 322.82138072 0 26980
0.15950000 0.15949700 9435.81306580 0 -47.53216177 0 2854.30139802 0 425.55373208 0 127.39263320 0 27777
0.16050000 0.16050000 9392.24346764 0 -6.01288135 0 2587.00440458 0 158.40842948 0 306.53399091 0 28224
0.16150000 0.16150500 9485.22885147 0 156.74979523 0 2580.56031153 0 198.19572149 0 464.22271928 0 28075
0.16250000 0.16249700 9241.25017409 0 216.77176083 0 2599.90366299 0 22.80854623 0 417.59051607 0 28590
0.16350000 0.16349900 9035.40458338 0 249.48383728 0 2567.35102802 0 -107.92283579 0 356.21108344 0 29163
0.16450000 0.16449100 8870.75911333 0 222.42750435 0 2590.21537877 0 -114.91855206 0 474.44690401 0 28996
0.16550000 0.16550500 8808.98661317 0 -29.47131769 0 2553.88708104 0 4.86862302 0 117.26920662 0 30777
0.16650000 0.16650700 8798.73364039 0 32.19400237 0 2669.23856101 0 53.63046611 0 -38.31655510 0 29211
0.16750000 0.16749900 8844.36269096 0 144.01551445 0 2480.00145753 0 171.95652613 0 -49.35909536 0 30922
0.16850000 0.16850800 8602.60955087 0 209.96449554 0 2359.51241885 0 128.85750177 0 40.60121860 0 30867
0.16950000 0.16949900 8485.05467827 0 143.14301526 0 2497.55109237 0 239.00388184 0 197.14938679 0 30852
0.17050000 0.17049200 8337.31664822 0 57.42760918 0 2269.40583948 0 334.37092273 0 276.13492312 0 31257
0.17150000 0.17149500 8325.32532044 0 136.92369040 0 2358.74842844 0 280.94363379 0 590.49040428 0 32608
0.17250000 0.17250900 8242.31610127 0 95.09134001 0 2080.39018250 0 171.64096487 0 546.69714515 0 32361
0.17350000 0.17350400 8124.32940801 0 -9.44830265 0 1924.97903135 0 130.55710363 0 785.58033865 0 32508
0.17450000 0.17449800 8211.00356669 0 -74.08027499 0 1768.33885214 0 84.67870430 0 519.01965480 0 32791
0.17550000 0.17549800 8296.57049289 0 -57.98576508 0 1966.62204499 0 53.39994031 0 783.56296107 0 33633
0.17650000 0.17650100 8245.62672639 0 53.64917834 0 1818.95044888 0 -78.98498271 0 308.07968745 0 33984
0.17750000 0.17750300 8315.06127533 0 5.93424570 0 1819.82516254 0 131.22033589 0 447.53340408 0 34069
0.17850000 0.17849800 8289.31812013 0 105.70383118 0 1740.06013455 0 50.50773834 0 314.65554116 0 34536
