### header ###
fiducial parameters:
Omega_m = 0.31
Omega_nu = 0
Omega_de = 0.69
Omega_k = 0
H_0 = 100
w_de = -1
zeff = 0
beta = 0
fgrowth = 0
b_1 = 2
gamma = 0.55
Lx = 3500 Ly = 3500 Lz = 3500
nx = 700 ny = 700 nz = 700
xoffset = -685.467585 yoffset = -31.7331281 zoffset = 572.489161
bins = 400 dk = 0.001
kx_ny = 0.628318531 ky_ny = 0.628318531 kz_ny = 0.628318531
############################
A(data) = 8.05636529 (not used)
A(ran) = 8.04942885 (used)
Ngal = 478207
weighted Ngal = 0
Nran = 23820508
weighted Nran = 0
SN(data) = 3490.80538
SN(ran) = 70.1134445
SN(data+ran) = 3560.91882
############################
13 columns: k_central k_mean P_0(k) sigma^{lin}_{P_0(k)} P^img_1(k) sigma^{lin}_{P_1(k)} P_2(k) sigma^{lin}_{P_2(k)} P^img_3(k) sigma^{lin}_{P_3(k)} P_4(k) sigma^{lin}_{P_4(k)} N_modes
### header ###
0.00050000 0 0 0 0 0 0 0 0 0 0 0 0
0.00150000 0.00179520 12330.69453429 0 -24791.04599220 0 -10096.74227888 0 -16510.38643008 0 -28729.47193019 0 3
0.00250000 0.00253879 22807.99261718 0 -29291.17096824 0 -20507.82785935 0 -13298.85861643 0 15843.05741326 0 6
0.00350000 0.00331552 38024.13499920 0 -28732.90435088 0 -18513.25926652 0 -8596.76336337 0 -13384.33696403 0 7
0.00450000 0.00420575 54435.53484540 0 -25742.04797087 0 -18718.09727567 0 -32484.31872269 0 -1960.10044567 0 24
0.00550000 0.00557378 65884.54015438 0 -1536.24077929 0 -92.66683304 0 -39220.61041911 0 -938.69287517 0 45
0.00650000 0.00659388 67462.90005727 0 15949.35173152 0 15492.28616300 0 -45520.43107117 0 41591.85950227 0 40
0.00750000 0.00754703 51249.69482533 0 17966.61859022 0 15899.08337684 0 -9276.08370797 0 4673.66152293 0 57
0.00850000 0.00846663 56675.35543296 0 2247.32762379 0 29705.71880945 0 -1211.25697354 0 24518.33463191 0 75
0.00950000 0.00948925 57402.69645030 0 -5783.89460482 0 37425.12222651 0 8088.23362910 0 1419.13987201 0 112
0.01050000 0.01054430 69523.79187577 0 -14622.22287875 0 40923.75542271 0 21559.69871712 0 -7468.64847690 0 105
0.01150000 0.01145670 84437.21689725 0 -8598.54600766 0 27278.00086971 0 10061.69837082 0 -4826.86928144 0 144
0.01250000 0.01249090 86514.05286349 0 2093.93163575 0 42675.50793227 0 1860.32772673 0 -8632.34981534 0 169
0.01350000 0.01339930 87655.60955229 0 5905.05905531 0 45495.96123332 0 562.26040492 0 -19025.13284289 0 180
0.01450000 0.01448870 81356.67468621 0 7692.42016148 0 35920.17183716 0 -10092.04761315 0 -794.83901666 0 267
0.01550000 0.01550050 82690.44693386 0 -2796.79174292 0 32628.03749884 0 -8747.16982371 0 5516.18793535 0 238
0.01650000 0.01653350 84897.27199347 0 -8235.05265619 0 33239.56199857 0 -3640.81291919 0 -17118.14633937 0 315
0.01750000 0.01747870 100028.60036738 0 -5313.69725907 0 46219.98055321 0 2145.55081406 0 -18498.20090477 0 297
0.01850000 0.01844180 95532.57215152 0 2082.43856259 0 42978.00384631 0 -2399.21777565 0 -24333.42680744 0 388
0.01950000 0.01947590 97988.19234980 0 9349.98040381 0 50530.76877486 0 714.93226291 0 123.48520977 0 399
0.02050000 0.02045430 87999.51596116 0 8279.92878868 0 50517.70343157 0 11171.42212577 0 -9121.63584907 0 462
0.02150000 0.02154770 83828.01758573 0 5415.79516622 0 55842.05226711 0 16179.76681099 0 -1908.92416036 0 571
0.02250000 0.02255340 83257.12851808 0 1983.16409827 0 51636.67257774 0 20291.80680214 0 5374.56182860 0 510
0.02350000 0.02348930 76437.35149253 0 5103.43381076 0 46260.94815504 0 7922.81309631 0 6004.18957941 0 555
0.02450000 0.02439640 74811.49131616 0 3522.77086430 0 39771.23713234 0 13910.05094642 0 21107.61569478 0 592
0.02550000 0.02547300 73607.92960838 0 409.29291585 0 32371.15956304 0 9975.22351399 0 2043.53041318 0 837
0.02650000 0.02652900 71481.15745721 0 3754.79143088 0 33172.79587991 0 10888.38028643 0 5407.97810490 0 723
0.02750000 0.02749970 68371.05213890 0 5205.07775260 0 29114.56738738 0 -2438.14806972 0 -5711.40409423 0 826
0.02850000 0.02848090 65247.77075406 0 3793.27883194 0 36070.20183846 0 1399.38684453 0 15746.06384785 0 831
0.02950000 0.02946900 63133.62105318 0 2261.10159587 0 34145.27816873 0 -571.69181120 0 2760.02055219 0 996
0.03050000 0.03053250 61682.03926946 0 2252.59805040 0 34470.36162541 0 7611.50361171 0 7054.08956336 0 1041
0.03150000 0.03150510 60426.65908152 0 948.29922419 0 27456.26529929 0 7506.10615176 0 6861.90722148 0 1036
0.03250000 0.03246190 57972.03539248 0 -672.01593192 0 27729.86244556 0 3284.18440911 0 -2272.30678858 0 1059
0.03350000 0.03345080 59169.50732161 0 2181.86803946 0 24294.12005434 0 2934.83041643 0 -1110.83098743 0 1302
0.03450000 0.03451200 55053.14912378 0 3035.30069183 0 22206.32248653 0 3736.12349123 0 2023.46736061 0 1339
0.03550000 0.03553350 54100.92918938 0 -72.20916281 0 16682.33963451 0 1203.62814174 0 1265.42278655 0 1365
0.03650000 0.03647120 52528.76978838 0 239.54199682 0 15367.16889255 0 6534.95254191 0 -5829.09183473 0 1308
0.03750000 0.03744890 53419.31687354 0 462.00493262 0 11379.58183236 0 672.02589701 0 -3168.88829077 0 1579
0.03850000 0.03847530 50266.91527443 0 3426.60772325 0 15239.06209440 0 -645.30284106 0 -4464.99248939 0 1662
0.03950000 0.03950240 48628.87554076 0 2454.77870159 0 15518.30612633 0 -4907.33186590 0 -3171.26884061 0 1683
0.04050000 0.04050350 46381.30432582 0 3231.66837249 0 24479.02787881 0 -3351.92489235 0 -2804.43164704 0 1822
0.04150000 0.04152450 44350.41850758 0 2591.48869613 0 17361.62676213 0 3071.25253052 0 1519.07867582 0 1887
0.04250000 0.04250150 42719.68650829 0 69.81997656 0 22035.58723783 0 3056.98030383 0 1520.23019760 0 1920
0.04350000 0.04349210 45010.66123652 0 -1650.57360537 0 20676.79153608 0 4613.97061983 0 -4645.82569833 0 2005
0.04450000 0.04448520 44448.18713573 0 -885.91774616 0 21065.43013722 0 2097.72944317 0 -939.74142433 0 2151
0.04550000 0.04548030 45143.63985759 0 237.54233496 0 17099.87700342 0 -350.08587335 0 -3122.91599812 0 2274
0.04650000 0.04648670 45395.31380072 0 -771.77757853 0 14333.78881723 0 597.43607363 0 -3733.32219305 0 2311
0.04750000 0.04749250 45128.02787960 0 1448.32652023 0 15507.78741775 0 2507.95907770 0 -859.82691995 0 2568
0.04850000 0.04851840 43613.77673740 0 2187.08310445 0 15276.48655229 0 2510.16247034 0 -5800.45880274 0 2493
0.04950000 0.04949480 42011.16844315 0 396.53759766 0 11808.41297259 0 1102.81462426 0 -1773.02244553 0 2644
0.05050000 0.05050630 41639.24905249 0 2034.22966033 0 13798.88480524 0 2255.31076999 0 -5678.60786812 0 2829
0.05150000 0.05149060 39927.13546578 0 1732.43130275 0 12899.36913697 0 -1018.98051690 0 47.91216396 0 2784
0.05250000 0.05249300 38462.70978527 0 2310.29593503 0 15293.42720926 0 -462.98261890 0 -1317.58450877 0 3055
0.05350000 0.05348950 35739.47149612 0 1067.37654145 0 13586.62833846 0 -1355.54043825 0 2265.45301952 0 3009
0.05450000 0.05448610 36767.09396254 0 -541.81646437 0 15932.41107454 0 2153.32358608 0 -2338.45285705 0 3336
0.05550000 0.05550870 37650.33331332 0 -1327.40566088 0 14339.98931913 0 2377.43851273 0 -1373.43331515 0 3349
0.05650000 0.05647670 37951.61127164 0 818.21823052 0 12914.75966847 0 736.01950553 0 -2277.67686612 0 3324
0.05750000 0.05747970 37295.90819588 0 793.79489643 0 11060.22276762 0 1868.26658362 0 -557.97098628 0 3639
0.05850000 0.05849280 36361.18253469 0 1461.10398307 0 11564.37893359 0 582.37881911 0 -446.46271027 0 3846
0.05950000 0.05951020 35543.26990034 0 847.70826044 0 10760.88246615 0 2204.41129279 0 -1040.10097649 0 3787
0.06050000 0.06049470 34999.28658200 0 566.29516008 0 11863.22098044 0 1178.75970019 0 968.10872052 0 3930
0.06150000 0.06148310 34526.16614250 0 121.82325382 0 10539.49133140 0 2199.83842264 0 1909.10131756 0 4083
0.06250000 0.06249100 34073.19733416 0 445.71532834 0 12740.25982933 0 -48.36413625 0 2252.96343712 0 4303
0.06350000 0.06350600 34336.49721835 0 1203.28489967 0 13347.02322939 0 -109.64878979 0 936.04880401 0 4470
0.06450000 0.06451750 31733.39365349 0 1664.85690438 0 14273.44464697 0 -595.11752882 0 4877.71339701 0 4479
0.06550000 0.06550280 31683.78963830 0 1713.20974686 0 15343.47411744 0 -80.06342715 0 3705.18741569 0 4636
0.06650000 0.06648880 30342.59893302 0 288.30230086 0 14792.95812746 0 1506.47837018 0 3577.82246330 0 4653
0.06750000 0.06749660 30781.83805857 0 -192.83450181 0 14860.05641586 0 475.74015155 0 1743.60327849 0 5220
0.06850000 0.06852730 30849.04707022 0 -47.12436804 0 11495.61979646 0 385.16853454 0 -152.83794287 0 5029
0.06950000 0.06949320 30323.99742732 0 480.48021381 0 13600.69019098 0 5.13661757 0 1491.02140473 0 5040
0.07050000 0.07048030 29608.39307429 0 696.13366984 0 12921.84595635 0 -857.05108812 0 -709.52232501 0 5475
0.07150000 0.07148790 28971.40222748 0 1270.65999619 0 13603.23682569 0 711.62717395 0 482.10120216 0 5509
0.07250000 0.07249820 28141.31003582 0 980.65477177 0 12730.95907648 0 1162.05156204 0 835.73686285 0 5916
0.07350000 0.07351270 27690.88786220 0 389.64950439 0 12532.43229248 0 2756.75421637 0 2742.34912178 0 5721
0.07450000 0.07449140 27907.24108916 0 -660.69226532 0 11988.67042064 0 2793.64720267 0 2223.56641473 0 6028
0.07550000 0.07549160 27957.28799734 0 277.28090874 0 11213.71840658 0 2343.77864529 0 3888.55618701 0 6183
0.07650000 0.07648840 27955.18425562 0 -218.08604579 0 10300.15195812 0 1823.18007696 0 3062.70469576 0 6330
0.07750000 0.07749960 27285.41932734 0 672.79320912 0 11121.70738734 0 -314.55810470 0 3516.50392845 0 6583
0.07850000 0.07848650 26096.91598131 0 1753.35799666 0 10348.57123455 0 -1588.96719007 0 4485.89703865 0 6549
0.07950000 0.07947320 25387.95502317 0 1431.87304555 0 11304.51147009 0 314.21707710 0 4398.10457516 0 6828
0.08050000 0.08048110 24054.07205227 0 503.26927275 0 11119.16075263 0 1284.12394317 0 5008.94259076 0 7147
0.08150000 0.08149960 24129.47458428 0 -112.70740879 0 10017.87410919 0 1239.15923208 0 3603.66526943 0 7386
0.08250000 0.08250610 23883.77969656 0 -146.11925617 0 9443.60798247 0 2275.36275023 0 1532.70870767 0 7227
0.08350000 0.08350160 23824.98565177 0 349.22998264 0 7577.48942986 0 333.89149107 0 1229.65917738 0 7798
0.08450000 0.08449610 22867.56172470 0 1257.86038870 0 6672.07221247 0 399.23370875 0 1785.60060653 0 7371
0.08550000 0.08548940 22745.76615170 0 330.97393348 0 5839.32266286 0 -101.39736116 0 1551.27699639 0 8256
0.08650000 0.08650700 22013.55331144 0 95.76741616 0 5960.81928309 0 309.41943875 0 330.44246189 0 8037
0.08750000 0.08749060 22083.41968105 0 201.72668587 0 5808.12085152 0 574.87510458 0 192.91643701 0 8155
0.08850000 0.08849210 21811.59410675 0 586.69924026 0 5572.04781406 0 -307.04442508 0 1027.17071557 0 8718
0.08950000 0.08949900 21915.89540654 0 293.60262275 0 6220.95248238 0 565.92534443 0 1835.63644238 0 8571
0.09050000 0.09049190 21572.21044417 0 -485.91451083 0 6201.40982908 0 722.81686542 0 2090.95318038 0 8932
0.09150000 0.09150830 21941.91536986 0 326.44867433 0 6585.38698146 0 -570.40742152 0 1805.44221260 0 9285
0.09250000 0.09250820 21426.16647981 0 1048.86472158 0 7357.74807151 0 -538.57670213 0 1663.43964680 0 9204
0.09350000 0.09350330 20642.79949889 0 615.69212280 0 7580.23536642 0 -837.55826028 0 1407.50285862 0 9349
0.09450000 0.09448040 20100.47702927 0 378.44431167 0 7243.48167938 0 994.98236009 0 2011.32102028 0 9564
0.09550000 0.09549270 19706.52371223 0 109.94287073 0 6854.04587086 0 1118.79198898 0 313.88380012 0 10155
0.09650000 0.09649430 19746.16263508 0 16.50086423 0 6626.16635377 0 1553.62432925 0 752.49955379 0 9913
0.09750000 0.09749140 19517.29768108 0 89.77750988 0 5618.37442110 0 1660.79336117 0 447.99179832 0 10476
0.09850000 0.09850240 18984.71885730 0 640.50520271 0 4323.01206824 0 719.17739225 0 1796.66185902 0 10575
0.09950000 0.09950330 18397.77491866 0 728.06404015 0 5280.72387576 0 399.28464145 0 1292.43925911 0 10882
0.10050000 0.10051200 17818.58160740 0 836.30819481 0 5108.87032225 0 167.29064845 0 2837.33859640 0 10875
0.10150000 0.10150300 17221.56185318 0 719.06113284 0 5698.01765352 0 -387.75170792 0 2638.51285963 0 11118
0.10250000 0.10250800 16782.43345087 0 518.83917591 0 6086.57874838 0 -301.31338975 0 3033.57340916 0 11575
0.10350000 0.10349800 16512.49017179 0 338.84635643 0 6953.32033519 0 -377.45998200 0 3703.02831235 0 11364
0.10450000 0.10450100 16313.96338779 0 188.33581624 0 6992.68244992 0 45.39830333 0 2703.81743141 0 12093
0.10550000 0.10551000 16231.47456789 0 94.57182653 0 7009.71168549 0 -196.91243904 0 3371.56719658 0 12067
0.10650000 0.10649700 16545.92859274 0 66.16666299 0 7324.58645868 0 252.74131524 0 3390.42336574 0 12054
0.10750000 0.10749900 16462.55398686 0 -55.43270842 0 6861.43111152 0 937.63436092 0 3363.72799061 0 12807
0.10850000 0.10850100 16331.56838426 0 -99.58836473 0 6551.77140331 0 858.19818097 0 2845.58747839 0 12736
0.10950000 0.10950300 16263.03069363 0 134.73026286 0 5681.33166002 0 855.17432907 0 2845.39924887 0 12933
0.11050000 0.11050200 16053.76375456 0 378.10217684 0 5486.06013952 0 971.85227354 0 2358.77057309 0 13428
0.11150000 0.11150900 15464.38390446 0 590.01872324 0 4916.01256856 0 -502.75330241 0 2524.42362470 0 13453
0.11250000 0.11250000 15344.35990342 0 268.98884468 0 4987.87195663 0 35.87488603 0 2870.04624392 0 13668
0.11350000 0.11349100 14844.66588436 0 231.63746414 0 4701.76308331 0 16.09927101 0 1657.40522978 0 13791
0.11450000 0.11448600 14722.87031135 0 399.48726499 0 4942.13218280 0 -664.93850189 0 1463.04163991 0 14205
0.11550000 0.11549300 14466.10309881 0 250.13156828 0 5591.97799873 0 -11.31680175 0 895.25060875 0 14776
0.11650000 0.11649800 14448.38737910 0 170.91462037 0 5315.34703546 0 -24.99211941 0 1597.23821671 0 14553
0.11750000 0.11747300 14502.86321721 0 -27.35163183 0 6064.20157992 0 -15.94315123 0 925.43930236 0 14568
0.11850000 0.11849100 14401.21927537 0 -157.15172062 0 5642.50101688 0 245.66720691 0 1236.12541508 0 16015
0.11950000 0.11950300 14692.42141810 0 45.85171503 0 5610.73451698 0 476.87838654 0 795.27194456 0 15270
0.12050000 0.12050700 14781.99652589 0 -188.79531772 0 5467.77973124 0 41.07079590 0 1150.20417449 0 15999
0.12150000 0.12150000 14819.53170702 0 -146.03510650 0 5294.99610245 0 740.88579229 0 1460.82717495 0 15670
0.12250000 0.12250700 14919.84696988 0 29.22606570 0 4710.45485830 0 435.41474456 0 743.61401312 0 16887
0.12350000 0.12352200 14980.52330988 0 257.13813543 0 4718.01725615 0 594.35464564 0 930.77727016 0 16407
0.12450000 0.12449800 14276.43417467 0 564.61105948 0 4306.04926662 0 95.09466170 0 887.89858507 0 16306
0.12550000 0.12549900 13903.73972127 0 649.83474361 0 4353.88170984 0 235.21714675 0 809.32051029 0 17523
0.12650000 0.12650100 13408.91752513 0 406.20484446 0 4308.28587623 0 -124.07757915 0 922.10321090 0 17154
0.12750000 0.12750600 13162.11540492 0 348.10281997 0 4407.00672432 0 206.16668812 0 667.78851830 0 18007
0.12850000 0.12850300 12632.74755534 0 169.53722316 0 4026.84952399 0 208.80743759 0 959.50441690 0 17496
0.12950000 0.12949900 12642.26975468 0 35.03327862 0 3982.23912730 0 531.48819978 0 557.26014303 0 18405
0.13050000 0.13049000 12801.48978557 0 -201.30261583 0 3631.35715380 0 251.11479072 0 77.43053903 0 18100
0.13150000 0.13148800 12753.65734236 0 -4.26572386 0 3488.15877692 0 469.87957003 0 229.25691430 0 19059
0.13250000 0.13249300 12770.48727608 0 -34.58042053 0 3194.62037365 0 -196.70870826 0 103.77990402 0 18957
0.13350000 0.13349100 12818.20899605 0 239.65936347 0 3386.10515906 0 -121.54090953 0 431.29583973 0 19468
0.13450000 0.13450700 12674.15805016 0 334.08636399 0 3553.92838634 0 -108.85457193 0 628.49394475 0 19953
0.13550000 0.13551000 12451.49359806 0 363.14235877 0 4206.58657278 0 -207.37689323 0 1181.76030022 0 19956
0.13650000 0.13649900 12149.99419325 0 362.31193441 0 4268.38121759 0 68.96220356 0 713.31238179 0 19723
0.13750000 0.13749600 11996.53177126 0 278.71588203 0 4390.47574336 0 44.48594376 0 1041.24696211 0 20946
0.13850000 0.13851100 11829.22894325 0 45.14264335 0 4469.60964884 0 -13.42596891 0 876.46419523 0 20955
0.13950000 0.13949800 11703.66877981 0 -23.66332971 0 4390.09928432 0 145.18364472 0 733.16063126 0 20506
0.14050000 0.14048300 11755.48725996 0 103.87158287 0 4338.66833554 0 355.04295317 0 -163.95123529 0 21447
0.14150000 0.14148400 11711.19796068 0 173.54429751 0 4193.57659111 0 -380.67206343 0 -14.55844629 0 21771
0.14250000 0.14249400 11531.38340563 0 143.23602278 0 4058.43886670 0 -95.37778105 0 -180.45564266 0 22470
0.14350000 0.14350900 11213.27551359 0 141.60617657 0 4112.26143765 0 113.63416238 0 -186.40037386 0 22519
0.14450000 0.14449900 11311.15486498 0 158.98419037 0 3692.55389307 0 520.95066825 0 -386.47396163 0 22218
0.14550000 0.14550500 11027.70334963 0 267.81960718 0 3814.98058859 0 190.53035101 0 -573.87859535 0 23559
0.14650000 0.14650700 10799.70203696 0 365.03019016 0 3347.65097497 0 593.36477980 0 353.45518179 0 23044
0.14750000 0.14750500 10527.15676155 0 193.58520543 0 3224.44921671 0 334.33438406 0 221.35238161 0 23649
0.14850000 0.14849900 10378.76546433 0 13.32321773 0 3078.87029000 0 249.97544850 0 628.83829405 0 23640
0.14950000 0.14949500 10600.66592602 0 -117.82835902 0 3196.33658400 0 435.10693393 0 128.39689306 0 24457
0.15050000 0.15050000 10415.22662996 0 41.37882797 0 2999.75852917 0 83.74342502 0 608.76638362 0 24591
0.15150000 0.15149900 10656.63652798 0 67.77292515 0 2868.70649261 0 -23.00629795 0 773.70084135 0 25020
0.15250000 0.15250500 10404.39789629 0 154.77338524 0 2796.58136874 0 242.18274629 0 757.57510749 0 25297
0.15350000 0.15350100 10314.08094274 0 318.75230134 0 2953.34334353 0 -30.27638643 0 954.32810505 0 25452
0.15450000 0.15450400 10076.57957538 0 342.78699683 0 2989.78236451 0 93.59380808 0 938.76705975 0 26061
0.15550000 0.15549900 9766.63198673 0 253.60163488 0 3202.81389402 0 -1.51776107 0 940.78222287 0 26128
0.15650000 0.15649500 9662.29746997 0 94.47029331 0 2999.90246939 0 -156.33347581 0 816.29496770 0 26331
0.15750000 0.15749700 9547.39995532 0 43.69825858 0 3189.96999723 0 237.40835983 0 962.76632379 0 27345
0.15850000 0.15849900 9584.00506117 0 43.00634900 0 3099.12157209 0 150.98775739 0 591.13813528 0 26980
0.15950000 0.15949700 9466.23981440 0 195.46417895 0 2883.25552743 0 146.21447816 0 531.75393558 0 27777
0.16050000 0.16050000 9360.08943637 0 137.59799499 0 2737.39979259 0 324.04044368 0 701.52921372 0 28224
0.16150000 0.16150500 9164.09821475 0 166.26535117 0 2381.52420059 0 346.43422062 0 446.86020673 0 28075
0.16250000 0.16249700 9140.27057174 0 4.39487146 0 2121.31349503 0 310.17678577 0 585.96735959 0 28590
0.16350000 0.16349900 8987.37283832 0 55.61872348 0 2186.51841589 0 25.88023058 0 213.36037756 0 29163
0.16450000 0.16449100 8926.75185994 0 144.66988885 0 2085.58310284 0 65.16771785 0 514.70034089 0 28996
0.16550000 0.16550500 8763.06968214 0 198.27322776 0 2276.80215246 0 -245.81889776 0 418.77746929 0 30777
0.16650000 0.16650700 8750.39187023 0 106.74606911 0 2572.53287604 0 -193.05041214 0 346.22052475 0 29211
0.16750000 0.16749900 8635.21754746 0 82.29372554 0 2713.01853334 0 -7.09079432 0 330.73477126 0 30922
0.16850000 0.16850800 8594.96964675 0 182.13642157 0 2797.11284034 0 -84.68479408 0 579.25753075 0 30867
0.16950000 0.16949900 8576.01382666 0 6.88282284 0 2667.93202668 0 270.90324964 0 636.63985412 0 30852
0.17050000 0.17049200 8615.97384693 0 10.32874070 0 2611.20850663 0 423.84195066 0 439.03207308 0 31257
0.17150000 0.17149500 8444.52996944 0 1.81319284 0 2174.25027999 0 525.33198718 0 550.48388024 0 32608
0.17250000 0.17250900 8333.98387845 0 243.21247250 0 2148.52926943 0 235.94238403 0 355.33636978 0 32361
0.17350000 0.17350400 8222.10910848 0 129.17638473 0 1795.42175864 0 176.26366049 0 644.99060150 0 32508
0.17450000 0.17449800 8111.36371564 0 38.01361629 0 1846.15515096 0 75.96378816 0 709.19347696 0 32791
0.17550000 0.17549800 8033.71350169 0 48.39812829 0 1614.77677923 0 130.97010135 0 822.62169410 0 33633
0.17650000 0.17650100 8233.35859050 0 -28.14474246 0 1763.14593180 0 12.89726540 0 871.50268648 0 33984
0.17750000 0.17750300 8174.81920918 0 0.42886436 0 1873.06090027 0 -45.54434729 0 964.40281340 0 34069
0.17850000 0.17849800 8131.62607006 0 233.33706600 0 1881.67516898 0 -232.16672126 0 810.90163828 0 34536
