### header ###
fiducial parameters:
Omega_m = 0.31
Omega_nu = 0
Omega_de = 0.69
Omega_k = 0
H_0 = 100
w_de = -1
zeff = 0
beta = 0
fgrowth = 0
b_1 = 2
gamma = 0.55
Lx = 3500 Ly = 3500 Lz = 3500
nx = 700 ny = 700 nz = 700
xoffset = -685.467585 yoffset = -31.7331281 zoffset = 572.489161
bins = 400 dk = 0.001
kx_ny = 0.628318531 ky_ny = 0.628318531 kz_ny = 0.628318531
############################
A(data) = 8.02044182 (not used)
A(ran) = 8.01421915 (used)
Ngal = 476434
weighted Ngal = 0
Nran = 23820508
weighted Nran = 0
SN(data) = 3490.80136
SN(ran) = 69.8067553
SN(data+ran) = 3560.60811
############################
13 columns: k_central k_mean P_0(k) sigma^{lin}_{P_0(k)} P^img_1(k) sigma^{lin}_{P_1(k)} P_2(k) sigma^{lin}_{P_2(k)} P^img_3(k) sigma^{lin}_{P_3(k)} P_4(k) sigma^{lin}_{P_4(k)} N_modes
### header ###
0.00050000 0 0 0 0 0 0 0 0 0 0 0 0
0.00150000 0.00179520 -866.08942687 0 -3816.80752218 0 -938.66962329 0 597.82028331 0 -2146.72448049 0 3
0.00250000 0.00253879 4346.09786549 0 -10161.84754881 0 11026.93935921 0 -14757.41596479 0 15872.17762753 0 6
0.00350000 0.00331552 17007.53381443 0 -19490.72410151 0 14541.39490758 0 -5695.21635534 0 -23799.40858144 0 7
0.00450000 0.00420575 36805.40420641 0 -23629.78056522 0 30849.26851672 0 -21830.74922868 0 691.26295415 0 24
0.00550000 0.00557378 63564.66665837 0 -5475.17604422 0 47287.46338898 0 -39445.60005942 0 492.68523746 0 45
0.00650000 0.00659388 84746.13475969 0 1890.77661998 0 63060.65443263 0 -8988.19219036 0 48111.02290899 0 40
0.00750000 0.00754703 95856.54837571 0 -4685.20995771 0 78551.39047016 0 -25583.60300272 0 14786.75762556 0 57
0.00850000 0.00846663 94905.43567379 0 5014.99915243 0 100283.70673120 0 20040.46502876 0 19943.80363309 0 75
0.00950000 0.00948925 112242.37115158 0 3616.57560016 0 112563.46857132 0 46550.93234204 0 -6676.83331214 0 112
0.01050000 0.01054430 100113.19292900 0 13320.67109632 0 81621.41397262 0 35277.20193494 0 -12433.99932484 0 105
0.01150000 0.01145670 97787.89399383 0 23769.29185793 0 106111.62489950 0 39775.00172277 0 -1415.58565574 0 144
0.01250000 0.01249090 83706.11128948 0 14860.72075535 0 84877.34180879 0 20067.59222456 0 -18305.87462267 0 169
0.01350000 0.01339930 67456.58883213 0 10382.14252340 0 91228.87021776 0 12491.57541390 0 17915.24300307 0 180
0.01450000 0.01448870 65271.46552917 0 923.98772058 0 76582.06677791 0 32947.14190011 0 -8572.95786501 0 267
0.01550000 0.01550050 63052.57163551 0 -11299.08603093 0 53813.49163709 0 28735.45098559 0 25714.69932857 0 238
0.01650000 0.01653350 76658.68726566 0 -16119.42264073 0 44379.87089160 0 41291.24588344 0 -19055.69245939 0 315
0.01750000 0.01747870 80439.33257498 0 -2807.58725961 0 28890.90642605 0 15444.56444303 0 -19272.26713284 0 297
0.01850000 0.01844180 74859.43448263 0 8697.78725501 0 4027.80174393 0 12518.48116321 0 -2673.63427396 0 388
0.01950000 0.01947590 70881.03745204 0 376.42693409 0 -2971.32479903 0 -5830.42051370 0 -12036.61358710 0 399
0.02050000 0.02045430 71418.70954523 0 -1530.13992831 0 -8418.41035519 0 -7814.07179426 0 -10658.47453390 0 462
0.02150000 0.02154770 79174.54091095 0 -82.36447769 0 -378.84291537 0 -20968.76874155 0 -30966.19226680 0 571
0.02250000 0.02255340 70755.36656535 0 3170.18375278 0 985.01394605 0 -18037.70291556 0 -15723.47630522 0 510
0.02350000 0.02348930 75673.47180329 0 956.44513355 0 6856.27140815 0 -12667.18248552 0 -24088.50698245 0 555
0.02450000 0.02439640 73832.69780219 0 -5472.95050693 0 13492.07068451 0 -378.14314444 0 -26036.46108780 0 592
0.02550000 0.02547300 76074.40068498 0 5656.15319338 0 20096.15882259 0 -369.03283558 0 -33349.73163051 0 837
0.02650000 0.02652900 72577.76050725 0 7389.30419725 0 17223.77631814 0 -5683.50183568 0 -23262.06865799 0 723
0.02750000 0.02749970 66324.44361942 0 5653.71728192 0 17629.13412975 0 -310.11588799 0 -6698.52399646 0 826
0.02850000 0.02848090 63465.56935125 0 4625.26439114 0 26206.97489001 0 275.75071345 0 -8497.87643041 0 831
0.02950000 0.02946900 57907.70518528 0 4254.85083666 0 23383.75350775 0 11576.77993738 0 -3906.53764251 0 996
0.03050000 0.03053250 53188.23745458 0 5538.66475473 0 21559.47727063 0 5739.37278672 0 2647.81361248 0 1041
0.03150000 0.03150510 50615.02916673 0 3563.42844103 0 16157.40071486 0 10484.86048074 0 5534.85587499 0 1036
0.03250000 0.03246190 47686.39925219 0 -1113.83158746 0 17717.71272830 0 6943.00092846 0 4278.01414018 0 1059
0.03350000 0.03345080 47810.07712042 0 -1630.75414394 0 17989.87047234 0 3643.33740925 0 9916.34089061 0 1302
0.03450000 0.03451200 51542.88998653 0 -427.90438664 0 16962.02655943 0 -1048.40079117 0 7866.26673346 0 1339
0.03550000 0.03553350 50647.69252494 0 1470.89191821 0 21219.00328245 0 1033.85397083 0 17261.20077603 0 1365
0.03650000 0.03647120 48139.25733728 0 1545.44188121 0 22494.20293182 0 1272.01081982 0 19539.99594695 0 1308
0.03750000 0.03744890 48891.73253195 0 2687.64076485 0 25503.55009428 0 2639.14398215 0 20946.29192217 0 1579
0.03850000 0.03847530 47859.68113561 0 450.17636801 0 26177.74395248 0 1973.44259708 0 13956.22254091 0 1662
0.03950000 0.03950240 46089.21639710 0 770.36364265 0 26014.09499166 0 2282.37153184 0 14372.43123084 0 1683
0.04050000 0.04050350 45675.88651162 0 1982.17866136 0 26757.15871024 0 -1630.89808416 0 13620.06675942 0 1822
0.04150000 0.04152450 45425.31980098 0 1508.84784769 0 24444.03933238 0 -2376.36449723 0 10535.47207749 0 1887
0.04250000 0.04250150 44234.60198998 0 1728.52277209 0 26891.57673354 0 -46.34266191 0 10347.79617181 0 1920
0.04350000 0.04349210 42374.45142045 0 629.46388041 0 22150.51796945 0 3560.89287865 0 3235.55475850 0 2005
0.04450000 0.04448520 42402.24295574 0 -325.51749181 0 22538.49223109 0 5030.27896068 0 -2616.23534210 0 2151
0.04550000 0.04548030 42020.35847275 0 -1138.75539062 0 17525.05427646 0 4286.15229892 0 -4363.33747523 0 2274
0.04650000 0.04648670 44336.57810156 0 -952.36276739 0 17054.14830192 0 3797.69668955 0 -3875.52406070 0 2311
0.04750000 0.04749250 43268.43092631 0 550.72304246 0 14997.02107386 0 1976.78643917 0 -4922.41237230 0 2568
0.04850000 0.04851840 41629.39468340 0 2674.29861345 0 13279.37132475 0 -2011.78605792 0 -1729.69643852 0 2493
0.04950000 0.04949480 39195.58696502 0 2859.78219881 0 14705.92965438 0 665.04368898 0 560.68702756 0 2644
0.05050000 0.05050630 37929.46662200 0 1634.13120301 0 12638.06227125 0 1782.86574230 0 3133.55650228 0 2829
0.05150000 0.05149060 36336.60197359 0 -17.75602297 0 14325.70602011 0 2222.91314757 0 -11.52418639 0 2784
0.05250000 0.05249300 36093.56444382 0 394.95204075 0 12061.74776444 0 3283.70829914 0 1574.25207039 0 3055
0.05350000 0.05348950 36147.81883543 0 521.19425940 0 10530.65561619 0 3249.12942873 0 549.54716156 0 3009
0.05450000 0.05448610 34607.43700666 0 283.51794931 0 8363.29232224 0 2868.98330073 0 -534.55855545 0 3336
0.05550000 0.05550870 35192.72009658 0 -577.93438793 0 5351.61997157 0 229.23034072 0 -996.81150815 0 3349
0.05650000 0.05647670 35338.98550743 0 -220.17982241 0 6328.01079105 0 -547.69033269 0 -3579.38366110 0 3324
0.05750000 0.05747970 34916.24414586 0 1311.51687477 0 6290.49775457 0 -2135.04317781 0 -1968.20538744 0 3639
0.05850000 0.05849280 34406.03141821 0 1149.55090732 0 6276.74592714 0 -1746.93604826 0 -2304.99229145 0 3846
0.05950000 0.05951020 32970.28305898 0 364.61940691 0 8872.65248087 0 -1419.94815172 0 -3319.15081089 0 3787
0.06050000 0.06049470 33328.91565986 0 53.68615990 0 9989.79469345 0 -1775.77945441 0 -1868.20014968 0 3930
0.06150000 0.06148310 34122.24773311 0 476.03024646 0 11877.72572595 0 -766.10190483 0 -466.62652099 0 4083
0.06250000 0.06249100 33689.43055595 0 1134.18252047 0 12593.10863249 0 -548.91603905 0 1466.13081854 0 4303
0.06350000 0.06350600 33316.73610255 0 491.97993036 0 13278.92843175 0 256.36307269 0 2892.04695333 0 4470
0.06450000 0.06451750 32501.14865641 0 387.32542341 0 14782.32869563 0 1156.27180849 0 1847.66098714 0 4479
0.06550000 0.06550280 32173.07567204 0 399.73639230 0 12878.99605930 0 1132.84276917 0 2869.03866236 0 4636
0.06650000 0.06648880 31300.24430658 0 552.93086403 0 12777.68428721 0 1944.95350532 0 211.85454138 0 4653
0.06750000 0.06749660 31021.77533739 0 749.99056499 0 11490.85869679 0 2363.15521372 0 452.40301253 0 5220
0.06850000 0.06852730 30139.53249584 0 301.90133020 0 9275.31971755 0 2495.52485693 0 713.70655656 0 5029
0.06950000 0.06949320 29701.51132602 0 1046.87834651 0 9865.64071526 0 1247.65170521 0 2120.88167436 0 5040
0.07050000 0.07048030 28422.43636297 0 934.63154643 0 8236.93495141 0 1084.74569739 0 1338.45584105 0 5475
0.07150000 0.07148790 27316.64328333 0 1716.47608269 0 8778.65951549 0 399.32007289 0 3300.87040261 0 5509
0.07250000 0.07249820 26967.53288180 0 460.63307157 0 9740.18020274 0 -456.45105449 0 2836.85141411 0 5916
0.07350000 0.07351270 26692.93922630 0 -49.76323522 0 11380.35689510 0 -1210.54834475 0 5349.41657893 0 5721
0.07450000 0.07449140 26682.53124097 0 393.98985572 0 11485.54398088 0 -235.58364070 0 3856.74539781 0 6028
0.07550000 0.07549160 27183.88610875 0 150.57918860 0 12061.63704119 0 5.00644025 0 4167.74485731 0 6183
0.07650000 0.07648840 27246.55546723 0 -848.86753285 0 10663.32421217 0 764.21850238 0 2600.97767850 0 6330
0.07750000 0.07749960 27056.44365009 0 409.31616773 0 10481.14017960 0 406.58019627 0 547.97378420 0 6583
0.07850000 0.07848650 27019.24063870 0 728.95314783 0 9957.81781938 0 15.40592203 0 -120.02400103 0 6549
0.07950000 0.07947320 25985.52839363 0 477.74313511 0 9211.18881220 0 580.35147644 0 -1893.23467609 0 6828
0.08050000 0.08048110 25429.36551799 0 1321.31588223 0 8677.97886591 0 87.37758348 0 -1281.02369222 0 7147
0.08150000 0.08149960 24643.34117912 0 928.66909951 0 7697.41377997 0 394.08397048 0 -3121.15549848 0 7386
0.08250000 0.08250610 23215.01127751 0 241.19177322 0 7479.32219802 0 685.03587867 0 -1175.29406252 0 7227
0.08350000 0.08350160 23103.18079684 0 776.08914182 0 7759.16413549 0 344.52092289 0 -3483.44196654 0 7798
0.08450000 0.08449610 22627.95661563 0 274.47961056 0 7507.53448166 0 202.77523503 0 -3454.14459507 0 7371
0.08550000 0.08548940 22498.18896875 0 203.00443215 0 8094.20161218 0 -576.84930010 0 -1744.22332868 0 8256
0.08650000 0.08650700 22222.48808077 0 302.47598386 0 8053.69904799 0 123.51399782 0 -1869.68384120 0 8037
0.08750000 0.08749060 22544.13911675 0 -120.28530790 0 8648.52648190 0 851.52156911 0 -2020.87643660 0 8155
0.08850000 0.08849210 22034.48000535 0 451.82614441 0 8503.25758028 0 244.69948572 0 -2976.32948985 0 8718
0.08950000 0.08949900 21357.96095893 0 1474.14718170 0 8581.37283187 0 -122.80204733 0 -693.44198767 0 8571
0.09050000 0.09049190 20344.06817528 0 1206.19692109 0 8778.15018855 0 392.44194471 0 -1122.83338753 0 8932
0.09150000 0.09150830 19340.14048398 0 639.14219953 0 8157.54638246 0 1228.97269325 0 -20.28007014 0 9285
0.09250000 0.09250820 19409.78540709 0 -214.21626827 0 7317.38944755 0 1422.70516060 0 -434.58764190 0 9204
0.09350000 0.09350330 18861.92677506 0 100.78904764 0 7092.42195188 0 777.49421984 0 -1264.72523009 0 9349
0.09450000 0.09448040 18992.35876142 0 552.90096875 0 5918.79981041 0 813.64757483 0 53.97592264 0 9564
0.09550000 0.09549270 18290.92698416 0 468.63836241 0 6074.08916599 0 171.79487019 0 -821.79680590 0 10155
0.09650000 0.09649430 17794.00104630 0 550.05316681 0 5238.42759495 0 440.46372468 0 44.09542287 0 9913
0.09750000 0.09749140 17433.37542696 0 149.39887878 0 5432.47008740 0 877.84380690 0 -365.23834986 0 10476
0.09850000 0.09850240 17138.40869379 0 73.88396267 0 4809.14248941 0 586.18659162 0 -387.52583249 0 10575
0.09950000 0.09950330 17319.55192782 0 -53.02004884 0 5313.83012696 0 214.27495159 0 -150.86596182 0 10882
0.10050000 0.10051200 17134.97627310 0 167.43348144 0 5108.57136948 0 -65.35539375 0 351.17096118 0 10875
0.10150000 0.10150300 17282.23819318 0 361.88232821 0 5875.81704546 0 -54.43963161 0 1604.02555183 0 11118
0.10250000 0.10250800 17028.01761535 0 117.01675761 0 5674.89863930 0 473.68844976 0 1400.80410211 0 11575
0.10350000 0.10349800 17055.03408791 0 171.10838605 0 6156.36761171 0 312.35249760 0 1902.83438171 0 11364
0.10450000 0.10450100 16919.39810888 0 336.13031515 0 5910.57307307 0 616.57237262 0 1612.62874821 0 12093
0.10550000 0.10551000 16736.59402612 0 417.65916448 0 6061.02382270 0 -455.31281949 0 1999.17467996 0 12067
0.10650000 0.10649700 15981.24002699 0 293.08775965 0 5013.09471257 0 556.00675586 0 2303.22071948 0 12054
0.10750000 0.10749900 16222.17381505 0 7.26387690 0 5232.60355210 0 764.33919072 0 1659.02178920 0 12807
0.10850000 0.10850100 15896.64746538 0 -28.37283235 0 4218.02428431 0 474.25092386 0 1148.43260251 0 12736
0.10950000 0.10950300 16037.04454408 0 -27.23337940 0 4122.47012113 0 574.55843609 0 -62.37948501 0 12933
0.11050000 0.11050200 15646.08075473 0 130.09649492 0 3838.38748326 0 277.19897353 0 839.43280487 0 13428
0.11150000 0.11150900 15627.14707929 0 198.00638473 0 3256.97970703 0 160.64393186 0 374.71515268 0 13453
0.11250000 0.11250000 15942.48689013 0 -118.78390065 0 4270.06421096 0 -27.32007570 0 487.99389343 0 13668
0.11350000 0.11349100 15762.67233507 0 395.08933757 0 4010.11924119 0 -646.89947030 0 -98.46629534 0 13791
0.11450000 0.11448600 15564.58844407 0 419.60678642 0 4641.20853888 0 -782.04051641 0 528.59278684 0 14205
0.11550000 0.11549300 15287.44815386 0 156.84944615 0 5478.26522285 0 -932.96959047 0 467.44919473 0 14776
0.11650000 0.11649800 15198.31593907 0 506.58321957 0 5833.00036539 0 -475.43566262 0 -125.86354514 0 14553
0.11750000 0.11747300 14887.62650466 0 508.59284652 0 6392.86139752 0 -251.47021235 0 -320.86047199 0 14568
0.11850000 0.11849100 14411.40581421 0 477.91364891 0 6251.83319630 0 -21.32419037 0 113.47582814 0 16015
0.11950000 0.11950300 14040.04003979 0 156.96127663 0 5731.21248333 0 515.74224666 0 128.67813011 0 15270
0.12050000 0.12050700 13964.63750777 0 190.50931360 0 5857.76915601 0 735.08721578 0 -216.58574578 0 15999
0.12150000 0.12150000 13850.26039240 0 139.95197124 0 5628.67168318 0 592.19332783 0 284.95070814 0 15670
0.12250000 0.12250700 13711.74560892 0 242.32225759 0 5678.38642162 0 194.21964964 0 574.41560310 0 16887
0.12350000 0.12352200 13540.78891372 0 20.40585175 0 5647.41712910 0 371.33366468 0 838.25803121 0 16407
0.12450000 0.12449800 13487.42030809 0 91.18325224 0 5468.12297331 0 632.65492442 0 1325.92196936 0 16306
0.12550000 0.12549900 13596.15053781 0 6.81897982 0 5269.75120186 0 603.04531339 0 1747.24607336 0 17523
0.12650000 0.12650100 13608.10864861 0 -179.22440014 0 4885.32008416 0 779.04545254 0 981.45308639 0 17154
0.12750000 0.12750600 13703.88425829 0 83.12315339 0 4429.89321972 0 484.98332831 0 1803.01737347 0 18007
0.12850000 0.12850300 13379.79731085 0 232.71812304 0 4321.98234204 0 525.41170792 0 1716.78610778 0 17496
0.12950000 0.12949900 13155.69345652 0 262.81491636 0 3939.41137490 0 510.15847325 0 1999.79473015 0 18405
0.13050000 0.13049000 13104.53931586 0 71.76372319 0 3687.89244432 0 419.17275129 0 1751.01066380 0 18100
0.13150000 0.13148800 12878.88533606 0 41.39975467 0 3602.51374764 0 399.22485089 0 1289.30579118 0 19059
0.13250000 0.13249300 12909.11278281 0 241.69334954 0 3340.36538524 0 -157.59018468 0 1437.15454449 0 18957
0.13350000 0.13349100 12664.19295782 0 161.17651069 0 3827.42588169 0 -658.87861852 0 1469.14249089 0 19468
0.13450000 0.13450700 12449.83274933 0 266.94821522 0 3769.30724871 0 -168.01477850 0 1267.63725151 0 19953
0.13550000 0.13551000 12469.65221076 0 182.09766843 0 3855.95926274 0 -54.06992668 0 1082.98630498 0 19956
0.13650000 0.13649900 12069.83056156 0 273.66911638 0 3757.86953717 0 160.70925858 0 831.25478576 0 19723
0.13750000 0.13749600 11977.59809582 0 278.54204653 0 3677.13014460 0 398.09104483 0 1322.34560844 0 20946
0.13850000 0.13851100 11682.74208590 0 10.25382535 0 3492.15588618 0 505.38408679 0 928.32142852 0 20955
0.13950000 0.13949800 11701.23286835 0 130.77744290 0 3312.04237835 0 611.03621021 0 888.82090972 0 20506
0.14050000 0.14048300 11578.66223260 0 155.53737566 0 2991.62037043 0 97.22209820 0 833.59215353 0 21447
0.14150000 0.14148400 11393.86513138 0 340.38208788 0 3236.66199099 0 -67.18432036 0 893.28416386 0 21771
0.14250000 0.14249400 11113.07097398 0 247.71115808 0 3193.43563489 0 -235.78847871 0 785.60801946 0 22470
0.14350000 0.14350900 10921.86299669 0 134.20211296 0 3109.34132790 0 -145.47041793 0 617.46148030 0 22519
0.14450000 0.14449900 11000.88617892 0 115.12117560 0 3368.52230725 0 108.99906577 0 691.68038079 0 22218
0.14550000 0.14550500 10840.13816720 0 -149.80301863 0 3289.74271617 0 260.53291022 0 400.77497637 0 23559
0.14650000 0.14650700 11025.53317396 0 44.92750808 0 3180.34814696 0 253.28275192 0 617.59324097 0 23044
0.14750000 0.14750500 10891.22587391 0 110.01694459 0 2969.64180566 0 346.51837029 0 228.87381186 0 23649
0.14850000 0.14849900 10738.33921282 0 228.71769208 0 2815.67005673 0 316.16912796 0 636.05855707 0 23640
0.14950000 0.14949500 10567.62610876 0 266.00374591 0 2833.71794619 0 130.77855013 0 656.44713599 0 24457
0.15050000 0.15050000 10397.97594789 0 212.51223748 0 2777.95771840 0 45.57833933 0 686.61147049 0 24591
0.15150000 0.15149900 10227.59501358 0 99.10151461 0 2659.89351886 0 45.61421366 0 731.12775242 0 25020
0.15250000 0.15250500 10000.97774152 0 172.11043145 0 2506.96256846 0 -89.46261296 0 527.42797827 0 25297
0.15350000 0.15350100 10007.21146039 0 134.16668152 0 2449.37540708 0 32.55053123 0 356.95625090 0 25452
0.15450000 0.15450400 9834.13995115 0 87.61818509 0 2597.64490873 0 282.11287129 0 187.69694309 0 26061
0.15550000 0.15549900 9804.22252949 0 179.74147771 0 2187.64779302 0 -176.81395503 0 -172.95082090 0 26128
0.15650000 0.15649500 9659.04220647 0 63.14768291 0 2315.37813213 0 -90.62376767 0 -233.52197382 0 26331
0.15750000 0.15749700 9668.08829585 0 203.92564958 0 2539.50413111 0 -373.38979539 0 -288.31115872 0 27345
0.15850000 0.15849900 9431.35091890 0 221.70891047 0 2744.28677863 0 -180.97604193 0 -305.05472831 0 26980
0.15950000 0.15949700 9397.17065218 0 135.81977962 0 2780.90295680 0 -151.64766795 0 -288.25801156 0 27777
0.16050000 0.16050000 9326.41849659 0 147.45900747 0 3102.69793301 0 -3.25090100 0 -468.30508544 0 28224
0.16150000 0.16150500 9215.26342774 0 203.98654737 0 3082.66809741 0 191.91439162 0 -43.61211589 0 28075
0.16250000 0.16249700 9037.05435978 0 121.40250547 0 2914.08087972 0 323.10593946 0 66.29266605 0 28590
0.16350000 0.16349900 8820.90043467 0 110.43215677 0 2827.63923986 0 638.05046830 0 453.60989594 0 29163
0.16450000 0.16449100 8928.13590054 0 71.35017185 0 2631.73659684 0 393.34544641 0 84.19894047 0 28996
0.16550000 0.16550500 8791.73593110 0 33.30809969 0 2766.99611683 0 108.99197948 0 192.15576830 0 30777
0.16650000 0.16650700 8784.89323436 0 118.54030951 0 2857.60095082 0 -204.83690191 0 654.99776867 0 29211
0.16750000 0.16749900 8669.82963485 0 215.48294223 0 2939.77974562 0 -366.94791681 0 405.44860467 0 30922
0.16850000 0.16850800 8619.87130527 0 111.08420598 0 3041.42368746 0 -93.80872190 0 956.51710367 0 30867
0.16950000 0.16949900 8638.27350911 0 124.54150956 0 3240.71446187 0 -89.36894109 0 771.02244598 0 30852
0.17050000 0.17049200 8552.78408919 0 37.58223852 0 3206.82207560 0 138.32987566 0 917.97544820 0 31257
0.17150000 0.17149500 8481.10185831 0 68.02869586 0 3199.56970284 0 240.64812207 0 935.19844946 0 32608
0.17250000 0.17250900 8309.12650923 0 158.83249952 0 2895.32436148 0 119.38402066 0 552.57101347 0 32361
0.17350000 0.17350400 8360.09242037 0 55.91645829 0 3007.89668791 0 139.52236504 0 563.03768212 0 32508
0.17450000 0.17449800 8221.56656456 0 66.12624901 0 2666.62549235 0 -43.64765805 0 159.68728300 0 32791
0.17550000 0.17549800 8191.95916800 0 69.25440221 0 2490.05512847 0 53.76067665 0 159.75260972 0 33633
0.17650000 0.17650100 8124.70586705 0 80.39725774 0 2605.49518702 0 78.65225935 0 -78.80693973 0 33984
0.17750000 0.17750300 8057.15361333 0 86.85607698 0 2478.57312763 0 111.80944325 0 165.69512645 0 34069
0.17850000 0.17849800 7944.79166107 0 131.87913922 0 2472.91516965 0 416.67704927 0 133.09820218 0 34536
