### header ###
fiducial parameters:
Omega_m = 0.31
Omega_nu = 0
Omega_de = 0.69
Omega_k = 0
H_0 = 100
w_de = -1
zeff = 0
beta = 0
fgrowth = 0
b_1 = 2
gamma = 0.55
Lx = 3500 Ly = 3500 Lz = 3500
nx = 700 ny = 700 nz = 700
xoffset = -685.467585 yoffset = -31.7331281 zoffset = 572.489161
bins = 400 dk = 0.001
kx_ny = 0.628318531 ky_ny = 0.628318531 kz_ny = 0.628318531
############################
A(data) = 8.01342033 (not used)
A(ran) = 8.01897138 (used)
Ngal = 476827
weighted Ngal = 0
Nran = 23820508
weighted Nran = 0
SN(data) = 3479.72758
SN(ran) = 69.848149
SN(data+ran) = 3549.57573
############################
13 columns: k_central k_mean P_0(k) sigma^{lin}_{P_0(k)} P^img_1(k) sigma^{lin}_{P_1(k)} P_2(k) sigma^{lin}_{P_2(k)} P^img_3(k) sigma^{lin}_{P_3(k)} P_4(k) sigma^{lin}_{P_4(k)} N_modes
### header ###
0.00050000 0 0 0 0 0 0 0 0 0 0 0 0
0.00150000 0.00179520 29890.73735717 0 -35717.65901623 0 -9440.46344222 0 -2766.53107919 0 -121891.90223103 0 3
0.00250000 0.00253879 61092.99158911 0 -41120.06774174 0 -36779.71641283 0 30507.13367982 0 96311.17803277 0 6
0.00350000 0.00331552 74855.78061544 0 -22530.63088047 0 2535.20806908 0 -44223.19749542 0 -5265.67658633 0 7
0.00450000 0.00420575 81912.17322236 0 1894.66300599 0 -21107.17280179 0 -29545.94516232 0 -10009.63629953 0 24
0.00550000 0.00557378 74298.17833757 0 10191.67639187 0 -9694.83903261 0 -3336.78902432 0 893.68387478 0 45
0.00650000 0.00659388 64111.41805792 0 -4178.57359098 0 -23269.59783887 0 -42559.24852167 0 -11589.51311093 0 40
0.00750000 0.00754703 67516.26866290 0 2071.93092634 0 6590.22558741 0 -3037.37121658 0 38153.90264608 0 57
0.00850000 0.00846663 70814.16061013 0 -4822.93860613 0 2592.08660167 0 -8544.40233930 0 11210.95032538 0 75
0.00950000 0.00948925 81085.51345140 0 -12542.06521507 0 19095.33138224 0 2739.23779851 0 39786.18477084 0 112
0.01050000 0.01054430 94244.86077511 0 5641.98061761 0 39077.00236621 0 -6142.67114591 0 26242.51705267 0 105
0.01150000 0.01145670 79091.16630507 0 10922.99237382 0 25928.39519757 0 5969.17888833 0 30316.68969294 0 144
0.01250000 0.01249090 82429.36151464 0 4303.29225774 0 45091.93210069 0 18304.32449719 0 30456.42243215 0 169
0.01350000 0.01339930 72446.77490464 0 -2226.13519409 0 29508.29925793 0 20574.81542450 0 9941.55257422 0 180
0.01450000 0.01448870 84955.06952902 0 -2408.44102223 0 37108.12156696 0 9809.69225795 0 -8442.50373400 0 267
0.01550000 0.01550050 76925.86246353 0 3299.98461662 0 18103.02963199 0 -28589.51774448 0 -4533.56339699 0 238
0.01650000 0.01653350 79887.82007577 0 10236.78504318 0 34467.26137446 0 -17997.39965322 0 -11742.53263992 0 315
0.01750000 0.01747870 73964.01557454 0 5076.97095444 0 31110.13248945 0 -20959.80015845 0 -5172.24830951 0 297
0.01850000 0.01844180 69926.38160618 0 -778.74760700 0 39373.96211784 0 7186.69172539 0 -30415.89772332 0 388
0.01950000 0.01947590 80020.46652709 0 -10577.40297158 0 35033.61078893 0 1679.17342037 0 -36389.74913272 0 399
0.02050000 0.02045430 82798.06993110 0 -5581.31534993 0 40963.61579206 0 -418.98895069 0 -50176.78655040 0 462
0.02150000 0.02154770 89665.79012311 0 6658.42003597 0 39358.12869335 0 -3311.02372447 0 -36319.10770038 0 571
0.02250000 0.02255340 74662.45782410 0 8707.03264624 0 34112.06119428 0 4412.24393396 0 -23365.37344855 0 510
0.02350000 0.02348930 78267.27461531 0 4064.07468003 0 35663.73679436 0 11736.11069152 0 -17064.33484075 0 555
0.02450000 0.02439640 73941.87092491 0 -7125.87144516 0 25339.56896371 0 9860.23742075 0 -14472.74649370 0 592
0.02550000 0.02547300 72507.11907491 0 4564.59912346 0 20504.72760840 0 16094.06701690 0 -18334.77339044 0 837
0.02650000 0.02652900 71922.05743149 0 4376.17029970 0 15535.02533680 0 9787.34830647 0 1367.33246418 0 723
0.02750000 0.02749970 66356.55336140 0 -2415.06227247 0 9008.89743777 0 12139.14331492 0 8372.46020719 0 826
0.02850000 0.02848090 70807.18504550 0 -1774.15182267 0 13228.88152357 0 1421.22146907 0 8743.75954766 0 831
0.02950000 0.02946900 68542.67317359 0 5330.92579648 0 11460.63125004 0 -6350.31045324 0 5811.94080358 0 996
0.03050000 0.03053250 70115.82908382 0 7295.03442374 0 28846.83857327 0 -6267.86592264 0 24671.02199116 0 1041
0.03150000 0.03150510 58111.21451545 0 3121.73125937 0 21068.97328116 0 -2705.44506316 0 24306.18888839 0 1036
0.03250000 0.03246190 60627.62177698 0 4116.52428270 0 33540.50778714 0 8647.78463613 0 21395.27469357 0 1059
0.03350000 0.03345080 58094.93819796 0 -1435.22795997 0 20270.32649199 0 10612.19221616 0 15222.01071418 0 1302
0.03450000 0.03451200 57714.16094745 0 -903.50502690 0 24434.62785629 0 10129.68244521 0 12112.79118185 0 1339
0.03550000 0.03553350 55856.66773587 0 2633.06527582 0 12656.77450019 0 968.90149898 0 8862.59880994 0 1365
0.03650000 0.03647120 55388.08694955 0 2952.60149776 0 14831.60054107 0 -274.50507690 0 6957.14028725 0 1308
0.03750000 0.03744890 51001.78547264 0 1551.97455286 0 12236.46905008 0 -3358.76758909 0 7801.56006722 0 1579
0.03850000 0.03847530 52079.56557049 0 359.94134967 0 14948.96718415 0 -49.82745470 0 2505.67817878 0 1662
0.03950000 0.03950240 51325.76169684 0 484.65005133 0 17342.91453319 0 2087.44325341 0 3021.08382677 0 1683
0.04050000 0.04050350 49405.70985003 0 2426.84322608 0 18701.82095818 0 3492.38840500 0 118.78279342 0 1822
0.04150000 0.04152450 48051.12163172 0 2370.23042928 0 17537.56600350 0 146.28755550 0 3063.91157917 0 1887
0.04250000 0.04250150 45445.36070890 0 2732.40617410 0 19120.35483633 0 1471.87735512 0 7262.03889578 0 1920
0.04350000 0.04349210 43796.69154340 0 1865.16633268 0 18239.88356675 0 -349.50014737 0 6036.52076788 0 2005
0.04450000 0.04448520 42780.80574129 0 -92.51492075 0 16814.54319284 0 2795.64022114 0 8046.02592689 0 2151
0.04550000 0.04548030 42849.67560166 0 337.48003154 0 18070.14482728 0 4226.41710653 0 4028.67645759 0 2274
0.04650000 0.04648670 42941.24372792 0 874.12129130 0 16171.68401387 0 -92.74378570 0 3410.03245300 0 2311
0.04750000 0.04749250 41564.73230646 0 608.99668798 0 14652.45032551 0 1596.31921375 0 3856.65681921 0 2568
0.04850000 0.04851840 41840.21174795 0 725.01029296 0 13500.70709787 0 1409.32979222 0 4735.23472124 0 2493
0.04950000 0.04949480 41203.22090113 0 824.11535072 0 13397.18086082 0 1256.89709644 0 5837.60645251 0 2644
0.05050000 0.05050630 39690.07699142 0 248.90032576 0 12789.19950503 0 2718.88686549 0 2264.91047560 0 2829
0.05150000 0.05149060 40089.78791737 0 44.39725444 0 10781.32197776 0 3414.97070987 0 5354.76451182 0 2784
0.05250000 0.05249300 39192.81888381 0 890.20827202 0 9621.75061648 0 3283.95189029 0 5013.24972511 0 3055
0.05350000 0.05348950 38558.15322521 0 63.46889105 0 10179.15359250 0 2318.56696167 0 3897.39190221 0 3009
0.05450000 0.05448610 37912.08307204 0 734.85137526 0 8261.59301878 0 -379.84385353 0 1708.30470697 0 3336
0.05550000 0.05550870 36173.94952201 0 1426.61369126 0 10783.49215343 0 -872.02862190 0 4977.94008127 0 3349
0.05650000 0.05647670 36024.58386020 0 799.53478962 0 9211.54312660 0 980.20744985 0 4597.28462633 0 3324
0.05750000 0.05747970 35501.97012876 0 619.36592017 0 9062.79751499 0 -289.98197254 0 6209.49262619 0 3639
0.05850000 0.05849280 36527.04596047 0 -456.72454091 0 9278.67463197 0 -516.23828681 0 3323.64617476 0 3846
0.05950000 0.05951020 34969.94492123 0 542.79415065 0 9015.82871310 0 -285.39027943 0 816.11891773 0 3787
0.06050000 0.06049470 35958.26063454 0 1938.66442482 0 10687.08542123 0 -3352.47850859 0 2365.97865655 0 3930
0.06150000 0.06148310 34030.23671387 0 562.00684868 0 13721.59997800 0 -1925.25583947 0 -175.83848321 0 4083
0.06250000 0.06249100 33454.47582330 0 1293.45791299 0 13465.71855144 0 -1466.58478385 0 244.12372483 0 4303
0.06350000 0.06350600 33416.27630267 0 852.95211347 0 13824.57259882 0 221.08996751 0 -1227.43364010 0 4470
0.06450000 0.06451750 33175.45323787 0 -95.19852011 0 13932.41704255 0 1486.21601576 0 -788.88764207 0 4479
0.06550000 0.06550280 33020.44069041 0 -141.95606203 0 15115.27350293 0 1279.54000069 0 -2586.25148649 0 4636
0.06650000 0.06648880 32654.61107840 0 569.40869782 0 12591.44778376 0 1452.67794388 0 -1838.84741658 0 4653
0.06750000 0.06749660 31877.55532263 0 1756.20358414 0 14613.47574215 0 845.91565105 0 -567.15547972 0 5220
0.06850000 0.06852730 30165.77390566 0 1602.56400495 0 12812.45138714 0 839.78711927 0 2453.56074586 0 5029
0.06950000 0.06949320 29696.30733335 0 1225.49598325 0 14225.39075725 0 3363.47332713 0 5987.44822428 0 5040
0.07050000 0.07048030 28573.68431999 0 397.45106446 0 12348.74242374 0 2917.38043252 0 3902.61803953 0 5475
0.07150000 0.07148790 28338.39741760 0 -185.82239850 0 10713.00573363 0 3423.09779628 0 5518.73457006 0 5509
0.07250000 0.07249820 27776.58765630 0 492.08068852 0 10490.38557083 0 1133.72855516 0 3114.27958477 0 5916
0.07350000 0.07351270 27605.40951460 0 244.91871776 0 10291.74806358 0 436.22966767 0 5369.40212523 0 5721
0.07450000 0.07449140 27215.22078799 0 724.09682617 0 9678.78416162 0 -659.33590553 0 3969.93777443 0 6028
0.07550000 0.07549160 26806.98417193 0 661.50275950 0 8369.43746252 0 108.07109422 0 3386.11623139 0 6183
0.07650000 0.07648840 26094.36934660 0 -226.18766586 0 8934.51355964 0 633.08674509 0 2293.28884411 0 6330
0.07750000 0.07749960 25822.43304905 0 425.27360226 0 8164.18977735 0 218.19898350 0 1679.39486687 0 6583
0.07850000 0.07848650 25418.62536292 0 860.21777302 0 8367.58838427 0 785.02450794 0 320.35889568 0 6549
0.07950000 0.07947320 24397.53556814 0 864.57805453 0 7562.71894856 0 409.35049194 0 745.17742539 0 6828
0.08050000 0.08048110 24266.66068879 0 711.67699942 0 7575.44104977 0 147.37375057 0 1054.40199122 0 7147
0.08150000 0.08149960 23342.78590592 0 -526.57098033 0 6474.69695025 0 652.74565780 0 966.90072988 0 7386
0.08250000 0.08250610 24389.89566402 0 -117.22713178 0 7019.18959553 0 894.61395007 0 -100.34781549 0 7227
0.08350000 0.08350160 23959.18222857 0 480.47467765 0 6671.16428183 0 126.11710138 0 -173.43357426 0 7798
0.08450000 0.08449610 23402.90862968 0 677.67721160 0 7040.10521712 0 -169.56268951 0 250.01752333 0 7371
0.08550000 0.08548940 23065.86706220 0 559.41260297 0 7432.76307216 0 -19.61152317 0 1718.46910115 0 8256
0.08650000 0.08650700 22947.06101690 0 295.58789059 0 7450.04697120 0 80.53831916 0 203.39971415 0 8037
0.08750000 0.08749060 22547.57153744 0 168.00149171 0 8090.63632358 0 290.11373320 0 796.58069336 0 8155
0.08850000 0.08849210 22440.50215645 0 406.61119878 0 7870.82853128 0 -164.01102584 0 1619.46037262 0 8718
0.08950000 0.08949900 22373.07169830 0 57.70463875 0 8199.11188983 0 386.52378709 0 1340.40457022 0 8571
0.09050000 0.09049190 22017.76079487 0 546.65949925 0 6753.65310173 0 1255.80093628 0 627.54615375 0 8932
0.09150000 0.09150830 21619.04637815 0 484.50278941 0 7639.19549608 0 -51.70055989 0 22.31815297 0 9285
0.09250000 0.09250820 20971.09392976 0 1134.83578764 0 7384.12234923 0 -202.82727496 0 773.27787854 0 9204
0.09350000 0.09350330 20273.64818944 0 743.72805807 0 8239.09405475 0 -1351.93086036 0 -905.53236957 0 9349
0.09450000 0.09448040 19867.07242210 0 359.22275579 0 8818.47559554 0 -267.10322776 0 899.99399270 0 9564
0.09550000 0.09549270 19664.55960116 0 218.80131797 0 9260.68210414 0 -602.31896888 0 -166.28085243 0 10155
0.09650000 0.09649430 19614.06979999 0 648.17721658 0 9641.94653695 0 110.09489375 0 12.34719230 0 9913
0.09750000 0.09749140 19135.19175158 0 319.86949892 0 9499.94397115 0 834.67391966 0 416.45117385 0 10476
0.09850000 0.09850240 18634.72266978 0 195.81517165 0 8719.19005889 0 1034.59581659 0 1333.91618788 0 10575
0.09950000 0.09950330 18560.31664700 0 19.54663934 0 8193.70859532 0 1458.47984209 0 686.72440820 0 10882
0.10050000 0.10051200 18339.20232037 0 117.70102729 0 7749.28762175 0 1353.65814303 0 588.75869267 0 10875
0.10150000 0.10150300 17652.49673512 0 579.29185495 0 6759.38856599 0 1460.31784801 0 763.39582864 0 11118
0.10250000 0.10250800 17408.68414261 0 639.25735171 0 6159.14676524 0 278.64501915 0 1274.47994825 0 11575
0.10350000 0.10349800 16866.47239624 0 178.49141224 0 5674.67719280 0 637.59871745 0 1666.46239148 0 11364
0.10450000 0.10450100 16654.65882246 0 187.46885320 0 5340.66944233 0 627.77756534 0 1029.78821315 0 12093
0.10550000 0.10551000 16570.06626085 0 140.06490896 0 5039.34719471 0 332.93705667 0 1128.43598389 0 12067
0.10650000 0.10649700 16425.35097547 0 165.80031353 0 4892.92677131 0 135.41674700 0 -218.99397643 0 12054
0.10750000 0.10749900 16466.42930055 0 58.89546728 0 5277.56826318 0 -699.33135724 0 419.08417269 0 12807
0.10850000 0.10850100 16250.96185958 0 396.38147788 0 5296.65695117 0 -1133.57354261 0 -300.50400281 0 12736
0.10950000 0.10950300 16160.39024256 0 643.51466060 0 5863.60427118 0 -818.24037517 0 486.53234655 0 12933
0.11050000 0.11050200 15753.37158223 0 -105.43765249 0 5702.38014950 0 243.61993405 0 -146.51343093 0 13428
0.11150000 0.11150900 15974.04301586 0 -257.87998119 0 5775.12532356 0 892.90770482 0 -330.53436218 0 13453
0.11250000 0.11250000 16083.10541532 0 107.68101622 0 5467.65793567 0 1625.68301917 0 -778.17516781 0 13668
0.11350000 0.11349100 15687.60197280 0 426.89237615 0 4887.71170632 0 729.08269403 0 -677.05162524 0 13791
0.11450000 0.11448600 15329.96588116 0 477.53940434 0 4232.72833167 0 352.03017359 0 -142.09003717 0 14205
0.11550000 0.11549300 14938.00558258 0 156.05777492 0 3949.04429749 0 356.37495385 0 112.06853565 0 14776
0.11650000 0.11649800 14626.98397842 0 58.36864607 0 3820.41710008 0 103.00340188 0 204.80589940 0 14553
0.11750000 0.11747300 14702.60795694 0 16.81830778 0 3991.26307203 0 222.32785343 0 132.97972830 0 14568
0.11850000 0.11849100 14780.88929340 0 -163.89698090 0 3905.99509860 0 511.92340183 0 194.51417348 0 16015
0.11950000 0.11950300 14786.53617906 0 70.34391898 0 3813.20901662 0 -194.01813333 0 90.47550924 0 15270
0.12050000 0.12050700 14631.30218510 0 518.63544513 0 3946.70803696 0 -98.83566809 0 -306.85176663 0 15999
0.12150000 0.12150000 14399.89059639 0 210.01874993 0 4343.85018355 0 -486.99074080 0 13.91890881 0 15670
0.12250000 0.12250700 14121.08945746 0 327.20380688 0 4436.71377181 0 -66.14540413 0 312.55290668 0 16887
0.12350000 0.12352200 13904.07189102 0 309.05958820 0 4525.72419102 0 -118.17160109 0 342.65302170 0 16407
0.12450000 0.12449800 13728.90771238 0 150.36992166 0 4458.06121406 0 362.36840327 0 -55.74151556 0 16306
0.12550000 0.12549900 13673.98898128 0 226.76010505 0 4552.74066358 0 -44.71104413 0 -201.99242167 0 17523
0.12650000 0.12650100 13378.69007837 0 312.69684690 0 4647.17652196 0 400.75836788 0 -159.49683901 0 17154
0.12750000 0.12750600 12994.14823742 0 252.20652195 0 4520.11052234 0 -21.15854839 0 250.97306497 0 18007
0.12850000 0.12850300 13047.18467330 0 213.72797874 0 4616.52832686 0 522.77095845 0 -42.87724569 0 17496
0.12950000 0.12949900 12865.59854627 0 131.15390194 0 4008.55804339 0 177.26349142 0 232.41474134 0 18405
0.13050000 0.13049000 12870.35964595 0 -26.06115237 0 4257.00994000 0 294.09866290 0 299.82526930 0 18100
0.13150000 0.13148800 12762.84737196 0 14.70072566 0 3275.73622527 0 560.15555597 0 -244.61201436 0 19059
0.13250000 0.13249300 12657.77100943 0 129.41886864 0 3273.62141123 0 4.83716654 0 -277.01406571 0 18957
0.13350000 0.13349100 12682.01940078 0 87.20574099 0 3236.87236516 0 -263.49475710 0 -847.54881896 0 19468
0.13450000 0.13450700 12528.99987179 0 96.82736982 0 3454.91965781 0 -1.28623876 0 -428.33288561 0 19953
0.13550000 0.13551000 12438.98187101 0 194.71015363 0 2883.00086395 0 -24.56804937 0 -639.07576558 0 19956
0.13650000 0.13649900 12247.65209815 0 63.24910540 0 2864.84225125 0 353.11415419 0 -1103.07482390 0 19723
0.13750000 0.13749600 12113.45552134 0 339.99898544 0 3113.64846225 0 217.92438985 0 -855.28726678 0 20946
0.13850000 0.13851100 11792.80099460 0 487.47238693 0 2961.63651482 0 -115.34262210 0 -795.45906685 0 20955
0.13950000 0.13949800 11516.43576712 0 314.76515718 0 3036.16433317 0 -35.65952931 0 -103.92450858 0 20506
0.14050000 0.14048300 11272.40172812 0 26.59948880 0 2546.43540644 0 573.47556273 0 34.42961547 0 21447
0.14150000 0.14148400 11366.84865882 0 -225.00957050 0 2911.70032988 0 681.41965738 0 460.85562530 0 21771
0.14250000 0.14249400 11536.36595180 0 38.71084058 0 2631.24941455 0 307.54821586 0 282.22580900 0 22470
0.14350000 0.14350900 11281.14886473 0 307.65561741 0 2768.09227699 0 38.04794050 0 425.59580691 0 22519
0.14450000 0.14449900 11149.27747614 0 349.61529954 0 2813.46666409 0 -406.36428594 0 654.94129981 0 22218
0.14550000 0.14550500 10823.19751023 0 340.87702080 0 2993.83483539 0 -186.64839393 0 803.56290139 0 23559
0.14650000 0.14650700 10807.76268943 0 76.47056847 0 3031.00462981 0 -174.37140017 0 783.75783399 0 23044
0.14750000 0.14750500 10590.35759162 0 14.22716233 0 3046.63875245 0 183.57471656 0 273.82634339 0 23649
0.14850000 0.14849900 10553.77463041 0 184.06411332 0 2847.74658173 0 -7.32093259 0 -42.13218895 0 23640
0.14950000 0.14949500 10387.88905998 0 218.13919295 0 2774.39242981 0 391.79199924 0 79.05042015 0 24457
0.15050000 0.15050000 10343.57761606 0 57.08746736 0 2764.22803562 0 -73.07180764 0 -123.97571376 0 24591
0.15150000 0.15149900 10128.77451458 0 108.20429429 0 2744.16498305 0 288.85702433 0 -28.91050444 0 25020
0.15250000 0.15250500 10138.77282389 0 189.96234075 0 2893.59707881 0 43.18627428 0 125.21249244 0 25297
0.15350000 0.15350100 9794.54531760 0 377.79879514 0 2960.16389562 0 13.44457041 0 402.16123144 0 25452
0.15450000 0.15450400 9654.41397470 0 295.67093303 0 3242.99536078 0 -35.55711031 0 755.01961492 0 26061
0.15550000 0.15549900 9531.11256551 0 18.05043609 0 2972.73098428 0 424.78863443 0 891.25792842 0 26128
0.15650000 0.15649500 9574.38321091 0 -156.24046828 0 3075.51537558 0 208.70667944 0 1125.61254106 0 26331
0.15750000 0.15749700 9606.39330196 0 23.69333571 0 2960.92788603 0 137.39315698 0 1220.74595591 0 27345
0.15850000 0.15849900 9775.05802592 0 55.23606393 0 2782.47522693 0 326.80188149 0 1102.62528751 0 26980
0.15950000 0.15949700 9564.35168462 0 88.85950343 0 2683.46649840 0 -122.25728895 0 930.62668654 0 27777
0.16050000 0.16050000 9477.78824919 0 248.65452015 0 2818.47135491 0 -24.22558236 0 902.31253752 0 28224
0.16150000 0.16150500 9363.74330356 0 184.67530565 0 2705.01324249 0 -273.69236826 0 546.17563865 0 28075
0.16250000 0.16249700 9195.07857959 0 50.49334432 0 2753.93077354 0 25.78379064 0 603.01984704 0 28590
0.16350000 0.16349900 9133.45001965 0 68.82612469 0 2620.38746391 0 57.03133068 0 17.11061716 0 29163
0.16450000 0.16449100 9129.26468087 0 91.09157339 0 2549.83461016 0 -44.51816423 0 -174.25735523 0 28996
0.16550000 0.16550500 9003.53843256 0 208.22946224 0 2477.51018445 0 -98.39288582 0 -100.18737751 0 30777
0.16650000 0.16650700 8810.78032979 0 197.72514768 0 2433.18766820 0 -0.81552212 0 -361.10394378 0 29211
0.16750000 0.16749900 8694.96381219 0 189.23378178 0 2358.72628379 0 161.89731903 0 -157.24251368 0 30922
0.16850000 0.16850800 8570.63267680 0 56.10513070 0 2507.90371607 0 91.94934639 0 -95.92397883 0 30867
0.16950000 0.16949900 8455.00438872 0 205.42484236 0 2444.22677604 0 247.03906796 0 -536.84056160 0 30852
0.17050000 0.17049200 8340.90408146 0 221.48746397 0 2802.62685810 0 -21.69743844 0 -394.91218038 0 31257
0.17150000 0.17149500 8067.39551379 0 265.96610000 0 2513.79419288 0 -222.94347469 0 -30.75880762 0 32608
0.17250000 0.17250900 7940.40702044 0 88.77900763 0 2558.20528772 0 165.93096696 0 -107.48315377 0 32361
0.17350000 0.17350400 7999.21213756 0 -130.11642511 0 2496.88675288 0 248.70656008 0 -113.49132939 0 32508
0.17450000 0.17449800 8084.20330286 0 -71.88751178 0 2282.23866394 0 249.30668008 0 -518.09733015 0 32791
0.17550000 0.17549800 8087.97896563 0 43.93564922 0 2384.64659619 0 -7.11033697 0 -558.77815876 0 33633
0.17650000 0.17650100 8114.25359242 0 90.93113540 0 2213.77847959 0 -223.97984429 0 -309.89997765 0 33984
0.17750000 0.17750300 7997.81702463 0 155.76546555 0 2328.18881194 0 -27.06884465 0 -592.58750260 0 34069
0.17850000 0.17849800 7876.35362137 0 214.49861255 0 2370.09756138 0 78.07273387 0 -299.17310937 0 34536
