### header ###
fiducial parameters:
Omega_m = 0.31
Omega_nu = 0
Omega_de = 0.69
Omega_k = 0
H_0 = 100
w_de = -1
zeff = 0
beta = 0
fgrowth = 0
b_1 = 2
gamma = 0.55
Lx = 3500 Ly = 3500 Lz = 3500
nx = 700 ny = 700 nz = 700
xoffset = -685.467585 yoffset = -31.7331281 zoffset = 572.489161
bins = 400 dk = 0.001
kx_ny = 0.628318531 ky_ny = 0.628318531 kz_ny = 0.628318531
############################
A(data) = 7.98838045 (not used)
A(ran) = 7.9839777 (used)
Ngal = 474205
weighted Ngal = 0
Nran = 23820508
weighted Nran = 0
SN(data) = 3488.42742
SN(ran) = 69.5433413
SN(data+ran) = 3557.97076
############################
13 columns: k_central k_mean P_0(k) sigma^{lin}_{P_0(k)} P^img_1(k) sigma^{lin}_{P_1(k)} P_2(k) sigma^{lin}_{P_2(k)} P^img_3(k) sigma^{lin}_{P_3(k)} P_4(k) sigma^{lin}_{P_4(k)} N_modes
### header ###
0.00050000 0 0 0 0 0 0 0 0 0 0 0 0
0.00150000 0.00179520 564.49369283 0 2.02034497 0 601.57158695 0 26.58121947 0 3782.01827760 0 3
0.00250000 0.00253879 13699.01243537 0 -6371.42537667 0 14643.81391215 0 -6348.06277130 0 21888.98965723 0 6
0.00350000 0.00331552 20131.92243176 0 -3937.00868042 0 37510.60057411 0 -36297.51666698 0 -14205.46057258 0 7
0.00450000 0.00420575 31440.41993879 0 -1578.79172357 0 37105.13203925 0 6397.92144996 0 26072.22469696 0 24
0.00550000 0.00557378 36552.73375405 0 -7809.02281415 0 20232.79131086 0 21934.27546574 0 137.63342643 0 45
0.00650000 0.00659388 45843.96440237 0 -13946.70034157 0 30923.12092326 0 19467.02932640 0 -13851.03545513 0 40
0.00750000 0.00754703 78352.75296291 0 -13803.42445841 0 28825.80115611 0 8966.65651859 0 -50487.47598482 0 57
0.00850000 0.00846663 73095.05952278 0 -5058.15907458 0 8481.55582363 0 -7918.60561288 0 -3840.79017774 0 75
0.00950000 0.00948925 65319.07652589 0 22056.40320849 0 -3900.51429781 0 -14561.98943174 0 -11264.09748451 0 112
0.01050000 0.01054430 64054.72775485 0 -18991.25152894 0 -27438.43885634 0 23316.98738909 0 -6.70565457 0 105
0.01150000 0.01145670 74282.12346658 0 -28794.02358388 0 -28647.09383354 0 32211.16446941 0 -21590.81194986 0 144
0.01250000 0.01249090 89802.31188813 0 -15887.56815903 0 -38349.99351862 0 -786.69753622 0 -28360.20989749 0 169
0.01350000 0.01339930 107502.19817347 0 -5222.11806049 0 -45643.77676965 0 13371.27162074 0 -29439.87229055 0 180
0.01450000 0.01448870 97328.50323711 0 884.23364555 0 -39359.78954208 0 -27592.67634106 0 7710.81129300 0 267
0.01550000 0.01550050 101369.56962617 0 5787.89171408 0 -34508.67186928 0 -28303.51959442 0 18659.85684712 0 238
0.01650000 0.01653350 91175.83378188 0 12251.52741183 0 9912.52093854 0 -37868.23666576 0 12883.20354274 0 315
0.01750000 0.01747870 84352.62433564 0 16601.84383308 0 23991.84558679 0 -22660.95214359 0 14095.84455687 0 297
0.01850000 0.01844180 81837.21358334 0 2522.49704018 0 51192.00801303 0 -16328.02524031 0 21186.78281723 0 388
0.01950000 0.01947590 82458.14955917 0 1788.46833866 0 62758.26924183 0 8319.62307316 0 10222.19171907 0 399
0.02050000 0.02045430 84640.17261118 0 -344.82651906 0 65242.01314515 0 3269.25891525 0 -3216.42178122 0 462
0.02150000 0.02154770 84222.74596552 0 354.44061870 0 62407.49799158 0 7823.67149988 0 4207.37270784 0 571
0.02250000 0.02255340 87892.77874990 0 -716.87213422 0 63545.95442943 0 1892.32674546 0 8716.97559392 0 510
0.02350000 0.02348930 86124.97136936 0 6950.78477280 0 60770.45476714 0 6846.68277486 0 -10821.53666150 0 555
0.02450000 0.02439640 75407.84673089 0 10752.40106534 0 51934.73956186 0 2373.09816141 0 13.55008967 0 592
0.02550000 0.02547300 69190.51489873 0 7309.80490505 0 46142.80644923 0 4513.62214000 0 -4813.33890051 0 837
0.02650000 0.02652900 67052.78114599 0 -670.24325271 0 45766.01523565 0 13016.40361030 0 2693.35408446 0 723
0.02750000 0.02749970 66450.55739911 0 -3154.36140061 0 37166.47271875 0 10795.69385538 0 -17398.82977352 0 826
0.02850000 0.02848090 68190.46252111 0 1414.79952068 0 33718.55077022 0 11374.26711645 0 -4143.60718921 0 831
0.02950000 0.02946900 63334.14085565 0 2435.88931545 0 28136.88110590 0 9649.84110455 0 7242.19728971 0 996
0.03050000 0.03053250 64249.93284140 0 1318.58101800 0 23890.64453794 0 10691.71365301 0 13243.82916208 0 1041
0.03150000 0.03150510 65145.90536572 0 -1439.38008177 0 24206.98085801 0 11008.21605795 0 12855.30128419 0 1036
0.03250000 0.03246190 64125.03701745 0 1461.52473141 0 25024.11842963 0 3152.08050170 0 14737.92867311 0 1059
0.03350000 0.03345080 59880.68274471 0 6552.36930885 0 26981.81618081 0 -2340.04727182 0 17142.72690047 0 1302
0.03450000 0.03451200 58656.08361977 0 3749.39920869 0 34292.65081207 0 -2654.88882804 0 19760.77810384 0 1339
0.03550000 0.03553350 55112.27533832 0 -182.04562851 0 28317.13855394 0 5264.21503945 0 17498.70214339 0 1365
0.03650000 0.03647120 54846.09664968 0 172.28980311 0 32475.46086283 0 5226.11516975 0 17873.83250824 0 1308
0.03750000 0.03744890 52413.94978001 0 1828.77160100 0 26904.53135358 0 6326.67103975 0 7259.91300941 0 1579
0.03850000 0.03847530 51417.44054633 0 3180.06026651 0 23424.05677009 0 5231.73991076 0 5667.75698979 0 1662
0.03950000 0.03950240 47556.41015882 0 3447.97731015 0 21756.34320590 0 2113.59608463 0 5815.30679033 0 1683
0.04050000 0.04050350 44701.63265083 0 2410.57798092 0 21413.87619926 0 2823.88572175 0 7675.88918053 0 1822
0.04150000 0.04152450 42345.88482242 0 2191.32380486 0 18457.34402619 0 3300.85933029 0 7877.69337267 0 1887
0.04250000 0.04250150 43169.77651217 0 -650.88329277 0 17978.68742428 0 2984.03582792 0 10258.25428100 0 1920
0.04350000 0.04349210 43046.65226019 0 -1821.56351754 0 17439.57592886 0 4944.46844334 0 10620.99471439 0 2005
0.04450000 0.04448520 44322.07335605 0 -1280.34828040 0 14521.68616940 0 5745.27433585 0 3170.31662067 0 2151
0.04550000 0.04548030 44934.81581151 0 -994.22058414 0 11138.09442807 0 5995.27635793 0 6688.70284435 0 2274
0.04650000 0.04648670 43904.75743363 0 2315.54421700 0 12357.93245334 0 -842.60502593 0 2167.21935373 0 2311
0.04750000 0.04749250 43524.20162962 0 2932.27270940 0 9244.70473943 0 -3605.70257719 0 3499.29753568 0 2568
0.04850000 0.04851840 38678.39867274 0 2640.86019250 0 14345.30403504 0 -1919.47608591 0 5608.78578781 0 2493
0.04950000 0.04949480 37720.53185268 0 1855.53341008 0 12049.90037688 0 1089.75038821 0 7919.61319443 0 2644
0.05050000 0.05050630 38236.61291247 0 -474.93297907 0 13459.07515655 0 3728.26214061 0 5950.07912802 0 2829
0.05150000 0.05149060 38321.20547409 0 605.22323968 0 13748.50572731 0 3658.40684333 0 8656.44319414 0 2784
0.05250000 0.05249300 37866.57581703 0 630.02414004 0 13269.73840215 0 228.65125813 0 8202.90969724 0 3055
0.05350000 0.05348950 36734.54132757 0 507.09808267 0 13131.99868141 0 -127.32398479 0 9415.52856673 0 3009
0.05450000 0.05448610 36810.94036882 0 590.05415468 0 15374.47662693 0 -1836.45579442 0 7334.26367057 0 3336
0.05550000 0.05550870 35543.49134683 0 1876.52653794 0 14433.32901735 0 292.61386414 0 5858.21204900 0 3349
0.05650000 0.05647670 34604.00458597 0 1285.98409374 0 14192.72739904 0 157.08196497 0 7304.14694707 0 3324
0.05750000 0.05747970 34329.96454671 0 -524.53810149 0 14336.22472869 0 2256.18548365 0 7628.87608935 0 3639
0.05850000 0.05849280 34492.50627505 0 -2.92661475 0 14665.07277580 0 1202.73128343 0 3098.73404072 0 3846
0.05950000 0.05951020 33576.49284280 0 1534.30312244 0 13743.30173465 0 -552.79688890 0 2021.43005284 0 3787
0.06050000 0.06049470 32299.63234471 0 1737.19240242 0 15374.14445719 0 -528.13660706 0 5780.87186014 0 3930
0.06150000 0.06148310 31902.57877672 0 533.06822053 0 14468.42828702 0 988.90697546 0 4822.80573823 0 4083
0.06250000 0.06249100 31350.51266126 0 -441.20114151 0 14130.27948706 0 2932.94812121 0 5698.48269116 0 4303
0.06350000 0.06350600 32494.50526152 0 -488.78777912 0 13325.76436574 0 2290.34360571 0 1963.37785382 0 4470
0.06450000 0.06451750 31922.50896139 0 -477.39214242 0 11347.69353689 0 252.51765428 0 3811.04991328 0 4479
0.06550000 0.06550280 32516.64991116 0 432.75185044 0 11858.79205051 0 -241.86386334 0 -75.06382960 0 4636
0.06650000 0.06648880 31777.01861327 0 1210.86944217 0 12363.24716925 0 -1007.41768809 0 -684.35603793 0 4653
0.06750000 0.06749660 30825.13084861 0 1450.38597264 0 10765.06780493 0 -626.09014303 0 -297.69716847 0 5220
0.06850000 0.06852730 29207.79636236 0 1108.47258224 0 11502.92753084 0 535.43326912 0 -296.22454927 0 5029
0.06950000 0.06949320 28982.03165930 0 12.77934514 0 10793.88906643 0 231.15249631 0 -1464.81321188 0 5040
0.07050000 0.07048030 28838.97722265 0 68.03921456 0 12287.95536049 0 1811.49877428 0 -2117.83678504 0 5475
0.07150000 0.07148790 28401.50966906 0 716.20779473 0 10764.72456286 0 900.18997285 0 -955.50952211 0 5509
0.07250000 0.07249820 28410.58897541 0 276.98638490 0 10278.41698450 0 1487.88793680 0 323.35728124 0 5916
0.07350000 0.07351270 27520.04189025 0 27.79696073 0 11249.14984600 0 238.82008125 0 -213.72576428 0 5721
0.07450000 0.07449140 28393.20542545 0 46.95617943 0 11007.81745425 0 1765.99151927 0 202.54825237 0 6028
0.07550000 0.07549160 27643.05541898 0 124.19383856 0 10659.06136712 0 453.59218022 0 797.47865890 0 6183
0.07650000 0.07648840 27583.15414172 0 473.81356703 0 10290.26437206 0 1103.79452501 0 1891.35238087 0 6330
0.07750000 0.07749960 27542.51870963 0 32.87937927 0 10093.58666630 0 2565.13656306 0 3084.91577935 0 6583
0.07850000 0.07848650 27445.96803721 0 93.37601545 0 8270.93806093 0 1204.25926425 0 3332.65904716 0 6549
0.07950000 0.07947320 27314.42881837 0 621.27921790 0 8210.97034971 0 750.43456521 0 1881.40943318 0 6828
0.08050000 0.08048110 26647.65341779 0 1000.26275179 0 9290.89847857 0 -277.53446497 0 3963.06186071 0 7147
0.08150000 0.08149960 25386.07272795 0 1591.91242848 0 8237.53285695 0 -120.03618059 0 3639.43995091 0 7386
0.08250000 0.08250610 24765.46892187 0 49.99309668 0 8680.44799435 0 1603.41657396 0 4185.70416817 0 7227
0.08350000 0.08350160 23760.87689107 0 50.69862522 0 8235.26303036 0 599.86866340 0 1870.90179693 0 7798
0.08450000 0.08449610 24355.79290358 0 1101.02976550 0 8742.04333731 0 676.57440804 0 1047.67887560 0 7371
0.08550000 0.08548940 23079.59674498 0 733.65224248 0 8026.81544333 0 -879.44154337 0 2159.35800311 0 8256
0.08650000 0.08650700 22447.36699783 0 624.59427195 0 8178.50629334 0 -629.16603487 0 1335.65454287 0 8037
0.08750000 0.08749060 21879.79962763 0 500.03836837 0 8241.95071456 0 393.80273343 0 566.58968392 0 8155
0.08850000 0.08849210 22259.35892241 0 238.33068449 0 7888.38923845 0 -461.97725180 0 -1443.54327591 0 8718
0.08950000 0.08949900 21119.35235909 0 352.94474762 0 7184.16723533 0 167.95166624 0 -1590.49517090 0 8571
0.09050000 0.09049190 21310.01779246 0 374.13385562 0 6661.22133415 0 16.37851504 0 -1883.01492028 0 8932
0.09150000 0.09150830 21325.51904721 0 -187.14886301 0 6939.63494171 0 -563.28902389 0 -2774.48100841 0 9285
0.09250000 0.09250820 20951.05302184 0 17.17837979 0 6840.39369436 0 880.45133939 0 -3043.48313988 0 9204
0.09350000 0.09350330 20503.62037592 0 814.01849771 0 6144.21019906 0 267.52176164 0 -2666.24903330 0 9349
0.09450000 0.09448040 20496.31264154 0 749.44802107 0 6462.65026085 0 726.08209400 0 -2701.87977457 0 9564
0.09550000 0.09549270 19555.71864820 0 568.21067228 0 6514.26943915 0 -39.01355794 0 -1733.93713892 0 10155
0.09650000 0.09649430 19053.25654793 0 654.34560874 0 7362.12163982 0 -18.53296800 0 -1339.40806099 0 9913
0.09750000 0.09749140 18835.13174900 0 351.10231277 0 7084.93706031 0 224.38841308 0 -466.99633664 0 10476
0.09850000 0.09850240 18629.51867712 0 147.38593013 0 7199.97851517 0 693.68225712 0 -430.15981920 0 10575
0.09950000 0.09950330 18389.47067505 0 250.45266570 0 7365.43226494 0 1013.22733692 0 -358.80865084 0 10882
0.10050000 0.10051200 18273.65415745 0 308.62776753 0 6669.48128846 0 783.38469664 0 -556.62459159 0 10875
0.10150000 0.10150300 17930.30136482 0 273.30594413 0 6066.26103234 0 647.63245820 0 -512.33418508 0 11118
0.10250000 0.10250800 17483.86522813 0 553.07369702 0 6298.95701073 0 1.06218141 0 -59.75689415 0 11575
0.10350000 0.10349800 16978.52432341 0 471.81279794 0 5439.20206089 0 523.00569174 0 104.38578163 0 11364
0.10450000 0.10450100 16540.50315358 0 210.11840085 0 6287.00997225 0 314.38537644 0 526.79131959 0 12093
0.10550000 0.10551000 16531.64529373 0 186.03055821 0 5841.23817505 0 682.13935850 0 781.23998732 0 12067
0.10650000 0.10649700 16624.76354545 0 271.82003814 0 5731.58894237 0 343.11363041 0 44.18599448 0 12054
0.10750000 0.10749900 16124.62663339 0 375.48025032 0 5346.31632798 0 73.78353668 0 1615.83972241 0 12807
0.10850000 0.10850100 15994.52681678 0 143.24377341 0 5586.60792120 0 236.85031466 0 1004.48905817 0 12736
0.10950000 0.10950300 15679.74062218 0 220.78769305 0 5628.64953853 0 327.49611625 0 1197.78195423 0 12933
0.11050000 0.11050200 15161.22365092 0 324.33828922 0 5017.82259526 0 460.09827828 0 1415.60780039 0 13428
0.11150000 0.11150900 15086.26401190 0 474.33839523 0 4853.57572890 0 223.54470193 0 826.52579583 0 13453
0.11250000 0.11250000 14613.25429565 0 253.88619363 0 5023.42519162 0 317.97834584 0 785.57148079 0 13668
0.11350000 0.11349100 14395.01877347 0 343.96177049 0 5087.39001210 0 -213.39359453 0 -44.09132611 0 13791
0.11450000 0.11448600 14378.96390249 0 133.79797311 0 4571.78506227 0 -183.36434239 0 368.84128436 0 14205
0.11550000 0.11549300 14134.70841699 0 -53.56635735 0 5344.50046671 0 -314.61789526 0 320.69992328 0 14776
0.11650000 0.11649800 14416.38836037 0 121.46340326 0 5097.84228673 0 353.65780533 0 49.19367483 0 14553
0.11750000 0.11747300 14383.72500216 0 -66.39430999 0 4889.85973733 0 117.54601474 0 177.05643894 0 14568
0.11850000 0.11849100 14316.29454401 0 142.37016698 0 5244.35128873 0 481.26634887 0 931.66527061 0 16015
0.11950000 0.11950300 14139.80168640 0 244.89546587 0 4831.80753831 0 669.00204510 0 964.76044949 0 15270
0.12050000 0.12050700 13880.26639266 0 124.77735008 0 4276.60795493 0 916.01675394 0 553.21985170 0 15999
0.12150000 0.12150000 13825.67983130 0 78.33204772 0 4084.93493999 0 721.05082961 0 856.15755151 0 15670
0.12250000 0.12250700 13851.14617838 0 -86.79661859 0 3314.26791564 0 459.44833281 0 511.88907762 0 16887
0.12350000 0.12352200 13843.06338126 0 -32.88591194 0 3363.52868876 0 143.95572390 0 991.02068227 0 16407
0.12450000 0.12449800 13583.30664102 0 294.23263803 0 3291.87967486 0 -307.60357748 0 445.68986200 0 16306
0.12550000 0.12549900 13580.76000631 0 409.90742988 0 3395.14017612 0 217.86681376 0 1003.96865891 0 17523
0.12650000 0.12650100 13252.68702193 0 113.61312496 0 3334.79600585 0 -106.01762086 0 972.03939583 0 17154
0.12750000 0.12750600 13265.53091872 0 63.59190458 0 4139.78723714 0 28.39674857 0 622.54035570 0 18007
0.12850000 0.12850300 13191.78923543 0 283.41165499 0 4003.65300350 0 -353.82721190 0 788.41042487 0 17496
0.12950000 0.12949900 13025.48291666 0 306.77093866 0 4286.16337125 0 -127.55761084 0 1428.03094884 0 18405
0.13050000 0.13049000 12844.11823613 0 98.12460339 0 4466.70869974 0 -205.07052797 0 1033.39336211 0 18100
0.13150000 0.13148800 12697.96354852 0 299.51524420 0 4496.03928818 0 -33.94863368 0 438.37216252 0 19059
0.13250000 0.13249300 12564.09914146 0 260.44433162 0 4412.96363507 0 107.64669201 0 121.58298437 0 18957
0.13350000 0.13349100 12050.78616287 0 316.49022538 0 4200.97290409 0 231.46252140 0 102.29510526 0 19468
0.13450000 0.13450700 11917.58609530 0 380.28896099 0 3862.89053808 0 349.56436685 0 -31.92727006 0 19953
0.13550000 0.13551000 11646.97847673 0 -113.46032688 0 3343.65386571 0 434.48024035 0 -332.83076235 0 19956
0.13650000 0.13649900 11645.87124425 0 -40.04727019 0 3080.29861990 0 804.63580966 0 41.29191022 0 19723
0.13750000 0.13749600 11760.24835963 0 -96.79238127 0 2708.14671042 0 94.11265722 0 -184.29441768 0 20946
0.13850000 0.13851100 11880.05091417 0 -102.45443601 0 3009.65718755 0 246.47991556 0 -72.27913991 0 20955
0.13950000 0.13949800 11703.55805656 0 15.57244979 0 2701.10471183 0 -90.11532651 0 128.83757159 0 20506
0.14050000 0.14048300 11798.44788025 0 269.36308926 0 2938.31819875 0 263.19912603 0 328.45940851 0 21447
0.14150000 0.14148400 11629.37348027 0 347.69757289 0 2978.77647364 0 -25.06807556 0 515.44440112 0 21771
0.14250000 0.14249400 11307.94389079 0 378.87834681 0 3010.39903332 0 -47.76146961 0 180.51986215 0 22470
0.14350000 0.14350900 10870.11095048 0 488.85310584 0 3170.31662067 0 -252.59626779 0 755.99176504 0 22519
0.14450000 0.14449900 10656.94655307 0 245.88643895 0 3257.43367235 0 41.05296945 0 319.30481035 0 22218
0.14550000 0.14550500 10608.82622941 0 -84.63563296 0 3368.95412792 0 311.67819302 0 378.82852135 0 23559
0.14650000 0.14650700 10462.83762668 0 39.49708637 0 3195.12970059 0 56.80501236 0 656.14818322 0 23044
0.14750000 0.14750500 10644.94415297 0 33.96933893 0 3033.87236193 0 443.57172626 0 164.07856702 0 23649
0.14850000 0.14849900 10529.43766046 0 -53.59182369 0 2998.79523691 0 303.63082734 0 610.20135692 0 23640
0.14950000 0.14949500 10631.41377204 0 44.52381111 0 2559.92149807 0 364.28834439 0 574.92825174 0 24457
0.15050000 0.15050000 10538.60554541 0 121.83211168 0 3050.51406614 0 126.96413423 0 827.01408535 0 24591
0.15150000 0.15149900 10431.92369579 0 193.86976418 0 2790.70196427 0 18.56673860 0 711.18981712 0 25020
0.15250000 0.15250500 10203.68986430 0 356.44470949 0 3065.67207881 0 -243.39073693 0 1035.37530826 0 25297
0.15350000 0.15350100 10019.08099260 0 238.38383165 0 2933.32458026 0 -294.40093737 0 1170.93156655 0 25452
0.15450000 0.15450400 9871.98515738 0 56.96855059 0 3084.84934540 0 -101.65877875 0 487.38048663 0 26061
0.15550000 0.15549900 9808.26392805 0 182.56824224 0 3150.71860574 0 31.03993395 0 498.78276673 0 26128
0.15650000 0.15649500 9743.88943155 0 74.74638605 0 3132.23889562 0 12.73273065 0 301.45511551 0 26331
0.15750000 0.15749700 9518.40153662 0 166.51004955 0 2736.51400660 0 378.79751884 0 315.35641932 0 27345
0.15850000 0.15849900 9383.81742845 0 116.73773503 0 2474.77532022 0 512.07177098 0 359.47520479 0 26980
0.15950000 0.15949700 9439.84339203 0 65.19229841 0 2550.80897475 0 391.95033349 0 90.54393620 0 27777
0.16050000 0.16050000 9231.19650315 0 141.72132875 0 2342.12886889 0 34.88524164 0 422.28407456 0 28224
0.16150000 0.16150500 9208.55359890 0 223.15827779 0 2475.51716598 0 -177.51151149 0 589.73859342 0 28075
0.16250000 0.16249700 9029.31480473 0 200.06915885 0 2629.75465070 0 16.69307979 0 1067.68878101 0 28590
0.16350000 0.16349900 8840.85276400 0 119.47924265 0 2598.19852497 0 127.79012966 0 1126.80835214 0 29163
0.16450000 0.16449100 8823.73494983 0 91.39628377 0 2677.91926366 0 351.45330546 0 830.62919941 0 28996
0.16550000 0.16550500 8651.81496237 0 108.09379249 0 2496.75388498 0 106.77397137 0 845.67759607 0 30777
0.16650000 0.16650700 8559.25032688 0 252.51433258 0 2428.54836410 0 183.65997346 0 813.19914568 0 29211
0.16750000 0.16749900 8380.06689434 0 -16.55999045 0 2186.15302917 0 -14.40996641 0 658.70589025 0 30922
0.16850000 0.16850800 8495.50695290 0 -4.70288139 0 2290.64255848 0 127.72037402 0 473.81688873 0 30867
0.16950000 0.16949900 8407.58162152 0 63.39437430 0 2144.13355648 0 -192.61748424 0 494.43023585 0 30852
0.17050000 0.17049200 8433.26941510 0 102.08229517 0 2047.37250989 0 56.88927275 0 519.56441319 0 31257
0.17150000 0.17149500 8438.39590149 0 50.65322869 0 2133.13873794 0 71.06206996 0 403.21531676 0 32608
0.17250000 0.17250900 8311.40740814 0 87.87362363 0 2043.91794455 0 185.43486713 0 175.19739561 0 32361
0.17350000 0.17350400 8267.99282253 0 144.58684641 0 1996.36230945 0 105.76661126 0 353.96450873 0 32508
0.17450000 0.17449800 8226.73734025 0 87.39275256 0 1890.37801629 0 52.15330725 0 217.30101796 0 32791
0.17550000 0.17549800 8097.37936940 0 70.45608163 0 1710.09842359 0 63.24135477 0 282.29667188 0 33633
0.17650000 0.17650100 8152.90707836 0 20.69295713 0 1812.72780233 0 -118.38418973 0 87.75216022 0 33984
0.17750000 0.17750300 8057.75151887 0 178.51355689 0 1756.35859668 0 103.62898823 0 221.78088058 0 34069
0.17850000 0.17849800 7983.66659351 0 64.12127243 0 1741.54382608 0 173.01171869 0 330.71927001 0 34536
