### header ###
fiducial parameters:
Omega_m = 0.31
Omega_nu = 0
Omega_de = 0.69
Omega_k = 0
H_0 = 100
w_de = -1
zeff = 0
beta = 0
fgrowth = 0
b_1 = 2
gamma = 0.55
Lx = 3500 Ly = 3500 Lz = 3500
nx = 700 ny = 700 nz = 700
xoffset = -685.467585 yoffset = -31.7331281 zoffset = 572.489161
bins = 400 dk = 0.001
kx_ny = 0.628318531 ky_ny = 0.628318531 kz_ny = 0.628318531
############################
A(data) = 8.0938134 (not used)
A(ran) = 8.08982279 (used)
Ngal = 480681
weighted Ngal = 0
Nran = 23820508
weighted Nran = 0
SN(data) = 3487.82025
SN(ran) = 70.4652904
SN(data+ran) = 3558.28554
############################
13 columns: k_central k_mean P_0(k) sigma^{lin}_{P_0(k)} P^img_1(k) sigma^{lin}_{P_1(k)} P_2(k) sigma^{lin}_{P_2(k)} P^img_3(k) sigma^{lin}_{P_3(k)} P_4(k) sigma^{lin}_{P_4(k)} N_modes
### header ###
0.00050000 0 0 0 0 0 0 0 0 0 0 0 0
0.00150000 0.00179520 26262.77940709 0 -2581.37966357 0 71828.49628677 0 -64393.76234079 0 -43130.80192881 0 3
0.00250000 0.00253879 45770.33344233 0 7483.28609031 0 9952.03806582 0 39455.01153552 0 36128.44226700 0 6
0.00350000 0.00331552 44903.81330202 0 -5392.82009222 0 -952.27418880 0 6260.34781409 0 22382.15100465 0 7
0.00450000 0.00420575 42202.16604627 0 -17783.59306097 0 -26168.22175314 0 5972.29021160 0 -3952.93068350 0 24
0.00550000 0.00557378 65523.80381179 0 -14053.88044581 0 -5159.65907619 0 2673.53462304 0 -35123.29661997 0 45
0.00650000 0.00659388 68075.19961975 0 -469.43889150 0 2975.16689574 0 -22644.67582610 0 9141.67675699 0 40
0.00750000 0.00754703 62230.00862473 0 14975.54076372 0 -15778.39503632 0 -11883.26188836 0 9047.50663441 0 57
0.00850000 0.00846663 50367.34126053 0 5715.74444556 0 -814.88878245 0 -19570.00194721 0 1830.93070434 0 75
0.00950000 0.00948925 48473.08793056 0 -8987.01852393 0 -20037.80767080 0 4799.03345685 0 -12427.35592995 0 112
0.01050000 0.01054430 66181.05701302 0 -14848.20902830 0 -13486.20235236 0 3767.44709814 0 -11165.22162387 0 105
0.01150000 0.01145670 67614.92307703 0 -12428.90605543 0 -22375.28616327 0 -803.68358973 0 -19515.41538586 0 144
0.01250000 0.01249090 81177.96736364 0 -8285.21028762 0 -26051.29800306 0 -8243.99909465 0 -6324.39014084 0 169
0.01350000 0.01339930 83884.37571906 0 -9782.96366584 0 -31757.42059834 0 -18422.68764950 0 5329.59711751 0 180
0.01450000 0.01448870 88797.71985733 0 4767.56590971 0 -21236.49755567 0 -3228.03664995 0 -10243.08519600 0 267
0.01550000 0.01550050 82995.60020586 0 6165.45799039 0 -19564.13361506 0 -18392.23875625 0 2495.22590416 0 238
0.01650000 0.01653350 77915.06396283 0 10994.03240985 0 -17413.33451904 0 -19627.91020601 0 -6730.57837681 0 315
0.01750000 0.01747870 76628.57054215 0 3365.61028582 0 -10542.61372700 0 -15356.42873748 0 11422.32100616 0 297
0.01850000 0.01844180 70740.19748035 0 574.55400716 0 5810.76713715 0 -7181.23306925 0 -4207.54986503 0 388
0.01950000 0.01947590 76477.21186188 0 -4831.99576783 0 19501.57497983 0 -6580.52623087 0 -9434.34044660 0 399
0.02050000 0.02045430 78189.32544859 0 56.15229881 0 27275.23278851 0 -8616.44995690 0 -20243.42074268 0 462
0.02150000 0.02154770 76636.32116952 0 3648.79606539 0 35662.40811539 0 -7257.72068910 0 -10488.30397376 0 571
0.02250000 0.02255340 74713.39051827 0 2156.51241563 0 35480.37909537 0 -1262.67684999 0 -15291.43419079 0 510
0.02350000 0.02348930 73328.57485320 0 4105.05335419 0 33614.69236342 0 677.43251322 0 -18737.14167435 0 555
0.02450000 0.02439640 73150.64259337 0 4910.18852570 0 32522.51824331 0 -3186.05039424 0 -20037.25405456 0 592
0.02550000 0.02547300 66087.82803805 0 4830.13561726 0 29788.53979909 0 -3192.38376404 0 -21601.77355143 0 837
0.02650000 0.02652900 63962.49528911 0 3585.84989879 0 20423.01385124 0 7146.77599442 0 -14733.38901993 0 723
0.02750000 0.02749970 61342.56179052 0 -1636.17958310 0 20633.72019254 0 5431.30749329 0 -27094.42172422 0 826
0.02850000 0.02848090 64636.57842407 0 -2468.06549138 0 17019.60264849 0 12370.77635013 0 -24223.58934524 0 831
0.02950000 0.02946900 61534.55590288 0 -1391.44798763 0 10442.82993573 0 8317.05429380 0 -18284.28358927 0 996
0.03050000 0.03053250 63373.55833200 0 -441.67171532 0 12118.43806751 0 7158.40193548 0 -15025.36622540 0 1041
0.03150000 0.03150510 64135.00210978 0 -698.47435930 0 9102.94576478 0 5087.58931395 0 -10366.07658009 0 1036
0.03250000 0.03246190 62674.89463595 0 4275.33463757 0 8327.50656843 0 -1645.52462525 0 -11853.80950435 0 1059
0.03350000 0.03345080 56186.40156897 0 7079.79950159 0 11338.17133754 0 -2143.19240887 0 2536.38173551 0 1302
0.03450000 0.03451200 54176.66389114 0 4043.73481934 0 14512.27469330 0 -1239.76820994 0 8177.88624315 0 1339
0.03550000 0.03553350 51374.92281903 0 1403.55003866 0 18898.46544696 0 3674.42849734 0 8073.68459429 0 1365
0.03650000 0.03647120 49664.13791130 0 2136.26113354 0 21408.22931360 0 923.60793984 0 -455.98269515 0 1308
0.03750000 0.03744890 52242.55019182 0 727.01881268 0 21537.44334424 0 622.31337304 0 7622.11089888 0 1579
0.03850000 0.03847530 49407.81359175 0 1274.75675637 0 23756.66940764 0 9.81819580 0 8858.32489256 0 1662
0.03950000 0.03950240 50152.53815905 0 1889.86868935 0 26269.53352523 0 -982.02109665 0 8351.41171771 0 1683
0.04050000 0.04050350 47690.93890537 0 947.43115392 0 23828.19662597 0 1780.57377106 0 5118.83541458 0 1822
0.04150000 0.04152450 46772.37883841 0 -215.08323130 0 22801.01705254 0 6142.25039757 0 5556.49119769 0 1887
0.04250000 0.04250150 48219.31024572 0 -1208.34495211 0 16583.79594362 0 7864.25157034 0 1057.69822232 0 1920
0.04350000 0.04349210 48131.06381691 0 -1810.87872409 0 15404.26118069 0 4258.00644923 0 582.78628067 0 2005
0.04450000 0.04448520 45703.78877017 0 2650.52633206 0 8651.75960074 0 4247.36594508 0 2022.59264695 0 2151
0.04550000 0.04548030 46223.30225066 0 1427.45518794 0 9430.86373661 0 302.35308106 0 1681.86399530 0 2274
0.04650000 0.04648670 42680.04758544 0 1280.70259480 0 8790.16366098 0 -946.66384181 0 2659.97102513 0 2311
0.04750000 0.04749250 43681.53936529 0 1740.76876334 0 11842.95862602 0 -2850.31536109 0 4158.83163583 0 2568
0.04850000 0.04851840 42284.21197318 0 1027.16407217 0 14272.89103072 0 -2969.43143149 0 3304.36925725 0 2493
0.04950000 0.04949480 41099.25177109 0 2444.44822254 0 15523.06722600 0 -1957.38772609 0 2499.78770198 0 2644
0.05050000 0.05050630 39791.16731701 0 2413.87753371 0 14376.63871427 0 -632.21203142 0 1759.00488231 0 2829
0.05150000 0.05149060 37518.68337123 0 824.75311663 0 14608.49319598 0 1130.62830421 0 71.66396154 0 2784
0.05250000 0.05249300 37270.88474179 0 63.21134877 0 11944.49184461 0 492.19141177 0 -5783.17490370 0 3055
0.05350000 0.05348950 36996.06963979 0 413.95215013 0 12177.67500529 0 1757.47690149 0 -7773.92354447 0 3009
0.05450000 0.05448610 34731.44704463 0 1805.90725025 0 10467.62087100 0 -548.58829823 0 -9744.23267362 0 3336
0.05550000 0.05550870 34374.14312274 0 1775.65765884 0 10607.33146556 0 1129.49892707 0 -6583.83685599 0 3349
0.05650000 0.05647670 32385.44286206 0 502.10778588 0 10676.12381966 0 1535.26641470 0 -3720.21256047 0 3324
0.05750000 0.05747970 32897.87005467 0 129.92487389 0 11094.35874504 0 2584.03702153 0 -2723.45973564 0 3639
0.05850000 0.05849280 32831.43610575 0 611.15025515 0 11616.97247648 0 2667.32304881 0 567.95047264 0 3846
0.05950000 0.05951020 31319.95304476 0 1562.43789981 0 11132.44754241 0 1962.06024716 0 3392.06206982 0 3787
0.06050000 0.06049470 31499.54615332 0 641.26587143 0 12286.40523501 0 559.41813914 0 4380.99783332 0 3930
0.06150000 0.06148310 30837.42112916 0 -194.38905621 0 12630.31164388 0 606.46001836 0 5239.32445326 0 4083
0.06250000 0.06249100 31101.82824583 0 -25.08745213 0 12640.71962921 0 1105.47308945 0 3768.44360738 0 4303
0.06350000 0.06350600 31121.97987700 0 -169.72988161 0 10776.08476812 0 -404.56171146 0 1483.22648806 0 4470
0.06450000 0.06451750 31503.75363675 0 112.06189226 0 11481.55794394 0 353.61794497 0 1599.30874145 0 4479
0.06550000 0.06550280 31560.11177008 0 573.04263483 0 9494.05349435 0 -1062.37960126 0 2499.54411083 0 4636
0.06650000 0.06648880 30928.43563917 0 48.85585820 0 10140.68833608 0 1688.11985883 0 -452.81822471 0 4653
0.06750000 0.06749660 30897.98674592 0 -98.55819563 0 9417.14512616 0 724.37363429 0 1022.13059331 0 5220
0.06850000 0.06852730 31547.37859654 0 400.03313061 0 9859.79452776 0 1529.38701023 0 -1913.59668143 0 5029
0.06950000 0.06949320 29802.26948187 0 1492.66010880 0 10557.18490646 0 -2664.87606503 0 -583.94887477 0 5040
0.07050000 0.07048030 29380.63535277 0 2050.76064129 0 9984.46890521 0 253.84522602 0 -390.30609325 0 5475
0.07150000 0.07148790 27844.57173068 0 125.13387894 0 11592.61336187 0 -63.06021154 0 352.03017359 0 5509
0.07250000 0.07249820 27893.28995989 0 -53.81980286 0 11496.83775219 0 -690.94517843 0 -2463.08294521 0 5916
0.07350000 0.07351270 27793.74975977 0 -129.99241507 0 11948.03498855 0 1631.07524136 0 -696.21117611 0 5721
0.07450000 0.07449140 27527.90324087 0 467.50012742 0 10975.70771228 0 -8.84688718 0 -2166.20069984 0 6028
0.07550000 0.07549160 27174.91752565 0 983.93882331 0 10964.98970185 0 65.58990559 0 -1508.70390746 0 6183
0.07650000 0.07648840 26403.06576254 0 1024.62297363 0 11106.42757909 0 203.44953961 0 -339.34903997 0 6330
0.07750000 0.07749960 25501.99996880 0 611.29530261 0 10222.41316557 0 1191.09427004 0 -169.40546249 0 6583
0.07850000 0.07848650 24866.55924746 0 280.73547408 0 10479.43504158 0 992.89301239 0 632.24081947 0 6549
0.07950000 0.07947320 24372.06922106 0 343.85990510 0 9724.11425943 0 918.73943862 0 -3113.21664158 0 6828
0.08050000 0.08048110 24257.80282893 0 192.19119974 0 9091.31982372 0 235.10753073 0 -2388.18974013 0 7147
0.08150000 0.08149960 23929.17622831 0 178.35743711 0 9095.91483852 0 -673.35679045 0 -1462.79804877 0 7386
0.08250000 0.08250610 23980.33036898 0 77.28316639 0 9129.72971851 0 48.95495551 0 -1886.01552031 0 7227
0.08350000 0.08350160 24368.19390737 0 279.10452063 0 8939.91685415 0 147.87864858 0 -3136.40208975 0 7798
0.08450000 0.08449610 23783.13226396 0 511.33324691 0 8910.17658969 0 -84.81522607 0 -1906.74291237 0 7371
0.08550000 0.08548940 23094.87655323 0 903.71318661 0 8046.41345826 0 920.79114041 0 -1009.39520530 0 8256
0.08650000 0.08650700 22407.72807498 0 401.73826863 0 8461.43740944 0 1914.94750506 0 -2054.59166567 0 8037
0.08750000 0.08749060 21977.45753253 0 638.75577539 0 7288.87821114 0 1100.72306210 0 -2802.83723227 0 8155
0.08850000 0.08849210 21171.06011599 0 967.29158295 0 6817.11966759 0 1095.79477033 0 -1839.95464906 0 8718
0.08950000 0.08949900 20243.53146593 0 782.83440210 0 5714.11681381 0 282.32545992 0 -445.83380222 0 8571
0.09050000 0.09049190 20022.63858580 0 -34.14317443 0 5515.30214936 0 854.31290219 0 567.63269692 0 8932
0.09150000 0.09150830 19968.16274769 0 -478.07530486 0 5885.75999315 0 976.38196162 0 -453.31647933 0 9285
0.09250000 0.09250820 20403.96945255 0 440.25224328 0 5930.73577656 0 431.07107154 0 10.66990117 0 9204
0.09350000 0.09350330 19693.67981544 0 353.77627921 0 5442.93343435 0 -72.04717470 0 -744.35585889 0 9349
0.09450000 0.09448040 19411.22480931 0 426.38415644 0 5648.83438668 0 -582.32235026 0 293.11322599 0 9564
0.09550000 0.09549270 18990.47646620 0 370.65714563 0 5374.75005812 0 238.39490397 0 -1141.58990578 0 10155
0.09650000 0.09649430 18873.22054638 0 397.72012195 0 4996.04333234 0 -723.24757885 0 -1972.41287087 0 9913
0.09750000 0.09749140 18223.27507952 0 577.61882667 0 5844.57094482 0 -354.15273825 0 -2613.66656274 0 10476
0.09850000 0.09850240 17847.36965193 0 313.47190964 0 4868.89982645 0 102.69625559 0 -3399.25908095 0 10575
0.09950000 0.09950330 17653.27179786 0 -53.24647788 0 5615.01950668 0 -346.29249487 0 -2906.97244719 0 10882
0.10050000 0.10051200 17354.31902775 0 431.60365036 0 5351.74176714 0 652.24518872 0 -2797.12391266 0 10875
0.10150000 0.10150300 17482.53654915 0 421.86775515 0 6313.73856436 0 106.76024169 0 -1902.48006731 0 11118
0.10250000 0.10250800 17222.66908566 0 382.95849850 0 6273.65674852 0 -21.18434691 0 -1409.30764757 0 11575
0.10350000 0.10349800 16798.70976835 0 481.01611433 0 6724.04570517 0 -696.88326623 0 -471.97777558 0 11364
0.10450000 0.10450100 16624.20992921 0 398.19733915 0 7223.61792866 0 358.58609711 0 916.33120797 0 12093
0.10550000 0.10551000 16555.34006884 0 -250.88670083 0 7216.25483265 0 910.41858652 0 -30.58862599 0 12067
0.10650000 0.10649700 16438.52704200 0 84.00550695 0 6646.92696280 0 1382.56798313 0 -352.04013868 0 12054
0.10750000 0.10749900 16359.69208929 0 294.36772040 0 6259.55060670 0 754.67637285 0 -344.55081817 0 12807
0.10850000 0.10850100 15653.94210535 0 586.24527494 0 5308.95830404 0 409.94950471 0 -107.15408428 0 12736
0.10950000 0.10950300 15337.05216904 0 310.69386334 0 5057.77154321 0 335.65309795 0 441.91862816 0 12933
0.11050000 0.11050200 15049.83606325 0 324.48555114 0 5181.82587048 0 590.87682841 0 473.18576622 0 13428
0.11150000 0.11150900 14867.03198049 0 365.80414566 0 4761.17717829 0 485.36643075 0 175.44430845 0 13453
0.11250000 0.11250000 14644.69969813 0 158.44386092 0 4830.54529328 0 3.71508607 0 381.01309103 0 13668
0.11350000 0.11349100 14547.92757922 0 103.93270210 0 4593.33180637 0 -407.04523391 0 -37.78231543 0 13791
0.11450000 0.11448600 14430.45021289 0 154.93504119 0 5007.59176713 0 309.55562835 0 33.68788043 0 14205
0.11550000 0.11549300 14301.34690551 0 228.55935784 0 4662.26810069 0 43.84131301 0 -353.80617449 0 14776
0.11650000 0.11649800 14156.18872714 0 56.26656520 0 4190.55384644 0 418.00240655 0 36.98156489 0 14553
0.11750000 0.11747300 14269.90150302 0 83.08639327 0 4461.33862220 0 63.63597243 0 -276.57781611 0 14568
0.11850000 0.11849100 14042.80812099 0 119.56228509 0 3973.31483350 0 12.90490530 0 -72.47168764 0 16015
0.11950000 0.11950300 14034.83604712 0 161.64487003 0 4347.57048469 0 340.30347437 0 458.14069125 0 15270
0.12050000 0.12050700 13928.54172886 0 36.29652016 0 4291.06841114 0 -128.74456406 0 757.14882298 0 15999
0.12150000 0.12150000 14119.98222498 0 -111.27686443 0 4354.67891722 0 712.08003204 0 1253.71933922 0 15670
0.12250000 0.12250700 13920.68037824 0 178.12048936 0 4528.31511503 0 653.70119943 0 844.84385001 0 16887
0.12350000 0.12352200 13877.71975795 0 362.38722622 0 4376.03743180 0 129.10995078 0 964.92874883 0 16407
0.12450000 0.12449800 13607.00141613 0 332.59270737 0 4388.16162748 0 -155.34360997 0 647.82400942 0 16306
0.12550000 0.12549900 13343.81225519 0 381.57445790 0 4720.37566133 0 -668.25687764 0 1671.77710739 0 17523
0.12650000 0.12650100 13208.28699941 0 167.13785037 0 4958.55244051 0 70.58230613 0 1043.79359682 0 17154
0.12750000 0.12750600 13059.91784684 0 -114.95951966 0 4935.99811485 0 109.37021009 0 1266.75146553 0 18007
0.12850000 0.12850300 13153.03609857 0 2.91682682 0 5362.11653550 0 328.37525884 0 1258.27006472 0 17496
0.12950000 0.12949900 13210.50146438 0 274.55711683 0 5275.57524472 0 187.14443408 0 759.39761215 0 18405
0.13050000 0.13049000 12775.02692926 0 335.61766651 0 4797.48333137 0 144.05537482 0 1349.86033562 0 18100
0.13150000 0.13148800 12836.81050175 0 78.21855639 0 4955.56291281 0 361.55569463 0 1007.61256101 0 19059
0.13250000 0.13249300 12748.67479619 0 -126.33854788 0 4649.24704670 0 -224.11714112 0 540.07589491 0 18957
0.13350000 0.13349100 12784.32768211 0 116.02689177 0 4796.96293211 0 88.96369401 0 -35.14256247 0 19468
0.13450000 0.13450700 12565.64926694 0 155.48312127 0 4727.07441785 0 -630.10828971 0 -40.43059408 0 19953
0.13550000 0.13551000 12520.69562817 0 267.93254489 0 4358.04490397 0 647.38554536 0 -364.41789059 0 19956
0.13650000 0.13649900 12431.45269014 0 6.07827450 0 4177.13418876 0 197.98091838 0 -29.63031628 0 19723
0.13750000 0.13749600 12176.12487982 0 208.60813575 0 3885.27877886 0 956.83377216 0 -548.53736554 0 20946
0.13850000 0.13851100 11900.97760807 0 415.69382683 0 3498.19030320 0 754.39735026 0 -431.86606446 0 20955
0.13950000 0.13949800 11571.02232848 0 366.94570235 0 3043.04024688 0 271.68495577 0 -392.95680781 0 20506
0.14050000 0.14048300 11199.32438432 0 224.33637315 0 2953.85267047 0 22.99644359 0 -259.40242585 0 21447
0.14150000 0.14148400 11102.66298865 0 180.47557285 0 2968.03631856 0 -311.29619781 0 -493.09380624 0 21771
0.14250000 0.14249400 10947.77223676 0 168.25504794 0 3217.06397606 0 -639.33153628 0 -314.63450374 0 22470
0.14350000 0.14350900 10782.14132980 0 281.81391852 0 3618.15894261 0 -554.31711909 0 -95.60099912 0 22519
0.14450000 0.14449900 10754.36086683 0 128.20534184 0 3976.83583279 0 -7.22478052 0 -36.82943115 0 22218
0.14550000 0.14550500 10624.96967900 0 190.09299418 0 4425.25391562 0 341.92335549 0 34.04695592 0 23559
0.14650000 0.14650700 10565.78810284 0 114.00508526 0 4079.80845360 0 540.23422916 0 1009.30884117 0 23044
0.14750000 0.14750500 10477.08770872 0 95.51297414 0 4197.25260295 0 367.48160287 0 1126.96336469 0 23649
0.14850000 0.14849900 10397.55519955 0 286.76767664 0 4248.08564620 0 452.43401504 0 1947.17904261 0 23640
0.14950000 0.14949500 10201.94043698 0 88.89161317 0 3733.45506095 0 533.89421597 0 1755.39530442 0 24457
0.15050000 0.15050000 10128.92952712 0 47.84960532 0 3806.32203058 0 393.05645874 0 1661.64593018 0 24591
0.15150000 0.15149900 9902.22367646 0 155.10998392 0 3506.72706564 0 603.56349819 0 1609.25168914 0 25020
0.15250000 0.15250500 9751.61791428 0 155.54180459 0 3218.60302921 0 444.51730280 0 1214.51223703 0 25297
0.15350000 0.15350100 9701.98068212 0 178.56338235 0 2874.43088454 0 48.14711869 0 1363.55680142 0 25452
0.15450000 0.15450400 9532.55196774 0 111.38426598 0 3018.27145626 0 -193.68264189 0 872.65974442 0 26061
0.15550000 0.15549900 9456.03113092 0 59.36947351 0 2730.04776891 0 -114.59524018 0 1217.74535588 0 26128
0.15650000 0.15649500 9456.65118111 0 -66.55076194 0 2758.66972857 0 -241.68338444 0 579.40036374 0 26331
0.15750000 0.15749700 9607.83270418 0 -65.20946051 0 2936.87879652 0 12.08643905 0 574.60936879 0 27345
0.15850000 0.15849900 9652.09985881 0 70.72868226 0 2952.20289407 0 1.26103815 0 -56.52598977 0 26980
0.15950000 0.15949700 9514.36013806 0 205.97070797 0 2802.20610975 0 -145.52356509 0 169.39660463 0 27777
0.16050000 0.16050000 9381.21543212 0 226.97822985 0 2834.40443033 0 62.39288252 0 -128.30167107 0 28224
0.16150000 0.16150500 9160.02359922 0 89.21370710 0 2833.45221039 0 49.32798213 0 33.54283298 0 28075
0.16250000 0.16249700 9134.72333701 0 211.78035681 0 2903.50680952 0 92.34352116 0 -143.92029246 0 28590
0.16350000 0.16349900 8924.64811822 0 174.90065730 0 2683.68794489 0 105.68224014 0 -278.94950809 0 29163
0.16450000 0.16449100 8901.76162282 0 48.44485350 0 2710.37224771 0 177.60562625 0 -144.01883615 0 28996
0.16550000 0.16550500 8811.48895858 0 45.91294499 0 2600.44620691 0 72.11139419 0 47.78339282 0 30777
0.16650000 0.16650700 8865.84300111 0 120.17679912 0 2591.27832196 0 29.17945121 0 164.78498135 0 29211
0.16750000 0.16749900 8683.30465415 0 172.30973329 0 2667.11267464 0 233.06357957 0 3.98258237 0 30922
0.16850000 0.16850800 8507.90795670 0 220.77219179 0 2571.59172843 0 236.47939178 0 208.76425553 0 30867
0.16950000 0.16949900 8297.76630397 0 123.46638682 0 2683.21183493 0 162.85728960 0 120.16904849 0 30852
0.17050000 0.17049200 8240.11270864 0 128.38249904 0 2320.80357129 0 306.69121792 0 435.44906877 0 31257
0.17150000 0.17149500 8164.35586223 0 -16.79184493 0 2278.33013328 0 336.07163183 0 373.14841871 0 32608
0.17250000 0.17250900 8119.75653786 0 -14.29237832 0 2025.83683812 0 334.13286775 0 5.06341843 0 32361
0.17350000 0.17350400 8253.32199214 0 -58.51125761 0 1989.95143338 0 90.51736262 0 139.18355190 0 32508
0.17450000 0.17449800 8200.57343671 0 75.32513646 0 1870.76892903 0 -58.26744502 0 119.86013063 0 32791
0.17550000 0.17549800 8182.89093397 0 85.17252999 0 1961.58413720 0 36.24492312 0 518.89232307 0 33633
0.17650000 0.17650100 8049.17046714 0 122.29382762 0 1955.69366039 0 -112.30991233 0 261.87266152 0 33984
0.17750000 0.17750300 7960.85760438 0 341.76169955 0 2262.10917742 0 -116.37567001 0 386.71533831 0 34069
0.17850000 0.17849800 7673.17646095 0 311.26962423 0 2115.41194590 0 -7.57983676 0 501.33050867 0 34536
