### header ###
fiducial parameters:
Omega_m = 0.31
Omega_nu = 0
Omega_de = 0.69
Omega_k = 0
H_0 = 100
w_de = -1
zeff = 0
beta = 0
fgrowth = 0
b_1 = 2
gamma = 0.55
Lx = 3500 Ly = 3500 Lz = 3500
nx = 700 ny = 700 nz = 700
xoffset = -685.467585 yoffset = -31.7331281 zoffset = 572.489161
bins = 400 dk = 0.001
kx_ny = 0.628318531 ky_ny = 0.628318531 kz_ny = 0.628318531
############################
A(data) = 8.00936541 (not used)
A(ran) = 8.0089629 (used)
Ngal = 475632
weighted Ngal = 0
Nran = 23820508
weighted Nran = 0
SN(data) = 3483.38342
SN(ran) = 69.7609715
SN(data+ran) = 3553.14439
############################
13 columns: k_central k_mean P_0(k) sigma^{lin}_{P_0(k)} P^img_1(k) sigma^{lin}_{P_1(k)} P_2(k) sigma^{lin}_{P_2(k)} P^img_3(k) sigma^{lin}_{P_3(k)} P_4(k) sigma^{lin}_{P_4(k)} N_modes
### header ###
0.00050000 0 0 0 0 0 0 0 0 0 0 0 0
0.00150000 0.00179520 19261.19480802 0 -33131.60683159 0 -15285.12296564 0 3115.54182980 0 1074.57465981 0 3
0.00250000 0.00253879 23467.90317637 0 -21444.54653901 0 -16218.07705486 0 15869.29882308 0 16608.15505822 0 6
0.00350000 0.00331552 34472.02247413 0 -18399.43576739 0 -32994.42072708 0 -2059.95067089 0 -72039.31335132 0 7
0.00450000 0.00420575 48391.81706639 0 -23469.12113210 0 -32626.04448037 0 -1029.04858186 0 5254.99179288 0 24
0.00550000 0.00557378 76728.55363526 0 -21653.25986184 0 -36489.84294908 0 -25693.10829517 0 1315.58041798 0 45
0.00650000 0.00659388 97670.08445776 0 -6737.88611119 0 -27935.25407095 0 -4523.35471351 0 26213.61828490 0 40
0.00750000 0.00754703 91022.48208314 0 8426.74781578 0 9558.97053476 0 -35451.81249733 0 7574.20094939 0 57
0.00850000 0.00846663 102913.16242913 0 -8268.04818415 0 2098.44914428 0 12580.04328920 0 25339.01534747 0 75
0.00950000 0.00948925 86058.64814369 0 2108.85712961 0 1135.96516477 0 31591.88934231 0 40152.34655259 0 112
0.01050000 0.01054430 102583.98221228 0 1973.01077641 0 31991.37882176 0 12863.60552781 0 7068.39500703 0 105
0.01150000 0.01145670 89959.87107030 0 4459.47847163 0 21749.92125751 0 14326.81325259 0 41822.93892123 0 144
0.01250000 0.01249090 90941.10049573 0 14811.33818665 0 24487.11067593 0 5449.97543293 0 24726.82650825 0 169
0.01350000 0.01339930 74004.20811363 0 1140.85913234 0 25246.56143524 0 -16346.51602276 0 66442.91749498 0 180
0.01450000 0.01448870 86429.34957862 0 3655.10729053 0 46079.47275126 0 -9293.78835535 0 20796.70481387 0 267
0.01550000 0.01550050 81267.54247142 0 1689.82499685 0 37879.41971382 0 -8739.13131589 0 26777.42106466 0 238
0.01650000 0.01653350 80975.89743570 0 8468.72299917 0 61866.39347769 0 -4245.40614359 0 -1942.65046176 0 315
0.01750000 0.01747870 84487.15308218 0 6080.90971808 0 59457.05559715 0 -4133.42065037 0 31479.17307565 0 297
0.01850000 0.01844180 81982.48248496 0 -103.77669304 0 70119.48295101 0 17684.16358410 0 11214.49346932 0 388
0.01950000 0.01947590 84329.15100702 0 -5048.69223686 0 54484.80669084 0 17034.21811725 0 4332.87750966 0 399
0.02050000 0.02045430 87166.21279530 0 -407.25117915 0 63434.23467201 0 15545.65476863 0 1481.31097586 0 462
0.02150000 0.02154770 86512.17056827 0 4641.55178095 0 52744.56939910 0 13437.81629290 0 5379.07933712 0 571
0.02250000 0.02255340 82947.32486966 0 5122.19032900 0 49918.57993563 0 20051.20518383 0 19105.62864432 0 510
0.02350000 0.02348930 76161.42915805 0 2245.21280975 0 39334.98753448 0 5689.56946969 0 10660.91044536 0 555
0.02450000 0.02439640 81484.78148436 0 -1267.46009432 0 38402.36561501 0 17996.40314399 0 12339.66311739 0 592
0.02550000 0.02547300 76066.42861111 0 2291.58370609 0 34479.10876202 0 8713.97499390 0 10564.39298992 0 837
0.02650000 0.02652900 75896.35770189 0 1304.06520017 0 23225.30853959 0 13047.18467330 0 10481.50556632 0 723
0.02750000 0.02749970 71925.15768244 0 151.83811194 0 22942.96425672 0 14929.36916922 0 21112.26607120 0 826
0.02850000 0.02848090 72850.91476052 0 1073.46964180 0 13110.29692477 0 5234.88445101 0 3929.83381393 0 831
0.02950000 0.02946900 72716.49673723 0 3505.96307523 0 13463.72553298 0 6863.93345693 0 10299.91943930 0 996
0.03050000 0.03053250 67579.71308411 0 2609.33728374 0 13287.89701486 0 -2054.01590478 0 2658.80843103 0 1041
0.03150000 0.03150510 63984.41849225 0 -113.52011744 0 9490.59892900 0 940.19760412 0 1005.10025050 0 1036
0.03250000 0.03246190 64772.21440310 0 1069.16693637 0 9923.74827591 0 -240.54293499 0 -7719.45877869 0 1059
0.03350000 0.03345080 61736.40438432 0 2630.95046178 0 9067.62504861 0 -1438.41678952 0 -6033.26550438 0 1302
0.03450000 0.03451200 57910.58398973 0 3102.10002747 0 5003.68323647 0 253.77657761 0 -14704.71169865 0 1339
0.03550000 0.03553350 52633.40325792 0 4048.37412344 0 3029.72024013 0 74.52172858 0 -9627.88468443 0 1365
0.03650000 0.03647120 51173.51723058 0 1932.56357385 0 3153.63062717 0 -827.32411045 0 -14713.34811201 0 1308
0.03750000 0.03744890 52003.83086873 0 1669.67336568 0 2465.80673711 0 -1745.12018699 0 -9647.34983146 0 1579
0.03850000 0.03847530 47727.58830052 0 1278.23346636 0 6689.53326871 0 -2509.11059948 0 -7444.71011064 0 1662
0.03950000 0.03950240 48183.32519006 0 2668.69601709 0 5178.61489628 0 -1079.70114620 0 -2812.51444416 0 1683
0.04050000 0.04050350 48500.54729611 0 634.42206746 0 12737.82391787 0 -2267.68962913 0 2730.41315563 0 1822
0.04150000 0.04152450 46404.11331495 0 2318.95449304 0 12429.79184141 0 1713.48655498 0 7296.56240456 0 1887
0.04250000 0.04250150 47060.92362319 0 1036.87782273 0 18795.27137965 0 1129.99718169 0 6988.57461741 0 1920
0.04350000 0.04349210 45519.65600843 0 1011.39154547 0 18675.80099486 0 1684.03417097 0 6213.39008453 0 2005
0.04450000 0.04448520 44068.07422471 0 2812.06047884 0 19779.71177928 0 460.45037821 0 8853.05446595 0 2151
0.04550000 0.04548030 41118.07472328 0 2482.92455128 0 19450.86373216 0 3165.10155568 0 9276.34944376 0 2274
0.04650000 0.04648670 41022.52056009 0 641.38323807 0 19635.43938689 0 148.71571634 0 8285.66425294 0 2311
0.04750000 0.04749250 39830.69551661 0 1824.20980317 0 18994.01961015 0 2452.97391265 0 5283.49195696 0 2568
0.04850000 0.04851840 38161.21038046 0 701.17268486 0 18633.72616055 0 1382.10294549 0 6798.63995747 0 2493
0.04950000 0.04949480 37488.67737097 0 155.60934577 0 16944.08939322 0 2239.39983922 0 6509.18724206 0 2644
0.05050000 0.05050630 38825.54986958 0 -639.87961636 0 17967.28292971 0 -647.06776963 0 3754.63641833 0 2829
0.05150000 0.05149060 39305.86732021 0 -471.24921661 0 18107.12639217 0 1188.59192463 0 2766.06604154 0 2784
0.05250000 0.05249300 39127.04927439 0 -249.21035086 0 16357.47762433 0 -1407.00460400 0 2928.49704663 0 3055
0.05350000 0.05348950 38979.56590780 0 121.53648060 0 15216.36382852 0 1358.15350690 0 325.21521734 0 3009
0.05450000 0.05448610 38069.42080771 0 1674.47875465 0 15758.35412839 0 1900.99637579 0 -2303.27608110 0 3336
0.05550000 0.05550870 36952.88757300 0 1653.17560170 0 14087.42959001 0 234.21953028 0 -3448.36484152 0 3349
0.05650000 0.05647670 35401.32269616 0 1484.40015449 0 13648.74408070 0 1407.85717302 0 -2312.52147232 0 3324
0.05750000 0.05747970 34695.01909598 0 283.45815875 0 13248.47953850 0 1697.49811795 0 -2587.64659942 0 3639
0.05850000 0.05849280 34588.61405447 0 -261.92913037 0 11094.13729854 0 1329.16616053 0 -2394.51203761 0 3846
0.05950000 0.05951020 35332.89572878 0 -191.83688534 0 13233.97479299 0 258.32176695 0 -2712.80815917 0 3787
0.06050000 0.06049470 35458.45589223 0 251.80902549 0 14241.00273525 0 -1743.71400174 0 630.43381606 0 3930
0.06150000 0.06148310 35930.13692950 0 380.87025804 0 16642.92215816 0 -901.44003832 0 -355.40723266 0 4083
0.06250000 0.06249100 34756.24905223 0 1528.50122424 0 17094.23011776 0 -199.56093914 0 976.36092421 0 4303
0.06350000 0.06350600 33472.19154301 0 1573.95311762 0 17885.34772606 0 627.85839331 0 1751.54213539 0 4470
0.06450000 0.06451750 32152.59187112 0 1739.96048363 0 16473.18341869 0 3494.10461535 0 4683.41624109 0 4479
0.06550000 0.06550280 30862.11241351 0 757.17428933 0 14726.74562504 0 3353.58574107 0 4409.66408227 0 4636
0.06650000 0.06648880 30087.04967620 0 6.47796329 0 13318.56735461 0 4959.87004716 0 2407.16770487 0 4653
0.06750000 0.06749660 29739.71084664 0 -467.09155864 0 11395.52598010 0 3163.11960954 0 2351.03101804 0 5220
0.06850000 0.06852730 29873.13236071 0 -83.52884337 0 9183.37513226 0 639.00933163 0 495.73787741 0 5029
0.06950000 0.06949320 29228.39088652 0 929.87487569 0 10041.55781198 0 -862.80094640 0 3048.87536206 0 5040
0.07050000 0.07048030 28934.30993933 0 699.44540219 0 9684.23174543 0 -778.83286391 0 2185.11223064 0 5475
0.07150000 0.07148790 28670.23499241 0 493.94858972 0 9503.26566860 0 854.77240367 0 3354.06185104 0 5509
0.07250000 0.07249820 28221.03077452 0 367.43067018 0 10162.35687575 0 1079.01909099 0 2289.18101161 0 5916
0.07350000 0.07351270 28319.68518865 0 531.77165130 0 10129.70458986 0 1153.71410145 0 3201.83952943 0 5721
0.07450000 0.07449140 27705.28188447 0 430.34251256 0 8767.52075672 0 1450.07594755 0 5753.51214551 0 6028
0.07550000 0.07549160 27311.55001391 0 390.62276174 0 9276.46016701 0 830.66130915 0 5112.33595992 0 6183
0.07650000 0.07648840 27046.92145075 0 550.12070799 0 9393.14032595 0 413.99090327 0 6902.33227940 0 6330
0.07750000 0.07749960 26853.37721292 0 591.38947705 0 10469.63603412 0 673.67678064 0 7793.62121032 0 6583
0.07850000 0.07848650 26024.61370024 0 710.21655977 0 11551.31359030 0 -963.72740159 0 5976.43126109 0 6549
0.07950000 0.07947320 26024.06008400 0 750.79552300 0 11980.47690027 0 -784.93482211 0 7454.63091368 0 6828
0.08050000 0.08048110 25328.49663889 0 352.63250806 0 12280.20473311 0 608.24044819 0 7803.74131521 0 7147
0.08150000 0.08149960 24852.49739494 0 652.88849079 0 12857.18357941 0 -56.44538325 0 6133.16001889 0 7386
0.08250000 0.08250610 24678.66189529 0 645.46228254 0 12634.29768081 0 481.42579035 0 6272.70452858 0 7227
0.08350000 0.08350160 23843.69788071 0 880.83887076 0 11342.48954422 0 1404.34724605 0 4849.83328311 0 7798
0.08450000 0.08449610 23476.65031298 0 7.98228255 0 10496.45320483 0 1125.04785250 0 4292.26422222 0 7371
0.08550000 0.08548940 22767.57863159 0 411.03237808 0 9328.98727595 0 2016.92361664 0 2456.53920124 0 8256
0.08650000 0.08650700 22298.66567552 0 819.78607171 0 8528.12602182 0 143.63684094 0 1112.72435497 0 8037
0.08750000 0.08749060 21597.23389826 0 618.16235846 0 7948.11335852 0 158.88453945 0 2149.23789822 0 8155
0.08850000 0.08849210 21051.81117769 0 480.75702193 0 7154.63734504 0 691.43568241 0 1449.74377780 0 8718
0.08950000 0.08949900 20613.56856137 0 92.99667760 0 7233.18441730 0 395.40489883 0 1532.15509143 0 8571
0.09050000 0.09049190 20725.50976529 0 99.09055301 0 7063.05814646 0 1587.53886017 0 911.21690114 0 8932
0.09150000 0.09150830 20462.65277409 0 133.91644698 0 6655.07619387 0 343.61299226 0 1220.82346218 0 9285
0.09250000 0.09250820 20031.27499916 0 703.21663602 0 6569.84143742 0 548.51522089 0 1847.21809414 0 9204
0.09350000 0.09350330 19531.80242659 0 546.23653644 0 6074.19988924 0 110.37757021 0 2036.67664412 0 9349
0.09450000 0.09448040 19775.06140285 0 -291.54427757 0 6698.12539277 0 384.70128243 0 2639.03325890 0 9564
0.09550000 0.09549270 19475.55501651 0 134.42909562 0 6777.92363773 0 3.02364153 0 1338.96516799 0 10155
0.09650000 0.09649430 19462.82184297 0 768.02406042 0 6992.78210084 0 -54.34518467 0 1337.85793551 0 9913
0.09750000 0.09749140 18754.08233133 0 835.81658359 0 7314.85388516 0 -1209.55183551 0 977.50026643 0 10476
0.09850000 0.09850240 18115.09846604 0 997.73383280 0 7709.75942215 0 -984.48358169 0 1574.29635969 0 10575
0.09950000 0.09950330 18136.80022269 0 176.34448846 0 8652.42394023 0 -30.70654625 0 779.58356753 0 10882
0.10050000 0.10051200 17268.06561742 0 -58.77998293 0 7704.76580365 0 401.88442332 0 685.77883167 0 10875
0.10150000 0.10150300 17559.59992989 0 139.95529294 0 7709.74834982 0 1304.81811825 0 -64.27052737 0 11118
0.10250000 0.10250800 17386.20732323 0 -171.68857587 0 7224.78052277 0 1031.99603472 0 -419.70311565 0 11575
0.10350000 0.10349800 17252.67508592 0 286.88947221 0 6721.03403282 0 1104.43229092 0 755.92533109 0 11364
0.10450000 0.10450100 17297.18583169 0 140.34725324 0 5831.69383106 0 563.88250050 0 -429.94723057 0 12093
0.10550000 0.10551000 16846.09931858 0 271.11473104 0 5858.06810878 0 222.22709527 0 951.73718104 0 12067
0.10650000 0.10649700 16505.51460716 0 468.23643702 0 5621.68504622 0 -83.11495987 0 377.95270045 0 12054
0.10750000 0.10749900 16380.28661346 0 364.12558122 0 5549.41598213 0 311.25412298 0 1012.17325160 0 12807
0.10850000 0.10850100 15862.76615143 0 298.97602199 0 5318.36978014 0 812.07641194 0 1426.64690823 0 12736
0.10950000 0.10950300 15656.82090981 0 437.79529440 0 5488.98323327 0 228.70329806 0 432.66659354 0 12933
0.11050000 0.11050200 15287.89104685 0 339.70113990 0 5000.46118995 0 116.57165016 0 1471.56733002 0 13428
0.11150000 0.11150900 15135.64658059 0 93.25333409 0 5333.35063562 0 274.84831897 0 533.36052991 0 13453
0.11250000 0.11250000 15219.35335622 0 -93.93018530 0 5150.40261264 0 -174.32932534 0 1105.09663041 0 13668
0.11350000 0.11349100 14979.08390766 0 156.14967522 0 5078.45464597 0 1.34959460 0 227.93598595 0 13791
0.11450000 0.11448600 14969.78315481 0 324.90187055 0 5138.48879114 0 65.37322019 0 70.76854263 0 14205
0.11550000 0.11549300 14495.66620608 0 181.35914437 0 4986.04502303 0 151.74510441 0 -22.18495290 0 14776
0.11650000 0.11649800 14395.68311296 0 378.27269064 0 5030.48933486 0 -31.80779968 0 -795.19554552 0 14553
0.11750000 0.11747300 14114.88895556 0 228.70108359 0 4978.81479493 0 215.43754569 0 -109.53053736 0 14568
0.11850000 0.11849100 14052.55176683 0 250.87784297 0 4763.35842628 0 156.97124172 0 -76.57431615 0 16015
0.11950000 0.11950300 13867.09032612 0 -35.26469021 0 4840.68754281 0 122.57174297 0 125.51255245 0 15270
0.12050000 0.12050700 13769.54314447 0 109.76261329 0 4897.80966655 0 233.37139020 0 -203.84039268 0 15999
0.12150000 0.12150000 13902.52176554 0 36.13663579 0 4805.36682664 0 600.70905285 0 488.65048229 0 15670
0.12250000 0.12250700 13749.72368304 0 96.38990226 0 4214.82438244 0 440.89333088 0 138.44502783 0 16887
0.12350000 0.12352200 13948.47191354 0 -158.30102793 0 4510.24508093 0 272.07027268 0 425.85822101 0 16407
0.12450000 0.12449800 14030.96073344 0 -14.45879536 0 4541.44689227 0 94.95072148 0 261.11310004 0 16306
0.12550000 0.12549900 13768.65735848 0 458.60462166 0 4447.50928850 0 -127.24647851 0 47.79634744 0 17523
0.12650000 0.12650100 13667.23486314 0 146.65847839 0 4718.05047312 0 -112.50146355 0 429.96383906 0 17154
0.12750000 0.12750600 13565.81236781 0 11.59228119 0 4167.60091709 0 263.83246301 0 254.90484751 0 18007
0.12850000 0.12850300 13509.78640422 0 -43.80366711 0 4162.91732369 0 650.59873402 0 -280.68011246 0 17496
0.12950000 0.12949900 13288.22918460 0 59.57420079 0 3602.46945835 0 597.99965497 0 -350.05376361 0 18405
0.13050000 0.13049000 13243.60771558 0 354.10734172 0 3585.07483606 0 281.08646678 0 -398.61144410 0 18100
0.13150000 0.13148800 12889.29332139 0 222.84493100 0 3503.71539329 0 215.35671772 0 -280.94031209 0 19059
0.13250000 0.13249300 12738.82042710 0 266.65258414 0 3512.39609595 0 -342.94311661 0 -171.33204701 0 18957
0.13350000 0.13349100 12422.70555353 0 372.65791472 0 3745.78963080 0 -96.61688492 0 246.10124205 0 19468
0.13450000 0.13450700 12315.85761903 0 372.40325125 0 3864.69532703 0 -122.50088010 0 457.72326461 0 19953
0.13550000 0.13551000 12160.73434832 0 85.71153076 0 3953.77218019 0 -3.15302165 0 994.77973654 0 19956
0.13650000 0.13649900 12062.41210393 0 42.79608555 0 4065.48086529 0 507.70595330 0 1181.33955188 0 19723
0.13750000 0.13749600 12121.98121145 0 -25.88775977 0 3761.05836672 0 520.23207437 0 1475.92982600 0 20946
0.13850000 0.13851100 12083.78169083 0 106.77352848 0 3686.25374025 0 549.96458821 0 981.27260750 0 20955
0.13950000 0.13949800 11983.35570472 0 290.92865631 0 3393.21359160 0 147.01279278 0 1434.07643819 0 20506
0.14050000 0.14048300 11615.53307425 0 344.36812481 0 3486.27648170 0 -196.05544110 0 1048.05976357 0 21447
0.14150000 0.14148400 11344.48256269 0 292.56293145 0 3243.64862795 0 286.46208048 0 1630.04551515 0 21771
0.14250000 0.14249400 11179.39419964 0 177.82485828 0 3335.55999627 0 307.10864456 0 865.40958613 0 22470
0.14350000 0.14350900 10896.67345772 0 136.98126649 0 2762.02464299 0 334.35099255 0 1014.97233531 0 22519
0.14450000 0.14449900 10733.98778916 0 50.70106113 0 2607.26675900 0 363.45127664 0 560.19430911 0 22218
0.14550000 0.14550500 10788.90652026 0 -5.61562848 0 2181.80160551 0 462.44782561 0 265.82548148 0 23559
0.14650000 0.14650700 10792.57145978 0 45.91903476 0 2134.96567153 0 -6.80475188 0 104.59106253 0 23044
0.14750000 0.14750500 10516.89271644 0 324.94173092 0 1952.10622715 0 -223.88019337 0 114.41143958 0 23649
0.14850000 0.14849900 10444.77866490 0 280.82515991 0 2436.16612357 0 -459.65870699 0 186.96838412 0 23640
0.14950000 0.14949500 9964.82660099 0 381.49584439 0 2369.88718721 0 -24.87120962 0 400.79712102 0 24457
0.15050000 0.15050000 9999.87050904 0 103.79086562 0 2749.23610782 0 -11.03421388 0 -38.46348485 0 24591
0.15150000 0.15149900 9816.03670007 0 119.93099351 0 2891.48226477 0 -28.42631168 0 265.54092273 0 25020
0.15250000 0.15250500 9895.81280039 0 141.91177274 0 3227.68233556 0 -117.27031385 0 88.02797184 0 25297
0.15350000 0.15350100 9701.73709097 0 163.41644200 0 3034.53670142 0 -99.64350491 0 312.97144056 0 25452
0.15450000 0.15450400 9658.11213118 0 213.67372435 0 3220.68462627 0 -87.41899397 0 130.50063478 0 26061
0.15550000 0.15549900 9495.05000358 0 119.72061933 0 3196.51374119 0 147.31728171 0 291.90302089 0 26128
0.15650000 0.15649500 9391.94451487 0 110.36516920 0 2921.70971152 0 193.28403820 0 54.40575029 0 26331
0.15750000 0.15749700 9343.79097423 0 7.62490112 0 2837.09500526 0 235.03666786 0 55.79820586 0 27345
0.15850000 0.15849900 9308.82457246 0 28.17220182 0 2898.01493641 0 166.53440867 0 94.37573565 0 26980
0.15950000 0.15949700 9267.71303040 0 81.08739575 0 2574.52589451 0 163.64453189 0 23.90902460 0 27777
0.16050000 0.16050000 9327.69181395 0 145.68743550 0 2875.02879008 0 -142.18636639 0 121.04376215 0 28224
0.16150000 0.16150500 9158.63955862 0 67.37731099 0 2912.65254982 0 -39.71532189 0 289.24787740 0 28075
0.16250000 0.16249700 9027.70931764 0 196.28242376 0 2952.67900404 0 -93.46437260 0 323.36281740 0 28590
0.16350000 0.16349900 8982.40136448 0 118.88133711 0 2866.53631695 0 144.17163423 0 49.33495769 0 29163
0.16450000 0.16449100 8872.82963807 0 -107.33323450 0 3040.20573173 0 172.85449167 0 179.52224568 0 28996
0.16550000 0.16550500 8966.59008464 0 48.34697415 0 2776.17507410 0 254.63357555 0 2.51662871 0 30777
0.16650000 0.16650700 8885.67353486 0 92.23921986 0 2828.40323027 0 188.81081897 0 267.32135256 0 29211
0.16750000 0.16749900 8754.52184738 0 224.34965994 0 2812.35943161 0 78.63653665 0 -68.41545216 0 30922
0.16850000 0.16850800 8740.60393509 0 151.19259540 0 2742.71450850 0 -9.35598160 0 432.44957598 0 30867
0.16950000 0.16949900 8472.55402355 0 118.56799032 0 2833.05360670 0 79.84364150 0 636.75057737 0 30852
0.17050000 0.17049200 8593.12056850 0 -57.16674521 0 2563.71930548 0 467.90648174 0 592.91745788 0 31257
0.17150000 0.17149500 8596.88515894 0 -70.86420752 0 2517.09374567 0 393.67318723 0 485.04311887 0 32608
0.17250000 0.17250900 8547.69081977 0 181.52190754 0 2173.90703792 0 70.77673615 0 227.38790587 0 32361
0.17350000 0.17350400 8414.32466733 0 203.59126537 0 2369.88718721 0 -230.54130398 0 466.83800240 0 32508
0.17450000 0.17449800 8170.85531689 0 244.32191945 0 2076.88025553 0 -105.68046857 0 457.60036180 0 32791
0.17550000 0.17549800 8146.65121484 0 110.70652898 0 2394.73348410 0 22.97263809 0 705.32591390 0 33633
0.17650000 0.17650100 8037.22342866 0 24.22702177 0 2251.43545630 0 191.86899508 0 336.51452482 0 33984
0.17750000 0.17750300 8031.69833857 0 27.99692692 0 2242.36722227 0 424.02796572 0 517.05985331 0 34069
0.17850000 0.17849800 7995.64684896 0 87.50181496 0 2166.92040096 0 260.75435671 0 599.88527188 0 34536
