### header ###
fiducial parameters:
Omega_m = 0.31
Omega_nu = 0
Omega_de = 0.69
Omega_k = 0
H_0 = 100
w_de = -1
zeff = 0
beta = 0
fgrowth = 0
b_1 = 2
gamma = 0.55
Lx = 3500 Ly = 3500 Lz = 3500
nx = 700 ny = 700 nz = 700
xoffset = -685.467585 yoffset = -31.7331281 zoffset = 572.489161
bins = 400 dk = 0.001
kx_ny = 0.628318531 ky_ny = 0.628318531 kz_ny = 0.628318531
############################
A(data) = 8.05775649 (not used)
A(ran) = 8.05301102 (used)
Ngal = 478673
weighted Ngal = 0
Nran = 23820508
weighted Nran = 0
SN(data) = 3489.74722
SN(ran) = 70.1446465
SN(data+ran) = 3559.89187
############################
13 columns: k_central k_mean P_0(k) sigma^{lin}_{P_0(k)} P^img_1(k) sigma^{lin}_{P_1(k)} P_2(k) sigma^{lin}_{P_2(k)} P^img_3(k) sigma^{lin}_{P_3(k)} P_4(k) sigma^{lin}_{P_4(k)} N_modes
### header ###
0.00050000 0 0 0 0 0 0 0 0 0 0 0 0
0.00150000 0.00179520 3576.62665222 0 -2550.70932382 0 -5511.60399288 0 12883.42498923 0 10063.40350885 0 3
0.00250000 0.00253879 17305.71152180 0 -15142.95431497 0 -4638.16364956 0 -16114.44009456 0 -23208.03571288 0 6
0.00350000 0.00331552 27176.46765113 0 -25768.51082719 0 -29644.26740671 0 37655.53730599 0 33765.27598096 0 7
0.00450000 0.00420575 52161.61149739 0 -32264.09018205 0 -27525.46732941 0 2143.77924209 0 -20939.86997378 0 24
0.00550000 0.00557378 78330.38686678 0 -20524.65779308 0 -24388.67770829 0 -34598.02553057 0 -32522.18607357 0 45
0.00650000 0.00659388 90939.21820051 0 7066.61236273 0 -607.25501128 0 -49883.70211245 0 -14246.98179065 0 40
0.00750000 0.00754703 81845.84999670 0 3552.64399666 0 -10457.84400819 0 -55041.52318272 0 -27953.85557664 0 57
0.00850000 0.00846663 74261.63966567 0 2087.95258035 0 13166.65505809 0 -30123.92051785 0 -17439.35448236 0 75
0.00950000 0.00948925 90445.61396009 0 -9529.00882380 0 11010.27551036 0 -46609.94783333 0 -88283.52109275 0 112
0.01050000 0.01054430 94065.15694331 0 9190.49463712 0 48111.57652523 0 -58127.60155618 0 -83022.61667842 0 105
0.01150000 0.01145670 81335.96943880 0 22862.02556229 0 39660.07099116 0 -54617.01024918 0 -66700.23832377 0 144
0.01250000 0.01249090 75442.50310758 0 8565.86050480 0 46799.61675747 0 -22140.88504685 0 -61304.91588614 0 169
0.01350000 0.01339930 62446.36185169 0 -8592.58909691 0 43983.26021660 0 299.99689033 0 -67125.19415031 0 180
0.01450000 0.01448870 87936.29298644 0 -12322.16884418 0 49111.40745635 0 31344.31215936 0 -104145.84435119 0 267
0.01550000 0.01550050 78660.67431612 0 -3421.54767081 0 10303.44043859 0 7488.11362393 0 -65317.19423067 0 238
0.01650000 0.01653350 90151.64373616 0 4730.40718762 0 22787.84098601 0 -3312.16417393 0 -65402.22968528 0 315
0.01750000 0.01747870 83172.86812621 0 2089.11517446 0 8890.87752753 0 -20414.48816113 0 -38825.43914633 0 297
0.01850000 0.01844180 83343.82482141 0 2622.43584400 0 34467.48282096 0 -9402.10890905 0 -32355.21541530 0 388
0.01950000 0.01947590 84712.80706199 0 -1008.78069127 0 34200.52906958 0 810.54621665 0 -13796.11672403 0 399
0.02050000 0.02045430 87942.38276509 0 2811.25219913 0 42621.58571040 0 17820.90679561 0 -2844.10378687 0 462
0.02150000 0.02154770 82500.11367023 0 5771.25000987 0 32864.09946397 0 17250.46062095 0 12718.89024243 0 571
0.02250000 0.02255340 79891.47394296 0 9407.45684194 0 45175.19598333 0 17718.15562129 0 12067.94826634 0 510
0.02350000 0.02348930 71419.26316147 0 9156.02648996 0 34899.85710513 0 7265.80348622 0 15756.25038668 0 555
0.02450000 0.02439640 63465.90152099 0 5839.49982005 0 41151.95603722 0 10603.26792235 0 26698.47538871 0 592
0.02550000 0.02547300 59347.21813495 0 1332.43249635 0 36501.69033664 0 1456.12143690 0 19412.88565804 0 837
0.02650000 0.02652900 60464.85860215 0 -2453.61610749 0 37169.13007671 0 6711.99901576 0 21801.51829116 0 723
0.02750000 0.02749970 64040.55517908 0 -168.26169134 0 42312.44640146 0 5023.54698719 0 14015.45947869 0 826
0.02850000 0.02848090 62979.27284521 0 2687.62969253 0 36409.67931740 0 3706.21714190 0 15325.97984423 0 831
0.02950000 0.02946900 60804.11463459 0 -686.41659757 0 35247.63882768 0 3561.11432515 0 12875.34219211 0 996
0.03050000 0.03053250 60438.61719233 0 2272.73860925 0 35703.26499397 0 3654.33222780 0 17766.09878776 0 1041
0.03150000 0.03150510 60845.08223642 0 2388.10116154 0 35460.89180369 0 8877.22535102 0 15725.35860043 0 1036
0.03250000 0.03246190 55361.73481648 0 2606.34775604 0 28285.47170496 0 3498.47818365 0 16553.45777362 0 1059
0.03350000 0.03345080 57967.27429280 0 916.39985638 0 28365.08172041 0 8380.24405154 0 17054.70191816 0 1302
0.03450000 0.03451200 55348.11585695 0 -216.03434400 0 20470.62484796 0 4319.12568223 0 9463.18385275 0 1339
0.03550000 0.03553350 56605.04617037 0 833.49028814 0 25928.61664407 0 -559.19779987 0 10535.95925978 0 1365
0.03650000 0.03647120 55128.77310230 0 644.28972334 0 21489.38945453 0 217.44385095 0 5337.34774488 0 1308
0.03750000 0.03744890 53538.78725834 0 2102.81164026 0 25447.74557719 0 277.60532785 0 9752.83587001 0 1579
0.03850000 0.03847530 54681.00828663 0 1599.78485142 0 21877.80660916 0 -1004.89430526 0 8133.37549738 0 1662
0.03950000 0.03950240 52165.37608783 0 597.01643252 0 21779.48436477 0 5824.37502435 0 6693.98434328 0 1683
0.04050000 0.04050350 51169.08830065 0 1303.94340459 0 21311.56791794 0 1224.33338915 0 3349.35611299 0 1822
0.04150000 0.04152450 49055.93510901 0 2097.64086457 0 19307.25567927 0 -1761.80618049 0 -292.55075189 0 1887
0.04250000 0.04250150 47403.83352282 0 3842.10778440 0 21012.39370134 0 -3008.01848348 0 1027.05224169 0 1920
0.04350000 0.04349210 43065.25376588 0 3494.18212162 0 22726.38958326 0 -2875.10629636 0 541.29606511 0 2005
0.04450000 0.04448520 43857.47860666 0 1744.19011171 0 27306.23529800 0 -2142.12946569 0 555.38670567 0 2151
0.04550000 0.04548030 40409.66738138 0 2874.12085945 0 25113.47209092 0 4058.81532575 0 2246.28682526 0 2274
0.04650000 0.04648670 39133.91411578 0 1712.30181623 0 23600.66035094 0 5403.98099564 0 2207.78835186 0 2311
0.04750000 0.04749250 38539.77316601 0 -1786.82963458 0 21901.72283077 0 7844.31031334 0 2488.57143694 0 2568
0.04850000 0.04851840 39827.26309592 0 -1168.24099162 0 21979.00765801 0 7761.57790230 0 -2457.55785512 0 2493
0.04950000 0.04949480 38345.89675843 0 1132.27808060 0 13765.66783078 0 2306.76386342 0 -1212.58565251 0 2644
0.05050000 0.05050630 35704.81511944 0 2582.96300602 0 14052.21959709 0 825.79280793 0 2655.65281845 0 2829
0.05150000 0.05149060 35852.85210227 0 1486.73641502 0 12708.15008735 0 -1185.82384343 0 4635.70559345 0 2784
0.05250000 0.05249300 35323.92714568 0 -852.37967428 0 10248.83173258 0 3642.65092511 0 731.22186719 0 3055
0.05350000 0.05348950 35435.42545660 0 -983.07296751 0 11039.36250766 0 2737.65445606 0 1748.61904163 0 3009
0.05450000 0.05448610 37171.56598817 0 -959.31950908 0 11245.16380907 0 -1666.48453613 0 -1873.71416744 0 3336
0.05550000 0.05550870 37037.48013461 0 156.26150570 0 12807.02594798 0 -1499.00455092 0 -1243.45529411 0 3349
0.05650000 0.05647670 37500.96765152 0 791.85613236 0 12238.57279179 0 -644.12696016 0 1681.65362113 0 3324
0.05750000 0.05747970 36730.22312090 0 188.84071425 0 11952.13174874 0 -1366.66812469 0 2302.48994604 0 3639
0.05850000 0.05849280 36526.27089774 0 305.26178079 0 12219.74983960 0 2557.28628476 0 -1164.89714952 0 3846
0.05950000 0.05951020 35245.20291622 0 1467.90239051 0 11449.55892522 0 -424.31584617 0 -889.69340892 0 3787
0.06050000 0.06049470 34449.10276176 0 2024.13170010 0 11661.26177575 0 1784.16120430 0 -1701.29592536 0 3930
0.06150000 0.06148310 32612.42552084 0 1524.49304266 0 11872.41101004 0 929.28804247 0 -687.30016910 0 4083
0.06250000 0.06249100 30762.01859715 0 741.14599192 0 11255.79324089 0 -346.30910335 0 -479.45823823 0 4303
0.06350000 0.06350600 31019.67159568 0 607.45320590 0 12923.61752832 0 -445.60460509 0 -519.71278234 0 4470
0.06450000 0.06451750 30286.35152294 0 495.42785231 0 12632.63683209 0 236.21808491 0 1436.29090315 0 4479
0.06550000 0.06550280 30202.64474731 0 110.15590226 0 14697.51468752 0 233.00932518 0 48.80082875 0 4636
0.06650000 0.06648880 30965.19575757 0 -80.71569780 0 13528.05574017 0 1198.77846347 0 1024.11143222 0 4653
0.06750000 0.06749660 31036.39080615 0 -20.45346274 0 13795.12021480 0 1274.01491061 0 1537.93484499 0 5220
0.06850000 0.06852730 30771.76224299 0 -430.82969486 0 11454.87364113 0 1139.51938104 0 1857.65929645 0 5029
0.06950000 0.06949320 31288.39691903 0 -256.98312288 0 11271.84811188 0 3520.21315727 0 2048.69011654 0 5040
0.07050000 0.07048030 30560.94517844 0 976.97100930 0 10590.35759162 0 1030.43372969 0 125.62549016 0 5475
0.07150000 0.07148790 30172.30657731 0 1869.52882865 0 9802.60597007 0 1203.49527384 0 248.34892398 0 5509
0.07250000 0.07249820 27984.63663964 0 1104.69359778 0 9169.00325465 0 220.76665563 0 1782.45606628 0 5916
0.07350000 0.07351270 27587.25090190 0 712.86505987 0 9232.43660353 0 924.71738679 0 1991.93337952 0 5721
0.07450000 0.07449140 26367.30215338 0 408.53446160 0 9590.27199702 0 325.99913794 0 2368.25955546 0 6028
0.07550000 0.07549160 27229.83625675 0 321.68868189 0 10862.99144562 0 238.97398656 0 3475.44774803 0 6183
0.07650000 0.07648840 26518.66083365 0 50.86991408 0 11699.12912663 0 -622.23475953 0 4096.28407293 0 6330
0.07750000 0.07749960 26286.47418220 0 887.62620588 0 11620.07272742 0 -49.12524786 0 5915.95422293 0 6583
0.07850000 0.07848650 26611.55763888 0 439.64437264 0 12504.41931069 0 996.26010637 0 5802.18608542 0 6549
0.07950000 0.07947320 26117.73195197 0 -19.68105737 0 12026.20560177 0 418.59477593 0 4586.83235170 0 6828
0.08050000 0.08048110 25989.07153757 0 662.11284460 0 12465.22328083 0 788.48350222 0 3922.59251350 0 7147
0.08150000 0.08149960 25140.82073322 0 688.93333701 0 12074.14876824 0 446.55350333 0 3909.42751929 0 7386
0.08250000 0.08250610 24387.79192230 0 789.97272991 0 10032.29027611 0 1861.55675478 0 4195.69140515 0 7227
0.08350000 0.08350160 23440.77598056 0 240.28494982 0 9471.78704914 0 2353.40049555 0 3539.78902755 0 7798
0.08450000 0.08449610 23498.79496261 0 522.37678369 0 7723.84341932 0 2613.69977972 0 2748.91501040 0 7371
0.08550000 0.08548940 22443.04879116 0 626.70576429 0 6973.13979661 0 1790.60529735 0 4454.19697269 0 8256
0.08650000 0.08650700 21389.07419167 0 691.38032079 0 5575.21449896 0 1630.84272254 0 4920.36399221 0 8037
0.08750000 0.08749060 21371.24774871 0 262.29119540 0 5543.58086695 0 686.94917640 0 4757.96620409 0 8155
0.08850000 0.08849210 21218.78183596 0 336.90094895 0 5652.46610922 0 -531.28225454 0 3415.76791725 0 8718
0.08950000 0.08949900 20290.81029291 0 766.07533125 0 6555.10417308 0 -1171.52947209 0 4141.00519287 0 8571
0.09050000 0.09049190 20021.97424631 0 934.15432923 0 6966.24173825 0 -1403.48360471 0 2757.61785771 0 8932
0.09150000 0.09150830 19476.99441874 0 308.12397675 0 7206.74370564 0 -697.20547088 0 1498.15198191 0 9285
0.09250000 0.09250820 19122.01568505 0 343.41811934 0 7739.37789104 0 -180.40360274 0 1057.31954881 0 9204
0.09350000 0.09350330 19133.64162611 0 194.92938566 0 7065.59370885 0 -447.18241138 0 -460.47805902 0 9349
0.09450000 0.09448040 19163.09401013 0 -42.03275948 0 7326.50197087 0 275.89576090 0 -528.46434787 0 9564
0.09550000 0.09549270 19261.85914751 0 524.97102939 0 7698.50994013 0 -205.92641867 0 -932.57652294 0 10155
0.09650000 0.09649430 18793.72125418 0 188.35796088 0 7151.65888966 0 157.75184062 0 -718.21409999 0 9913
0.09750000 0.09749140 18841.33225090 0 -202.26480086 0 7410.82879669 0 1028.90685610 0 396.63281965 0 10476
0.09850000 0.09850240 19187.56384798 0 -442.80219968 0 7016.23328481 0 913.53433872 0 553.34164728 0 10575
0.09950000 0.09950330 19228.97434280 0 116.54507658 0 7227.26072352 0 1374.83950041 0 188.29595587 0 10882
0.10050000 0.10051200 18660.85335635 0 896.28476388 0 7286.88519267 0 755.93972511 0 773.16715530 0 10875
0.10150000 0.10150300 18028.84505571 0 877.33780166 0 6219.43557388 0 -316.70724295 0 1880.18040513 0 11118
0.10250000 0.10250800 17120.69297408 0 412.34112687 0 6108.34693898 0 200.94165804 0 894.23638379 0 11575
0.10350000 0.10349800 17097.77326171 0 90.17699936 0 5968.22666840 0 698.44667849 0 940.09906042 0 11364
0.10450000 0.10450100 17092.79071554 0 -232.27744451 0 5366.97728609 0 647.61917141 0 931.85128567 0 12093
0.10550000 0.10551000 17014.50937907 0 -59.97789776 0 5158.77329020 0 811.42425201 0 598.58870265 0 12067
0.10650000 0.10649700 17154.35284153 0 214.35577956 0 4484.41334712 0 724.64712071 0 679.87728254 0 12054
0.10750000 0.10749900 16624.65282220 0 438.51388828 0 4710.04518228 0 833.37845766 0 783.72793871 0 12807
0.10850000 0.10850100 16358.58485681 0 416.18875975 0 4317.05515749 0 -62.33143112 0 742.42816713 0 12736
0.10950000 0.10950300 15951.34474998 0 295.42069849 0 4651.37293307 0 12.54715848 0 1098.62153485 0 12933
0.11050000 0.11050200 15311.58582196 0 391.26938551 0 4936.45208017 0 -353.04882747 0 871.85921533 0 13428
0.11150000 0.11150900 15432.16343924 0 260.82854129 0 4804.92393365 0 -492.40400040 0 592.16232532 0 13453
0.11250000 0.11250000 14899.91678520 0 282.66648753 0 4683.98092966 0 -237.96972670 0 891.01323004 0 13668
0.11350000 0.11349100 15079.06700077 0 300.45528458 0 4551.93238387 0 114.79122032 0 621.74425554 0 13791
0.11450000 0.11448600 14780.66784691 0 90.14223226 0 4729.07850864 0 247.41995593 0 899.27318435 0 14205
0.11550000 0.11549300 14849.42698403 0 163.77407809 0 4622.06448927 0 804.42543549 0 459.57787902 0 14776
0.11650000 0.11649800 14880.65094002 0 -131.22697929 0 4672.45463952 0 499.80917124 0 1633.28970632 0 14553
0.11750000 0.11747300 15034.22408525 0 -36.07618089 0 4618.72064717 0 -9.41307051 0 669.00979573 0 14568
0.11850000 0.11849100 14903.12775940 0 194.37023326 0 5053.08794981 0 -318.46663536 0 1529.27628698 0 16015
0.11950000 0.11950300 15015.40113306 0 289.42282013 0 5279.87130675 0 -113.35846149 0 943.96330179 0 15270
0.12050000 0.12050700 14398.78336391 0 451.28360049 0 5018.83017682 0 -374.24014994 0 1174.24219167 0 15999
0.12150000 0.12150000 14400.77638238 0 330.29852167 0 5287.22333043 0 -94.35314811 0 674.36437201 0 15670
0.12250000 0.12250700 14048.67645315 0 195.68119652 0 5290.42323230 0 378.09221174 0 542.84951228 0 16887
0.12350000 0.12352200 13910.16166967 0 27.40832213 0 4814.77830274 0 688.92890808 0 336.69057478 0 16407
0.12450000 0.12449800 13877.94120444 0 31.10991104 0 4641.36355143 0 362.68839346 0 646.94929576 0 16306
0.12550000 0.12549900 13741.19799293 0 318.06913890 0 4838.01911253 0 394.81363669 0 972.63508690 0 17523
0.12650000 0.12650100 13403.49208596 0 415.38380173 0 4317.27660399 0 473.35628002 0 1804.09138898 0 17154
0.12750000 0.12750600 13224.34187040 0 241.76974858 0 4987.14118319 0 170.26799660 0 1575.27072427 0 18007
0.12850000 0.12850300 13057.70338188 0 228.70994145 0 4612.90767665 0 -90.19704027 0 1763.28987202 0 17496
0.12950000 0.12949900 12844.78257562 0 359.59700037 0 4991.08293083 0 -252.12237228 0 1850.39585137 0 18405
0.13050000 0.13049000 12671.05779921 0 144.99320073 0 4631.39845909 0 -132.42943376 0 1697.64205817 0 18100
0.13150000 0.13148800 12535.64326668 0 -129.54841484 0 4595.90058572 0 490.09984961 0 1216.51632782 0 19059
0.13250000 0.13249300 12507.74100814 0 155.76657278 0 4081.08177096 0 251.02510489 0 472.07299757 0 18957
0.13350000 0.13349100 12293.82369264 0 328.30993213 0 4150.82634499 0 319.23394747 0 168.48424507 0 19468
0.13450000 0.13450700 11863.99604318 0 333.08099689 0 3485.51249129 0 130.78740799 0 214.78317130 0 19953
0.13550000 0.13551000 11580.65525107 0 310.19007256 0 3528.69455808 0 361.77381943 0 550.01109197 0 19956
0.13650000 0.13649900 11462.07065226 0 267.88161220 0 3201.60701061 0 549.49290717 0 764.69350511 0 19723
0.13750000 0.13749600 11155.47797803 0 54.36079665 0 3245.19875342 0 625.02166369 0 1137.94711091 0 20946
0.13850000 0.13851100 11307.50099779 0 53.63411998 0 3093.09822739 0 257.02409048 0 981.05226823 0 20955
0.13950000 0.13949800 11214.16129957 0 -1.57275731 0 3190.23573302 0 49.20098256 0 878.05307384 0 20506
0.14050000 0.14048300 11074.87145335 0 362.14584954 0 3438.65441265 0 -350.03051172 0 742.45363348 0 21447
0.14150000 0.14148400 10746.14520181 0 309.41390259 0 3391.81847867 0 -527.96720049 0 1072.19410998 0 21771
0.14250000 0.14249400 10621.22723321 0 144.30450213 0 3611.12801635 0 -338.18423140 0 870.13746883 0 22470
0.14350000 0.14350900 10790.26841622 0 -88.48559102 0 3694.49154991 0 232.16782849 0 903.56924638 0 22519
0.14450000 0.14449900 10697.96951653 0 84.35594603 0 3954.37008573 0 -170.36654029 0 84.01148601 0 22218
0.14550000 0.14550500 10790.14662064 0 120.40378178 0 3732.00458640 0 219.73582219 0 416.84867031 0 23559
0.14650000 0.14650700 10657.46695234 0 -31.37110719 0 3799.05858550 0 180.58851056 0 684.35160900 0 23044
0.14750000 0.14750500 10711.98707975 0 171.11392221 0 3689.70830559 0 152.66632183 0 375.63304840 0 23649
0.14850000 0.14849900 10533.89980737 0 83.24184871 0 3846.99067964 0 257.41383631 0 504.08751755 0 23640
0.14950000 0.14949500 10463.49089384 0 199.02946755 0 3355.29087909 0 240.08675521 0 19.30338037 0 24457
0.15050000 0.15050000 10256.30555184 0 338.49868543 0 3497.83598881 0 293.34795928 0 612.67380705 0 24591
0.15150000 0.15149900 9978.52306679 0 193.67156957 0 3333.09086783 0 218.58430041 0 307.65008125 0 25020
0.15250000 0.15250500 9895.45848600 0 -7.32251593 0 3004.65249674 0 584.74829662 0 622.45177710 0 25297
0.15350000 0.15350100 9851.19133137 0 -161.84306464 0 2658.77521405 0 434.50459946 0 160.08477946 0 25452
0.15450000 0.15450400 9932.01930255 0 123.63800785 0 2924.22312925 0 378.76430186 0 526.39271590 0 26061
0.15550000 0.15549900 9802.91599516 0 192.36946417 0 2584.47991452 0 -156.75754585 0 621.14524277 0 26128
0.15650000 0.15649500 9603.38162961 0 133.02623207 0 2570.82773802 0 -128.72574111 0 765.65901184 0 26331
0.15750000 0.15749700 9545.89411915 0 195.58929622 0 2818.98068185 0 -270.39724440 0 1005.88638557 0 27345
0.15850000 0.15849900 9483.83373854 0 161.68362316 0 3102.25504001 0 -183.91906587 0 817.65354195 0 26980
0.15950000 0.15949700 9418.71739628 0 148.60388586 0 3349.00179860 0 7.87326444 0 1180.97416516 0 27777
0.16050000 0.16050000 9421.55191143 0 86.17734347 0 3408.20551940 0 -112.40402709 0 1018.71145940 0 28224
0.16150000 0.16150500 9307.34088093 0 -32.09435144 0 3296.67399150 0 141.70693473 0 1248.01709193 0 28075
0.16250000 0.16249700 9480.66705364 0 -16.26701673 0 3343.67601036 0 454.50564702 0 1089.67731086 0 28590
0.16350000 0.16349900 9533.65920022 0 -192.83671627 0 3324.18871868 0 75.37086517 0 746.14071765 0 29163
0.16450000 0.16449100 9582.25563385 0 -34.42396858 0 2987.12500655 0 258.33283927 0 603.01652534 0 28996
0.16550000 0.16550500 9557.49791556 0 99.97213151 0 2799.12800345 0 4.93533378 0 416.19208145 0 30777
0.16650000 0.16650700 9424.46393286 0 172.41934931 0 2536.48138643 0 -25.27723177 0 355.19132232 0 29211
0.16750000 0.16749900 9229.19241236 0 338.10672513 0 2500.98351306 0 118.39415482 0 -156.96459833 0 30922
0.16850000 0.16850800 8887.55583008 0 411.60703174 0 2439.76462914 0 16.89216019 0 -53.57742967 0 30867
0.16950000 0.16949900 8563.55746124 0 289.52911445 0 2173.95132722 0 104.29421350 0 -172.65518983 0 30852
0.17050000 0.17049200 8346.20772505 0 114.40036726 0 2134.31240437 0 253.51194905 0 197.70078857 0 31257
0.17150000 0.17149500 8216.41793352 0 84.04270996 0 2072.17451748 0 592.22654481 0 -99.12842036 0 32608
0.17250000 0.17250900 8210.47209510 0 -36.80363263 0 1693.56744264 0 425.14405606 0 53.62791947 0 32361
0.17350000 0.17350400 8174.46489479 0 12.70571418 0 1616.30476005 0 307.16289896 0 360.87363942 0 32508
0.17450000 0.17449800 8227.66741554 0 165.65415884 0 1648.82417804 0 -20.54403436 0 262.59125540 0 32791
0.17550000 0.17549800 7998.32635157 0 129.23617528 0 1646.37719426 0 -124.07868638 0 615.02446161 0 33633
0.17650000 0.17650100 7948.77769801 0 184.83363990 0 1726.51868130 0 -246.65707275 0 564.46047586 0 33984
0.17750000 0.17750300 7745.06906599 0 164.34319559 0 1900.29881932 0 -206.34495255 0 469.70019836 0 34069
0.17850000 0.17849800 7672.34603658 0 238.58756242 0 2168.88020245 0 -47.74884716 0 293.32027847 0 34536
