### header ###
fiducial parameters:
Omega_m = 0.31
Omega_nu = 0
Omega_de = 0.69
Omega_k = 0
H_0 = 100
w_de = -1
zeff = 0
beta = 0
fgrowth = 0
b_1 = 2
gamma = 0.55
Lx = 3500 Ly = 3500 Lz = 3500
nx = 700 ny = 700 nz = 700
xoffset = -685.467585 yoffset = -31.7331281 zoffset = 572.489161
bins = 400 dk = 0.001
kx_ny = 0.628318531 ky_ny = 0.628318531 kz_ny = 0.628318531
############################
A(data) = 8.08333416 (not used)
A(ran) = 8.07389202 (used)
Ngal = 479735
weighted Ngal = 0
Nran = 23820508
weighted Nran = 0
SN(data) = 3500.12745
SN(ran) = 70.3265276
SN(data+ran) = 3570.45398
############################
13 columns: k_central k_mean P_0(k) sigma^{lin}_{P_0(k)} P^img_1(k) sigma^{lin}_{P_1(k)} P_2(k) sigma^{lin}_{P_2(k)} P^img_3(k) sigma^{lin}_{P_3(k)} P_4(k) sigma^{lin}_{P_4(k)} N_modes
### header ###
0.00050000 0 0 0 0 0 0 0 0 0 0 0 0
0.00150000 0.00179520 5297.29914601 0 -2938.41784967 0 8689.17298630 0 -2186.37447566 0 37587.44250836 0 3
0.00250000 0.00253879 6855.34133287 0 -2608.65079960 0 7223.80615818 0 -2469.56025523 0 16430.99786113 0 6
0.00350000 0.00331552 13981.57816475 0 -10471.25259354 0 -7689.34205518 0 24212.62774367 0 -4240.42359742 0 7
0.00450000 0.00420575 21226.75390983 0 -17523.17198124 0 5216.33830694 0 1689.96893707 0 13544.22133441 0 24
0.00550000 0.00557378 44044.04727985 0 -9859.42914104 0 32191.45573124 0 -207.03032946 0 -2222.53668852 0 45
0.00650000 0.00659388 67393.25513417 0 -14828.27884363 0 20699.60052521 0 14963.36120642 0 37769.80369812 0 40
0.00750000 0.00754703 63367.80072310 0 -11370.50252601 0 16484.03429701 0 11922.90081121 0 8848.47052347 0 57
0.00850000 0.00846663 73788.29777967 0 6705.89816479 0 14962.80759017 0 5614.89771111 0 13591.50016138 0 75
0.00950000 0.00948925 88763.83854339 0 -7078.69226911 0 23043.61168932 0 8119.97798435 0 -11847.27683270 0 112
0.01050000 0.01054430 85583.97757872 0 -1183.63152311 0 21333.49112108 0 5305.02762873 0 14043.36173723 0 105
0.01150000 0.01145670 83777.97067755 0 5326.69616840 0 22621.31322074 0 -171.22685993 0 -24754.61804354 0 144
0.01250000 0.01249090 76162.53639053 0 5326.39721563 0 24472.49520716 0 -3461.36375086 0 -3974.78745270 0 169
0.01350000 0.01339930 68817.15610584 0 8467.69327296 0 14091.63707344 0 2083.90010947 0 -5461.34671052 0 180
0.01450000 0.01448870 63167.28092063 0 8177.43227784 0 20943.19167122 0 -2368.86853333 0 3305.26611556 0 267
0.01550000 0.01550050 62644.55646594 0 3333.73306267 0 21664.44290991 0 -3346.07870484 0 10492.93220554 0 238
0.01650000 0.01653350 54940.54358038 0 1544.23499781 0 20053.08747905 0 17542.10565668 0 14854.63097670 0 315
0.01750000 0.01747870 61710.82731399 0 174.16324047 0 24163.13445173 0 13269.62767891 0 18189.17231908 0 297
0.01850000 0.01844180 58227.91681903 0 488.54529521 0 27043.93192305 0 10106.56343099 0 17193.88104113 0 388
0.01950000 0.01947590 61186.22056408 0 3272.96814407 0 34832.64809348 0 13712.74211815 0 34850.03164344 0 399
0.02050000 0.02045430 61641.62528387 0 339.91705023 0 23418.07771469 0 12383.50952367 0 51727.24419476 0 462
0.02150000 0.02154770 65379.86358914 0 -12620.45727479 0 19584.50669273 0 21307.80332750 0 43877.85168432 0 571
0.02250000 0.02255340 69076.24850660 0 -8686.81458112 0 24013.21517369 0 14991.81708120 0 35791.84359252 0 510
0.02350000 0.02348930 78973.68893874 0 4894.31081191 0 21227.41824932 0 8531.40342996 0 24770.00857504 0 555
0.02450000 0.02439640 72070.20513756 0 7633.36038090 0 10762.15578350 0 -6518.27762074 0 34278.14606656 0 592
0.02550000 0.02547300 63062.09383486 0 7016.47687595 0 13870.74419331 0 -6856.52607162 0 31023.43618612 0 837
0.02650000 0.02652900 59224.97966895 0 5430.56564753 0 17440.90460784 0 -8823.88996237 0 17225.99078311 0 723
0.02750000 0.02749970 57765.09364162 0 1192.60010622 0 23371.79539694 0 1489.10589253 0 733.23038691 0 826
0.02850000 0.02848090 55265.18414406 0 411.07777461 0 18511.93058754 0 -4579.57997894 0 3443.98020089 0 831
0.02950000 0.02946900 61053.24194301 0 -5255.39039657 0 16061.84655167 0 -987.71559331 0 -8460.08658581 0 996
0.03050000 0.03053250 62685.41334453 0 -4776.68950536 0 16755.52770156 0 424.81410078 0 -15284.45862616 0 1041
0.03150000 0.03150510 66503.59383499 0 2812.80232460 0 15483.53902640 0 -3519.42702221 0 -23989.18822883 0 1036
0.03250000 0.03246190 66451.11101535 0 3497.91349508 0 19662.23441295 0 -5818.87207892 0 -31361.03136984 0 1059
0.03350000 0.03345080 58109.55366672 0 8487.08091372 0 23323.29861424 0 -7037.62501636 0 -17050.27298823 0 1302
0.03450000 0.03451200 53976.69770492 0 4253.13462631 0 25868.60464355 0 -2393.74804719 0 -13385.88708950 0 1339
0.03550000 0.03553350 51984.34357705 0 2490.92984213 0 35080.88961591 0 5221.86339702 0 -11202.09246552 0 1365
0.03650000 0.03647120 50843.11905799 0 2017.15613546 0 33939.11148061 0 5585.53390569 0 -11501.82029836 0 1308
0.03750000 0.03744890 49731.01475321 0 321.00773391 0 31273.33855727 0 8502.65967473 0 -1910.57393676 0 1579
0.03850000 0.03847530 48586.02564371 0 915.82963165 0 27152.32998302 0 8165.59596261 0 -137.51384532 0 1662
0.03950000 0.03950240 47421.21707279 0 346.51504859 0 20726.94916751 0 8321.17319863 0 4759.41667865 0 1683
0.04050000 0.04050350 48403.55373070 0 71.30156435 0 20140.22667537 0 8874.71193329 0 5472.41903534 0 1822
0.04150000 0.04152450 44287.63842586 0 2346.55779882 0 11390.43271069 0 833.15368947 0 730.87751788 0 1887
0.04250000 0.04250150 43034.69414938 0 1824.19873085 0 15487.85723307 0 3259.20524432 0 5925.03352928 0 1920
0.04350000 0.04349210 39782.08801066 0 2900.27369067 0 11880.16163741 0 1438.12890907 0 3595.19494094 0 2005
0.04450000 0.04448520 39131.58892756 0 715.17363959 0 13718.27828056 0 -1061.11071283 0 5017.31326832 0 2151
0.04550000 0.04548030 37670.26349800 0 158.26670373 0 11516.21432063 0 3824.05989494 0 6702.38823782 0 2274
0.04650000 0.04648670 39318.26832401 0 -54.20655917 0 13460.29311228 0 2932.80418099 0 6601.08753806 0 2311
0.04750000 0.04749250 38083.03976724 0 -1489.20554346 0 9558.98160708 0 2864.63187708 0 7024.90291514 0 2568
0.04850000 0.04851840 41156.38496715 0 -902.58934564 0 10398.86173388 0 2358.83700704 0 2461.07885441 0 2493
0.04950000 0.04949480 39353.25687043 0 1349.40637030 0 9136.82707872 0 -3064.46519541 0 5522.27771400 0 2644
0.05050000 0.05050630 39013.55794500 0 2227.27564354 0 11607.56100038 0 -4252.87996284 0 3994.76192667 0 2829
0.05150000 0.05149060 37395.66984250 0 2041.34916519 0 14121.75379695 0 -4375.95992553 0 3192.41698101 0 2784
0.05250000 0.05249300 36773.62663418 0 1373.64368933 0 13982.68539723 0 -249.04205152 0 1790.22883830 0 3055
0.05350000 0.05348950 36897.41522566 0 -519.87775998 0 14673.15557292 0 -1384.54992927 0 1025.31056500 0 3009
0.05450000 0.05448610 36249.46277727 0 1169.06034365 0 16885.73824143 0 3055.79556507 0 -3193.32491165 0 3336
0.05550000 0.05550870 36389.19551648 0 -166.17566534 0 15085.15677942 0 -1322.84386306 0 -1991.31332933 0 3349
0.05650000 0.05647670 34920.23018279 0 793.56680654 0 15281.91199145 0 3851.57462212 0 284.67279278 0 3324
0.05750000 0.05747970 35639.48840301 0 712.40223669 0 15733.99501379 0 1203.72779266 0 2582.23223258 0 3639
0.05850000 0.05849280 34779.94382734 0 -574.37463550 0 12484.59984926 0 4259.13582636 0 1004.89984143 0 3846
0.05950000 0.05951020 36160.33056248 0 -49.30993424 0 14490.79438316 0 2301.93632980 0 1671.84354134 0 3787
0.06050000 0.06049470 35330.68126382 0 255.58358102 0 12544.05823354 0 896.35119783 0 3213.02257750 0 3930
0.06150000 0.06148310 33946.41921499 0 2109.05643146 0 12300.24564103 0 -958.92201262 0 2491.06271002 0 4083
0.06250000 0.06249100 33615.79959591 0 939.26420713 0 12447.83973087 0 -409.83878146 0 1631.13060298 0 4303
0.06350000 0.06350600 32612.75769059 0 -763.89961942 0 13609.21588109 0 552.20009059 0 999.02486588 0 4470
0.06450000 0.06451750 33028.74493402 0 -400.40958965 0 12297.47755983 0 937.21471981 0 -1381.98114991 0 4479
0.06550000 0.06550280 33269.01438259 0 1119.89922146 0 13168.20518357 0 -516.00687522 0 -3369.64061206 0 4636
0.06650000 0.06648880 32289.00291289 0 1262.30039095 0 11072.10337215 0 -333.24154560 0 -1286.85880740 0 4653
0.06750000 0.06749660 31694.19762363 0 1524.63698288 0 11184.70891556 0 -567.46439758 0 305.65374108 0 5220
0.06850000 0.06852730 30639.00506841 0 538.25449748 0 11562.16446862 0 1910.74002163 0 -881.66818789 0 5029
0.06950000 0.06949320 30276.60787710 0 239.57078487 0 12914.09532898 0 87.64420506 0 -1381.61576320 0 5040
0.07050000 0.07048030 29193.18089359 0 1603.44979094 0 12360.70053454 0 1674.58947790 0 -1386.28828427 0 5475
0.07150000 0.07148790 28083.18033053 0 855.18761586 0 11065.30496471 0 114.37932984 0 320.42643686 0 5509
0.07250000 0.07249820 27464.01592667 0 -167.65492794 0 10632.03382223 0 1203.03023620 0 391.02136544 0 5916
0.07350000 0.07351270 27878.78521437 0 106.38555422 0 10352.31368034 0 990.19800853 0 -1774.66114961 0 5721
0.07450000 0.07449140 27320.85076676 0 614.57713969 0 9369.23517667 0 387.20473507 0 -2699.32206754 0 6028
0.07550000 0.07549160 26763.69138189 0 847.57982147 0 8096.33857087 0 455.19102392 0 -2300.26440875 0 6183
0.07650000 0.07648840 25763.41755777 0 617.80804407 0 7678.15900711 0 478.49273150 0 -1177.56388911 0 6330
0.07750000 0.07749960 25710.93473813 0 -51.96197748 0 8095.59672510 0 751.64034138 0 -3024.51624746 0 6583
0.07850000 0.07848650 26008.11593626 0 -271.89975887 0 8649.41226788 0 -210.31548823 0 -2207.86585814 0 6549
0.07950000 0.07947320 25784.56569817 0 392.99998988 0 9113.65270288 0 378.79862607 0 -2632.41200866 0 6828
0.08050000 0.08048110 25663.43446466 0 482.24292792 0 9155.79397114 0 -649.87128228 0 -743.69262663 0 7147
0.08150000 0.08149960 25415.30366547 0 565.34515461 0 8892.89269064 0 417.12990736 0 -1448.84691949 0 7386
0.08250000 0.08250610 24670.57909817 0 974.85176633 0 9397.40317100 0 -62.33840668 0 -560.76785553 0 7227
0.08350000 0.08350160 24062.15484939 0 671.23090409 0 8356.09531111 0 542.65796106 0 -1024.34062934 0 7798
0.08450000 0.08449610 23256.08960259 0 369.11919971 0 9170.98520079 0 1405.86415455 0 -290.90429719 0 7371
0.08550000 0.08548940 23336.03178778 0 305.03811982 0 7384.58738687 0 1600.36061231 0 -622.23254507 0 8256
0.08650000 0.08650700 22413.37496064 0 785.57037356 0 8074.31571680 0 904.62443894 0 -1563.93266366 0 8037
0.08750000 0.08749060 21916.78119252 0 683.86331947 0 7187.18998001 0 734.86687652 0 744.49426295 0 8155
0.08850000 0.08849210 21275.91503202 0 314.10303215 0 8214.67957853 0 720.64004636 0 -20.61334711 0 8718
0.08950000 0.08949900 21181.80027106 0 867.19444489 0 8406.61832926 0 56.88838696 0 960.85524053 0 8571
0.09050000 0.09049190 20128.82218081 0 909.90040171 0 8107.23373849 0 694.49053683 0 2993.20371287 0 8932
0.09150000 0.09150830 19774.61850986 0 218.19787627 0 7476.73127401 0 1054.97443042 0 4393.18846294 0 9285
0.09250000 0.09250820 19783.69781621 0 -382.12585968 0 8127.91684125 0 1968.29396604 0 4752.88400700 0 9204
0.09350000 0.09350330 20300.22176900 0 -573.42905896 0 6765.04652397 0 1406.65028961 0 3494.13783232 0 9349
0.09450000 0.09448040 20001.15827565 0 175.78422882 0 6532.56091975 0 991.31409887 0 3778.91802666 0 9564
0.09550000 0.09549270 20109.88850537 0 205.32519144 0 5872.06352735 0 -369.05719469 0 3021.83674486 0 10155
0.09650000 0.09649430 19824.55469479 0 327.78288947 0 6650.49225140 0 -237.89775659 0 2631.49300570 0 9913
0.09750000 0.09749140 19622.59549010 0 751.11329872 0 5845.35707988 0 -1543.39350112 0 1400.39442609 0 10476
0.09850000 0.09850240 18585.89371733 0 932.41486700 0 6758.08203166 0 -1154.21235607 0 575.36007241 0 10575
0.09950000 0.09950330 17783.15016798 0 1052.46544161 0 6435.85523479 0 -696.04730570 0 287.63021074 0 10882
0.10050000 0.10051200 17412.67017955 0 373.04433886 0 6189.90568359 0 299.09671033 0 -237.75160190 0 10875
0.10150000 0.10150300 17111.83511423 0 -52.45403160 0 6096.02344145 0 920.87861177 0 -490.28475743 0 11118
0.10250000 0.10250800 16921.05895760 0 85.04231945 0 5480.40218154 0 1227.10147035 0 -198.12485861 0 11575
0.10350000 0.10349800 16923.05197607 0 -3.02745041 0 4702.10632538 0 1773.27710901 0 -366.97227593 0 11364
0.10450000 0.10450100 16754.19902258 0 75.93843254 0 4756.98076719 0 272.69364456 0 264.80129143 0 12093
0.10550000 0.10551000 16542.60689530 0 398.90043178 0 4717.57436316 0 540.45899735 0 134.82105592 0 12067
0.10650000 0.10649700 16317.39580849 0 216.12845876 0 4581.60621438 0 -293.12762002 0 524.42294932 0 12054
0.10750000 0.10749900 16330.23970528 0 29.43931867 0 5049.45622727 0 46.46102506 0 827.58320285 0 12807
0.10850000 0.10850100 16139.90644164 0 120.35727801 0 5444.93752514 0 158.61326749 0 1134.88007694 0 12736
0.10950000 0.10950300 16326.03222185 0 165.11382939 0 5197.30498057 0 -292.90395906 0 855.60504250 0 12933
0.11050000 0.11050200 15816.92672668 0 464.45966703 0 5054.22839927 0 275.55805499 0 1618.17598295 0 13428
0.11150000 0.11150900 15647.96304995 0 560.63388040 0 5582.19006359 0 137.83715720 0 1503.00166018 0 13453
0.11250000 0.11250000 15236.18328995 0 365.88054470 0 5003.62787485 0 274.92693248 0 1984.28240307 0 13668
0.11350000 0.11349100 14988.05249076 0 376.58859003 0 5480.24716899 0 49.58065258 0 2190.89198419 0 13791
0.11450000 0.11448600 14425.79983647 0 374.09288802 0 5301.01944715 0 315.65094316 0 1875.89541542 0 14205
0.11550000 0.11549300 14401.10855212 0 33.34973163 0 5012.60753027 0 1073.19283367 0 2184.19322768 0 14776
0.11650000 0.11649800 14335.89255894 0 -136.99455328 0 4290.30442073 0 380.35207324 0 1103.85985172 0 14553
0.11750000 0.11747300 14545.82383750 0 -54.07900599 0 4287.28167605 0 234.10548534 0 426.40962279 0 14568
0.11850000 0.11849100 14273.99826321 0 190.47277493 0 4007.27365371 0 -604.61979798 0 -170.48279970 0 16015
0.11950000 0.11950300 14124.63260140 0 419.33994339 0 3807.97180698 0 -674.36105031 0 768.07831481 0 15270
0.12050000 0.12050700 13967.62703547 0 50.23436264 0 4195.28172914 0 -317.45241041 0 -33.52843895 0 15999
0.12150000 0.12150000 14067.49940534 0 -25.75168089 0 4342.85367432 0 -115.38469694 0 -501.69810986 0 15670
0.12250000 0.12250700 14020.77419460 0 287.94798647 0 4402.87674716 0 66.44446762 0 -1359.84757260 0 16887
0.12350000 0.12352200 13737.10123275 0 135.18422818 0 3987.01129930 0 -155.30817853 0 -903.73422402 0 16407
0.12450000 0.12449800 13579.32060408 0 183.09971383 0 4086.44077617 0 693.95574354 0 -1073.40431508 0 16306
0.12550000 0.12549900 13776.96160210 0 102.50060761 0 4110.63380590 0 99.72311493 0 -1314.04136483 0 17523
0.12650000 0.12650100 13231.42815828 0 211.15587769 0 3911.90772005 0 416.53864521 0 -1256.52063739 0 17154
0.12750000 0.12750600 13093.02409805 0 247.62590117 0 3408.32731497 0 361.03529536 0 -1254.77121007 0 18007
0.12850000 0.12850300 12807.69028747 0 162.77092546 0 3545.52449180 0 296.90881894 0 -990.44381414 0 17496
0.12950000 0.12949900 12948.75170566 0 68.19278771 0 3582.06316370 0 -20.96810440 0 -872.55455733 0 18405
0.13050000 0.13049000 12737.04885513 0 291.60406812 0 3943.72958158 0 175.57274742 0 -719.96574178 0 18100
0.13150000 0.13148800 12674.71166640 0 198.99957227 0 3859.17023694 0 -125.57787916 0 193.56416801 0 19059
0.13250000 0.13249300 12588.12608632 0 20.75761951 0 4082.12256949 0 15.75060350 0 93.66799265 0 18957
0.13350000 0.13349100 12670.17201323 0 -80.91145651 0 4287.18202513 0 241.85943441 0 270.50132425 0 19468
0.13450000 0.13450700 12841.57160142 0 157.26576556 0 3980.66685718 0 285.93282335 0 -151.25017149 0 19953
0.13550000 0.13551000 12497.66519255 0 135.25176936 0 3866.01293368 0 -5.43725333 0 334.77949152 0 19956
0.13650000 0.13649900 12400.78235039 0 54.54182916 0 3682.89882583 0 199.17672947 0 473.52347212 0 19723
0.13750000 0.13749600 12256.39923475 0 254.02127599 0 3729.65725354 0 537.05315024 0 402.82003476 0 20946
0.13850000 0.13851100 12028.97368298 0 206.66051381 0 3310.90192890 0 753.81605321 0 610.11720725 0 20955
0.13950000 0.13949800 11829.67183624 0 106.15336756 0 3023.69689542 0 392.53273777 0 711.69471514 0 20506
0.14050000 0.14048300 11751.16905328 0 220.88291504 0 2906.62920512 0 417.82414212 0 493.21228012 0 21447
0.14150000 0.14148400 11644.43184203 0 173.41475131 0 2751.40628348 0 -217.71844461 0 885.02531678 0 21771
0.14250000 0.14249400 11386.44667375 0 265.18217941 0 2863.02638998 0 -301.99987389 0 614.59928434 0 22470
0.14350000 0.14350900 11187.58772001 0 206.19547617 0 3175.88600006 0 -336.48795124 0 986.17321846 0 22519
0.14450000 0.14449900 11180.50143212 0 125.16155975 0 3126.71380554 0 -11.65771863 0 321.66653724 0 22218
0.14550000 0.14550500 11110.41361602 0 33.53973272 0 3490.09643376 0 -79.18207009 0 471.84380045 0 23559
0.14650000 0.14650700 11062.66975140 0 345.64587110 0 3681.40406198 0 -91.36904585 0 683.74263113 0 23044
0.14750000 0.14750500 10737.05482314 0 300.86163890 0 3521.84078902 0 81.13478530 0 948.13867548 0 23649
0.14850000 0.14849900 10546.81013810 0 285.50100268 0 3908.71889050 0 18.18872943 0 818.63787163 0 23640
0.14950000 0.14949500 10486.62098039 0 141.32936845 0 3804.72761581 0 184.77827827 0 771.96802252 0 24457
0.15050000 0.15050000 10321.94229336 0 127.74473313 0 3900.95719081 0 -46.62633487 0 711.54966768 0 24591
0.15150000 0.15149900 10141.10908442 0 282.75395889 0 4061.24016488 0 -276.58667397 0 782.16341921 0 25020
0.15250000 0.15250500 10021.69406125 0 209.78512387 0 4029.07506128 0 -72.35122074 0 557.16159934 0 25297
0.15350000 0.15350100 9753.58878810 0 188.62480391 0 3799.67863569 0 28.02028953 0 187.18650892 0 25452
0.15450000 0.15450400 9731.53271706 0 181.39014688 0 3850.55596823 0 219.50219613 0 52.32382106 0 26061
0.15550000 0.15549900 9463.68210737 0 112.18922399 0 3632.87406230 0 414.21013530 0 164.74954991 0 26128
0.15650000 0.15649500 9488.04122197 0 28.59737910 0 3324.79769654 0 599.24639874 0 282.99865727 0 26331
0.15750000 0.15749700 9441.07242009 0 -46.68712194 0 3028.09260838 0 400.04309570 0 351.51752495 0 27345
0.15850000 0.15849900 9458.19023426 0 -52.48514483 0 2746.49017127 0 620.29488822 0 486.17471046 0 26980
0.15950000 0.15949700 9523.63874626 0 -66.98667937 0 2407.92062296 0 327.75188696 0 499.98632844 0 27777
0.16050000 0.16050000 9608.48597135 0 26.05639127 0 2559.79970250 0 137.19496236 0 332.08116596 0 28224
0.16150000 0.16150500 9335.05490995 0 263.24341533 0 2652.44184426 0 -294.31457324 0 427.21125911 0 28075
0.16250000 0.16249700 9355.41691529 0 199.17451500 0 2737.42193724 0 -261.47848675 0 509.58492683 0 28590
0.16350000 0.16349900 9035.34922176 0 168.91274404 0 2730.39101098 0 -175.88498698 0 546.36608264 0 29163
0.16450000 0.16449100 9062.93038288 0 209.14846520 0 2954.78274575 0 20.87398964 0 672.48429126 0 28996
0.16550000 0.16550500 8919.68771670 0 97.96305817 0 2940.33336187 0 84.78023752 0 455.56416127 0 30777
0.16650000 0.16650700 8816.89225309 0 21.16685263 0 2877.14360413 0 239.80219646 0 423.00709737 0 29211
0.16750000 0.16749900 8804.41374302 0 89.59193772 0 2732.28437852 0 160.68822116 0 388.56884549 0 30922
0.16850000 0.16850800 8672.22125701 0 148.12223973 0 2666.59227537 0 7.38158679 0 290.37171837 0 30867
0.16950000 0.16949900 8666.19791231 0 66.47425217 0 2684.50729693 0 15.84848285 0 427.60764833 0 30852
0.17050000 0.17049200 8475.74285310 0 118.47166109 0 2673.27995956 0 235.60024919 0 525.25669537 0 31257
0.17150000 0.17149500 8568.36285021 0 96.41160402 0 2370.55152670 0 287.33015074 0 342.73384967 0 32608
0.17250000 0.17250900 8431.44248150 0 -26.13954443 0 2289.08136068 0 406.27238564 0 46.91255447 0 32361
0.17350000 0.17350400 8222.23090405 0 196.01558073 0 2033.34387435 0 163.55816776 0 181.21077521 0 32508
0.17450000 0.17449800 8212.52047519 0 48.85807266 0 1729.04317135 0 238.53552250 0 -108.20307633 0 32791
0.17550000 0.17549800 8204.47089504 0 -31.57007686 0 1599.72948980 0 165.09279198 0 -69.68500493 0 33633
0.17650000 0.17650100 8159.34009908 0 72.05636473 0 1686.45901010 0 -93.05779683 0 -244.51568513 0 33984
0.17750000 0.17750300 8043.96647447 0 182.66789316 0 1661.15874789 0 -118.54584567 0 -138.07631942 0 34069
0.17850000 0.17849800 8056.84358824 0 131.72966283 0 1816.82456252 0 -198.62864939 0 55.02004287 0 34536
