### header ###
fiducial parameters:
Omega_m = 0.31
Omega_nu = 0
Omega_de = 0.69
Omega_k = 0
H_0 = 100
w_de = -1
zeff = 0
beta = 0
fgrowth = 0
b_1 = 2
gamma = 0.55
Lx = 3500 Ly = 3500 Lz = 3500
nx = 700 ny = 700 nz = 700
xoffset = -685.467585 yoffset = -31.7331281 zoffset = 572.489161
bins = 400 dk = 0.001
kx_ny = 0.628318531 ky_ny = 0.628318531 kz_ny = 0.628318531
############################
A(data) = 8.03505856 (not used)
A(ran) = 8.0360362 (used)
Ngal = 477771
weighted Ngal = 0
Nran = 23820508
weighted Nran = 0
SN(data) = 3484.3757
SN(ran) = 69.9967897
SN(data+ran) = 3554.37249
############################
13 columns: k_central k_mean P_0(k) sigma^{lin}_{P_0(k)} P^img_1(k) sigma^{lin}_{P_1(k)} P_2(k) sigma^{lin}_{P_2(k)} P^img_3(k) sigma^{lin}_{P_3(k)} P_4(k) sigma^{lin}_{P_4(k)} N_modes
### header ###
0.00050000 0 0 0 0 0 0 0 0 0 0 0 0
0.00150000 0.00179520 109618.45161606 0 -104599.14532927 0 45142.42190186 0 106184.59152005 0 -232756.87617517 0 3
0.00250000 0.00253879 195244.94692208 0 -104313.92224194 0 24874.08842834 0 -48322.94720602 0 211976.33695554 0 6
0.00350000 0.00331552 188705.63188419 0 -10295.56801564 0 17898.08089960 0 -127162.32884471 0 62861.68475564 0 7
0.00450000 0.00420575 173483.39972351 0 63178.90686169 0 -5917.22754028 0 -82458.26028242 0 86994.25959087 0 24
0.00550000 0.00557378 99318.86434651 0 40320.31372009 0 -611.52228527 0 -7565.28772791 0 44554.26000750 0 45
0.00650000 0.00659388 70537.79538266 0 28839.42011564 0 19292.30804076 0 15920.78513348 0 32697.23952895 0 40
0.00750000 0.00754703 48361.14672664 0 3678.28166638 0 10774.12496663 0 26293.78191658 0 -21328.73002141 0 57
0.00850000 0.00846663 57644.62674759 0 -8200.01982047 0 -12981.19361738 0 14601.73907784 0 -26426.20692141 0 75
0.00950000 0.00948925 62989.90227704 0 -20737.13570635 0 -24345.27419500 0 -18537.28621138 0 -41382.48183995 0 112
0.01050000 0.01054430 78471.89117796 0 -20477.60041260 0 -17166.64312208 0 -35339.87129342 0 2055.33351144 0 105
0.01150000 0.01145670 92034.71401806 0 -12375.31600330 0 -13556.17944521 0 -59554.04916256 0 -64096.69186591 0 144
0.01250000 0.01249090 95095.10459794 0 9103.27793452 0 -1135.11259576 0 -51197.76562193 0 -32233.19839580 0 169
0.01350000 0.01339930 99904.81177591 0 14688.21393467 0 14198.26356145 0 -29536.64440947 0 -36757.01814696 0 180
0.01450000 0.01448870 76770.51774633 0 10714.06867681 0 11080.85050876 0 -2615.02845869 0 -39658.74231218 0 267
0.01550000 0.01550050 74565.68570519 0 4917.17516266 0 11535.92305880 0 16782.10128113 0 -33879.87454283 0 238
0.01650000 0.01653350 72502.91159147 0 39.75396431 0 4179.94655926 0 18026.74131399 0 -35236.23433312 0 315
0.01750000 0.01747870 74872.61054916 0 610.06295286 0 14330.46711978 0 -1329.17723285 0 -14281.52744408 0 297
0.01850000 0.01844180 67034.17964030 0 3451.71975594 0 14614.36152813 0 -8298.23134161 0 -15411.45819183 0 388
0.01950000 0.01947590 72810.61149818 0 3084.15178893 0 20867.23552297 0 -7515.92730387 0 11173.52586749 0 399
0.02050000 0.02045430 70673.20991519 0 1932.25354875 0 24875.30638407 0 -6851.82033357 0 6952.93280382 0 462
0.02150000 0.02154770 78579.73562169 0 -7508.57528019 0 34645.19363430 0 -92.13934749 0 -6213.36793988 0 571
0.02250000 0.02255340 84569.08828584 0 -4770.45578649 0 41618.65452833 0 5534.22475248 0 1457.97051514 0 510
0.02350000 0.02348930 81324.34349774 0 5532.10993844 0 29790.20064782 0 7907.11253971 0 -25748.69136576 0 555
0.02450000 0.02439640 81488.54607480 0 5512.30154934 0 22931.89193190 0 6985.26399229 0 -837.67009076 0 592
0.02550000 0.02547300 75510.26573547 0 1943.44766914 0 17889.88737923 0 5532.01028752 0 -12366.56886670 0 837
0.02650000 0.02652900 69107.69390908 0 3748.22554226 0 21262.29607249 0 10622.27910407 0 -15890.88985647 0 723
0.02750000 0.02749970 64488.98433423 0 5567.07634022 0 19895.41757363 0 1206.11941482 0 -14709.25135183 0 826
0.02850000 0.02848090 62143.86593765 0 3307.34771263 0 23860.41709119 0 -4616.61690546 0 -11201.64957253 0 831
0.02950000 0.02946900 59629.78386432 0 2221.16372024 0 21022.46951692 0 -3744.33915625 0 -120.21223056 0 996
0.03050000 0.03053250 57812.26174534 0 163.96120038 0 27172.48161419 0 -3453.69062976 0 6925.73917406 0 1041
0.03150000 0.03150510 61706.17693756 0 -770.84750325 0 29608.61452079 0 1310.87467993 0 -2832.04602514 0 1036
0.03250000 0.03246190 60005.57856867 0 291.22207292 0 24778.20209541 0 6267.38981267 0 -39.90244418 0 1059
0.03350000 0.03345080 59791.88269967 0 3834.23536145 0 27563.88829653 0 3935.17067450 0 -5504.05266735 0 1302
0.03450000 0.03451200 57241.15123120 0 1644.15165697 0 21456.61537306 0 1402.99642242 0 757.78437443 0 1339
0.03550000 0.03553350 53357.86547080 0 1978.55801114 0 19592.58948984 0 3253.15975497 0 -6941.37329671 0 1365
0.03650000 0.03647120 55744.72653196 0 723.41034203 0 14111.78870461 0 3190.59004742 0 -3628.04652868 0 1308
0.03750000 0.03744890 51515.76279072 0 2186.10873987 0 18026.18769775 0 1474.08074776 0 -525.59661575 0 1579
0.03850000 0.03847530 52312.85945442 0 2201.97538133 0 17378.34597261 0 3956.46275512 0 -1646.33290496 0 1662
0.03950000 0.03950240 48817.32650917 0 -118.23249888 0 16335.88659093 0 2699.22241661 0 1054.43963713 0 1683
0.04050000 0.04050350 49902.96795764 0 1765.96937463 0 17068.54232418 0 639.16102248 0 -268.47176711 0 1822
0.04150000 0.04152450 47530.16874900 0 1499.71317971 0 16483.03778777 0 24.90597672 0 211.70506500 0 1887
0.04250000 0.04250150 46413.52479104 0 2134.54492319 0 17274.70901231 0 -417.72227674 0 1945.54033853 0 1920
0.04350000 0.04349210 44688.45658430 0 896.14082366 0 16919.28738563 0 266.15432953 0 21.02258024 0 2005
0.04450000 0.04448520 43090.49866647 0 1647.48442674 0 16294.91898911 0 2142.17375499 0 517.38648689 0 2151
0.04550000 0.04548030 41660.84008589 0 1073.78188136 0 12437.21029904 0 5594.53570577 0 -2019.42596205 0 2274
0.04650000 0.04648670 42267.04986971 0 37.92060876 0 11948.69932804 0 2914.19160297 0 -1661.13660324 0 2311
0.04750000 0.04749250 39769.68700686 0 1548.01066057 0 10198.50801628 0 -247.95032029 0 244.93089731 0 2568
0.04850000 0.04851840 38489.83698107 0 2543.53445734 0 8887.06864779 0 1287.21312179 0 1429.94646103 0 2493
0.04950000 0.04949480 36842.71794105 0 1144.71230138 0 9504.70507082 0 -1176.71132010 0 1601.80001454 0 2644
0.05050000 0.05050630 38015.72003234 0 -471.71868318 0 9330.53740143 0 852.95764964 0 2677.00026070 0 2829
0.05150000 0.05149060 36965.62074654 0 520.30625895 0 10779.70541834 0 192.38607265 0 1039.25283641 0 2784
0.05250000 0.05249300 36865.41620693 0 1053.29475874 0 9553.47866165 0 2085.93741723 0 1017.42485526 0 3055
0.05350000 0.05348950 35880.97580731 0 784.88610388 0 10205.93754624 0 1233.66735897 0 1472.15416324 0 3009
0.05450000 0.05448610 34782.37973880 0 657.10483208 0 10675.86915619 0 1508.50460562 0 -1257.19604921 0 3336
0.05550000 0.05550870 34239.61437619 0 899.79136915 0 9059.83013193 0 239.49992199 0 361.89450777 0 3349
0.05650000 0.05647670 32868.41767065 0 1122.89982148 0 8678.24460171 0 1090.21210415 0 1169.65824919 0 3324
0.05750000 0.05747970 33163.71657356 0 -524.64439581 0 7536.69898523 0 713.18615729 0 -501.09023923 0 3639
0.05850000 0.05849280 33163.60585031 0 -503.53279408 0 7162.08901964 0 495.11893445 0 -1726.91728499 0 3846
0.05950000 0.05951020 32297.86077274 0 1207.54774472 0 6134.11223883 0 -1986.08719202 0 -4981.81539495 0 3787
0.06050000 0.06049470 32583.63747631 0 1644.64991159 0 7694.81178364 0 -2998.58486274 0 -2943.79899953 0 3930
0.06150000 0.06148310 31071.60079908 0 354.60559634 0 9430.22154177 0 -245.79121695 0 -3184.34525622 0 4083
0.06250000 0.06249100 30518.20600464 0 703.12695019 0 7385.55067913 0 2112.74351562 0 -4247.89741667 0 4303
0.06350000 0.06350600 30394.86030616 0 731.86627649 0 7405.15976639 0 2092.42579958 0 -4063.37712357 0 4470
0.06450000 0.06451750 29743.69688358 0 306.87169681 0 7873.76269736 0 626.22633263 0 -3664.90629800 0 4479
0.06550000 0.06550280 29165.50008155 0 715.82137060 0 6720.82365864 0 -223.69639278 0 -2335.90622234 0 4636
0.06650000 0.06648880 29557.46038013 0 -341.17597357 0 6792.53910649 0 -75.75286037 0 -2547.09974593 0 4653
0.06750000 0.06749660 29660.65444744 0 -480.94968038 0 8790.89443441 0 -844.68219407 0 -1934.09155467 0 5220
0.06850000 0.06852730 30544.11524472 0 -216.83265862 0 8683.20500323 0 -1559.76946953 0 -1966.37845384 0 5029
0.06950000 0.06949320 30807.63657540 0 561.77211539 0 10995.81505415 0 -23.95032437 0 -320.24152903 0 5040
0.07050000 0.07048030 30208.29163297 0 1126.55368867 0 11593.27770136 0 -1102.23111274 0 -706.66677244 0 5475
0.07150000 0.07148790 30078.30253960 0 945.59979139 0 12649.46676581 0 387.60333876 0 883.25817374 0 5509
0.07250000 0.07249820 28324.11411858 0 1034.85158729 0 13013.19263611 0 900.79009285 0 -33.10459036 0 5916
0.07350000 0.07351270 28163.23323896 0 748.87336741 0 11750.28326729 0 3179.61737352 0 821.81119992 0 5721
0.07450000 0.07449140 26763.80210514 0 64.98723895 0 10290.62975877 0 1524.37124708 0 206.89746156 0 6028
0.07550000 0.07549160 27012.37579731 0 706.56601428 0 9332.68543244 0 1910.78431093 0 504.15062981 0 6183
0.07650000 0.07648840 26382.69268488 0 492.89339716 0 8389.93233576 0 389.40369878 0 -273.72447800 0 6330
0.07750000 0.07749960 25276.89960524 0 696.85890711 0 7877.79302359 0 934.32152133 0 903.33119140 0 6583
0.07850000 0.07848650 25505.21094300 0 555.94032191 0 7992.67946591 0 427.49913955 0 1938.87479899 0 6549
0.07950000 0.07947320 24765.80109161 0 435.79784700 0 8276.31921079 0 1418.22086905 0 1980.80569308 0 6828
0.08050000 0.08048110 24946.27998615 0 -68.72603087 0 8547.29221608 0 1081.74509736 0 2987.30216375 0 7147
0.08150000 0.08149960 24419.79094103 0 455.64388201 0 9211.75350077 0 161.23740847 0 4054.02100910 0 7386
0.08250000 0.08250610 24164.02023772 0 1116.89862143 0 10007.87579988 0 -152.59103002 0 4808.52243922 0 7227
0.08350000 0.08350160 23724.89183541 0 496.56276561 0 9946.10329972 0 33.14234699 0 6273.77854409 0 7798
0.08450000 0.08449610 22937.98171055 0 142.05792742 0 10164.38311119 0 259.65487486 0 5477.44587081 0 7371
0.08550000 0.08548940 23657.23993077 0 -127.74473313 0 10256.00659907 0 386.00117336 0 6321.58884266 0 8256
0.08650000 0.08650700 23033.53587373 0 138.33541182 0 9272.68450425 0 639.58730699 0 3455.42898475 0 8037
0.08750000 0.08749060 22837.77717094 0 344.94167124 0 9144.79915259 0 425.83829083 0 4322.90134500 0 8155
0.08850000 0.08849210 22107.11445616 0 443.63373128 0 7854.95081749 0 1299.58090861 0 1728.61135069 0 8718
0.08950000 0.08949900 21781.14521350 0 738.63589588 0 6948.09419787 0 418.08544899 0 1034.09756197 0 8571
0.09050000 0.09049190 21017.37624751 0 422.92626940 0 5780.25180995 0 1221.78675444 0 542.58709818 0 8932
0.09150000 0.09150830 20538.38747585 0 125.49262226 0 5093.42442912 0 1497.83088449 0 852.87903613 0 9285
0.09250000 0.09250820 20718.20203091 0 -172.42709994 0 4499.20597308 0 1023.78812033 0 801.49791281 0 9204
0.09350000 0.09350330 20478.92909158 0 6.73941409 0 3418.15953941 0 527.40583362 0 -391.45872227 0 9349
0.09450000 0.09448040 20685.53867269 0 571.60876876 0 4502.67161075 0 -1067.37211252 0 248.77853019 0 9564
0.09550000 0.09549270 19940.70338214 0 660.90374673 0 4467.84914920 0 -819.17930831 0 1413.76979447 0 10155
0.09650000 0.09649430 19650.27630215 0 832.53363928 0 5913.91691516 0 -518.73398882 0 1876.42688702 0 9913
0.09750000 0.09749140 19225.54192210 0 537.78392367 0 5534.41298200 0 76.80484195 0 1178.98114669 0 10476
0.09850000 0.09850240 18775.11974848 0 378.66243647 0 6179.04373294 0 697.33612431 0 2427.50756556 0 10575
0.09950000 0.09950330 18444.05723640 0 148.78325752 0 5553.16950024 0 909.58484046 0 1918.34670878 0 10882
0.10050000 0.10051200 18386.92404034 0 -143.96679622 0 5657.95798233 0 1012.95938666 0 2078.68504448 0 10875
0.10150000 0.10150300 18172.45310860 0 339.98459142 0 5035.81512309 0 544.70523392 0 1118.21622808 0 11118
0.10250000 0.10250800 18037.14929932 0 399.96780389 0 4805.26717572 0 -832.91784895 0 782.42140438 0 11575
0.10350000 0.10349800 17428.50360404 0 695.54351492 0 5310.68558672 0 -895.48755650 0 407.72728912 0 11364
0.10450000 0.10450100 17184.35884179 0 470.78196450 0 5123.22005521 0 -629.04866822 0 1285.95087676 0 12093
0.10550000 0.10551000 16653.33014348 0 320.02340423 0 5067.23838093 0 350.98494612 0 472.83034459 0 12067
0.10650000 0.10649700 16746.44839521 0 -127.03167541 0 4968.11892915 0 1233.37947852 0 208.93809103 0 12054
0.10750000 0.10749900 16403.31704908 0 164.36755470 0 4461.27218825 0 1065.74115907 0 435.65279955 0 12807
0.10850000 0.10850100 16225.05261950 0 223.38747491 0 4514.09824996 0 556.44964885 0 567.01929013 0 12736
0.10950000 0.10950300 15840.17860880 0 397.40013176 0 4235.08673686 0 555.11321925 0 233.05472171 0 12933
0.11050000 0.11050200 15628.03286528 0 265.00612944 0 4109.01724647 0 -59.58837337 0 654.10976822 0 13428
0.11150000 0.11150900 15402.26816223 0 70.80441696 0 4206.29869233 0 -598.64849320 0 259.76338364 0 13453
0.11250000 0.11250000 15515.31659862 0 249.72521396 0 4489.41803794 0 -353.13519160 0 642.26348790 0 13668
0.11350000 0.11349100 15369.27263427 0 142.16422174 0 4358.52101394 0 -96.67711837 0 359.32905011 0 13791
0.11450000 0.11448600 15182.48251458 0 257.80247491 0 4230.65780693 0 -24.51468076 0 388.50462600 0 14205
0.11550000 0.11549300 15180.93238910 0 95.65713581 0 4297.39070861 0 -144.30782383 0 -1155.64068597 0 14776
0.11650000 0.11649800 14791.96161822 0 310.35062127 0 4454.80595056 0 165.84349560 0 -676.47364989 0 14553
0.11750000 0.11747300 14477.61831662 0 407.61656587 0 4692.98272973 0 -650.55555195 0 -1696.83377846 0 14568
0.11850000 0.11849100 14348.18283949 0 159.04730262 0 4704.30971802 0 -278.72695436 0 -1485.73990579 0 16015
0.11950000 0.11950300 14125.29694089 0 251.31852150 0 4938.57796654 0 -218.36728284 0 -1201.79013582 0 15270
0.12050000 0.12050700 14220.40821108 0 292.57732547 0 5100.17854726 0 114.83550962 0 -857.76525307 0 15999
0.12150000 0.12150000 14051.00164136 0 133.32629207 0 5042.33672241 0 566.40920503 0 180.70255551 0 15670
0.12250000 0.12250700 13908.72226744 0 104.52208195 0 4738.17995964 0 1095.37512922 0 -321.47720048 0 16887
0.12350000 0.12352200 13811.28580903 0 105.35461005 0 4402.82138554 0 557.61777912 0 346.75088911 0 16407
0.12450000 0.12449800 13416.88959899 0 276.60660415 0 3930.12169438 0 701.61004169 0 34.14417094 0 16306
0.12550000 0.12549900 13414.45368753 0 154.94943521 0 4242.32803729 0 492.35860387 0 250.86455618 0 17523
0.12650000 0.12650100 13246.48652004 0 330.05382329 0 3904.20138198 0 191.62429671 0 1002.81381543 0 17154
0.12750000 0.12750600 12838.47135047 0 83.92733634 0 3640.65790664 0 233.85303633 0 375.71276914 0 18007
0.12850000 0.12850300 13068.33281370 0 73.84310579 0 3711.39898991 0 -109.90301036 0 430.55067227 0 17496
0.12950000 0.12949900 12794.18205119 0 283.49912635 0 4380.66566357 0 -251.79573870 0 299.51856590 0 18405
0.13050000 0.13049000 12792.85337222 0 90.24066523 0 4168.38705215 0 -120.83338798 0 948.69893511 0 18100
0.13150000 0.13148800 12718.22590294 0 36.55251231 0 4501.18791923 0 -40.21324434 0 710.08037018 0 19059
0.13250000 0.13249300 12741.47778506 0 -36.72380117 0 4574.44242023 0 129.23285359 0 1465.85401042 0 18957
0.13350000 0.13349100 12865.59854627 0 42.53477868 0 4607.29400796 0 450.62922610 0 419.02881106 0 19468
0.13450000 0.13450700 12694.08823483 0 297.39932293 0 4393.06666737 0 -144.11627261 0 442.37370071 0 19953
0.13550000 0.13551000 12103.60115226 0 537.11294079 0 4235.92823354 0 -200.41461538 0 306.52181135 0 19956
0.13650000 0.13649900 11929.43348286 0 418.30246656 0 4486.69424604 0 61.33946154 0 308.38860531 0 19723
0.13750000 0.13749600 11680.30617444 0 145.29879690 0 4290.84696465 0 159.72603614 0 515.39014673 0 20946
0.13850000 0.13851100 11559.95000366 0 -49.59903264 0 3982.19483800 0 557.59009831 0 42.18245731 0 20955
0.13950000 0.13949800 11740.65034470 0 -306.10327747 0 3858.32874025 0 109.98583135 0 -10.60282503 0 20506
0.14050000 0.14048300 12009.92928429 0 -95.95819232 0 4017.24981838 0 181.16980761 0 -567.64930541 0 21447
0.14150000 0.14148400 11820.03891365 0 208.44647980 0 3726.54593026 0 -205.04284715 0 -340.01559393 0 21771
0.14250000 0.14249400 11725.70270619 0 356.31848499 0 4016.35296007 0 -265.33940642 0 -313.89708691 0 22470
0.14350000 0.14350900 11389.98981769 0 240.16315425 0 3903.09414950 0 -64.06845744 0 -172.98071618 0 22519
0.14450000 0.14449900 11279.93090900 0 283.73164518 0 4011.28183530 0 613.84193732 0 -354.48380077 0 22218
0.14550000 0.14550500 10932.39277759 0 225.86989014 0 3627.98009473 0 335.38736215 0 -576.87255198 0 23559
0.14650000 0.14650700 10646.46106147 0 329.87223716 0 3310.12686616 0 439.62887139 0 -371.83966992 0 23044
0.14750000 0.14750500 10544.47387757 0 122.27721913 0 3214.27375020 0 106.24006387 0 -663.52899494 0 23649
0.14850000 0.14849900 10418.47082113 0 156.55824401 0 3406.67753858 0 -113.01411219 0 -45.64045507 0 23640
0.14950000 0.14949500 10356.82011654 0 171.55570797 0 3412.64552165 0 -71.22870845 0 -255.52157600 0 24457
0.15050000 0.15050000 10072.52710450 0 223.11398849 0 3130.58911922 0 131.82931376 0 73.09384157 0 24591
0.15150000 0.15149900 10178.05743234 0 6.73014656 0 3403.01259906 0 279.29053569 0 -108.97769618 0 25020
0.15250000 0.15250500 9995.66302561 0 20.00226551 0 3176.14066353 0 494.81223105 0 84.76606494 0 25297
0.15350000 0.15350100 9961.02879357 0 163.82168909 0 3036.40792432 0 349.17351378 0 289.04636109 0 25452
0.15450000 0.15450400 9855.06664506 0 116.11768484 0 2821.05120659 0 313.68671274 0 119.09392575 0 26061
0.15550000 0.15549900 9740.14698577 0 55.88246625 0 2755.64698389 0 351.28943506 0 579.71924669 0 26128
0.15650000 0.15649500 9588.36755715 0 200.98484011 0 2492.18101483 0 46.21898404 0 465.93117900 0 26331
0.15750000 0.15749700 9426.22443251 0 227.12217007 0 2474.70888627 0 196.20602472 0 478.04651681 0 27345
0.15850000 0.15849900 9331.85500808 0 80.60896059 0 2547.02223966 0 -61.14303850 0 450.38452772 0 26980
0.15950000 0.15949700 9398.74292231 0 134.25083119 0 2476.27008407 0 30.86155880 0 266.50642945 0 27777
0.16050000 0.16050000 9241.41625896 0 -40.17836652 0 2551.46224191 0 -198.21897337 0 430.38237293 0 28224
0.16150000 0.16150500 9246.87491510 0 17.78613970 0 2559.13536301 0 -1.03663202 0 385.58485395 0 28075
0.16250000 0.16249700 9270.97936623 0 103.97389115 0 2785.48689928 0 -92.75563309 0 618.03170503 0 28590
0.16350000 0.16349900 9200.82511617 0 152.11270559 0 2758.54793299 0 113.97851168 0 432.90243406 0 29163
0.16450000 0.16449100 9001.15788272 0 247.37898833 0 2736.09325826 0 246.85637460 0 483.99678417 0 28996
0.16550000 0.16550500 8912.22496978 0 317.49891417 0 2642.76463236 0 -3.39843973 0 502.96256935 0 30777
0.16650000 0.16650700 8562.91526640 0 195.82513674 0 2725.54133271 0 172.88217249 0 906.72928789 0 29211
0.16750000 0.16749900 8467.41646484 0 202.97785858 0 2465.58529062 0 309.54234156 0 683.15358345 0 30922
0.16850000 0.16850800 8333.10916479 0 122.25286002 0 2216.94516449 0 199.39817596 0 791.38888025 0 30867
0.16950000 0.16949900 8198.93473263 0 44.99493854 0 2175.80040546 0 328.05083973 0 347.72525370 0 30852
0.17050000 0.17049200 8189.15786982 0 24.36609017 0 1913.59668143 0 49.33396119 0 396.98159789 0 31257
0.17150000 0.17149500 8147.47056688 0 88.23125972 0 1989.61926364 0 1.00970191 0 256.64098804 0 32608
0.17250000 0.17250900 7989.86709541 0 119.21904302 0 1938.71978645 0 -108.44556025 0 249.59234606 0 32361
0.17350000 0.17350400 7972.38389452 0 38.90228108 0 1885.55048267 0 128.99258414 0 441.47130624 0 32508
0.17450000 0.17449800 8035.92796665 0 -105.52678470 0 2067.66808128 0 192.77249679 0 275.24138650 0 32791
0.17550000 0.17549800 8039.48218292 0 -31.38760495 0 1896.86639863 0 220.65039622 0 687.73309700 0 33633
0.17650000 0.17650100 8134.90347821 0 71.57482933 0 1842.47913912 0 403.69364119 0 340.13517503 0 33984
0.17750000 0.17750300 8011.39169486 0 38.43303595 0 1761.60687865 0 -131.76841597 0 485.59341341 0 34069
0.17850000 0.17849800 7979.75806285 0 253.18974440 0 2051.43605310 0 -195.62029873 0 578.18683694 0 34536
