### header ###
fiducial parameters:
Omega_m = 0.31
Omega_nu = 0
Omega_de = 0.69
Omega_k = 0
H_0 = 100
w_de = -1
zeff = 0
beta = 0
fgrowth = 0
b_1 = 2
gamma = 0.55
Lx = 3500 Ly = 3500 Lz = 3500
nx = 700 ny = 700 nz = 700
xoffset = -685.467585 yoffset = -31.7331281 zoffset = 572.489161
bins = 400 dk = 0.001
kx_ny = 0.628318531 ky_ny = 0.628318531 kz_ny = 0.628318531
############################
A(data) = 8.06566209 (not used)
A(ran) = 8.05837528 (used)
Ngal = 479413
weighted Ngal = 0
Nran = 23820508
weighted Nran = 0
SN(data) = 3496.09521
SN(ran) = 70.1913712
SN(data+ran) = 3566.28658
############################
13 columns: k_central k_mean P_0(k) sigma^{lin}_{P_0(k)} P^img_1(k) sigma^{lin}_{P_1(k)} P_2(k) sigma^{lin}_{P_2(k)} P^img_3(k) sigma^{lin}_{P_3(k)} P_4(k) sigma^{lin}_{P_4(k)} N_modes
### header ###
0.00050000 0 0 0 0 0 0 0 0 0 0 0 0
0.00150000 0.00179520 34405.36707872 0 -45465.29089357 0 2265.14299442 0 -43684.75033949 0 -21025.56976787 0 3
0.00250000 0.00253879 56140.22997448 0 -38362.61596891 0 -14388.59682508 0 1252.33529861 0 27669.85044505 0 6
0.00350000 0.00331552 72291.65163393 0 -22244.74345365 0 -11417.00629025 0 -29977.32293725 0 11105.32034661 0 7
0.00450000 0.00420575 76939.59214631 0 1705.24874532 0 -10847.95522852 0 -32626.70881986 0 19761.55316658 0 24
0.00550000 0.00557378 59335.48147064 0 16610.70169293 0 -5949.10476343 0 -12603.73806431 0 18530.64281649 0 45
0.00650000 0.00659388 52411.29242206 0 12157.52337412 0 -3854.04375055 0 2218.72780878 0 34754.69892675 0 40
0.00750000 0.00754703 51330.96568950 0 -9712.82048811 0 -7097.08340063 0 3871.39408354 0 -8754.26718391 0 57
0.00850000 0.00846663 56385.70341571 0 -13286.01471964 0 -5456.17593483 0 14367.67013117 0 14892.05543458 0 75
0.00950000 0.00948925 73954.93626819 0 -12457.02976047 0 815.30067293 0 -2140.21395350 0 9309.85429866 0 112
0.01050000 0.01054430 79637.80698136 0 -6936.88900516 0 -5851.41364156 0 -5785.98727421 0 19409.01034435 0 105
0.01150000 0.01145670 93847.69648387 0 -4662.62241508 0 -9455.99791395 0 -1887.44385021 0 21218.00677322 0 144
0.01250000 0.01249090 81810.08638753 0 885.91110276 0 -1202.25517346 0 13982.13178099 0 25939.24607589 0 169
0.01350000 0.01339930 84492.68924459 0 1640.78567023 0 -752.96459143 0 14687.66031843 0 29534.54066775 0 180
0.01450000 0.01448870 80396.37195469 0 4536.22075495 0 -7606.86430761 0 13190.12838671 0 20528.75455326 0 267
0.01550000 0.01550050 73309.41973126 0 4984.11843852 0 -7050.62392569 0 1002.33327653 0 31903.79673245 0 238
0.01650000 0.01653350 69965.13474304 0 -2225.63693947 0 3148.13875406 0 -1660.05151541 0 18211.53841521 0 315
0.01750000 0.01747870 78308.68511013 0 -3005.04002811 0 -3029.86418035 0 -5430.18918848 0 18837.12476747 0 297
0.01850000 0.01844180 81455.21837709 0 -4750.84669924 0 13360.53146567 0 -23049.92291447 0 -682.07624625 0 388
0.01950000 0.01947590 80309.67565136 0 1468.99855066 0 8572.60355061 0 -11431.51103576 0 14200.03513342 0 399
0.02050000 0.02045430 85070.33243038 0 -322.82138072 0 20309.74396835 0 -11564.15748709 0 -3739.94344329 0 462
0.02150000 0.02154770 84040.27405250 0 1818.77329169 0 15081.61363548 0 -4820.17052493 0 -6262.65085765 0 571
0.02250000 0.02255340 86750.00410537 0 5826.03587308 0 22582.67080712 0 -5088.74083573 0 -19983.44255594 0 510
0.02350000 0.02348930 77209.64614863 0 5649.08905015 0 19431.70861023 0 -481.73360098 0 -11949.36366753 0 555
0.02450000 0.02439640 73972.20909491 0 7370.97949967 0 17212.92543982 0 -4120.98642960 0 -9548.07536714 0 592
0.02550000 0.02547300 69129.72783547 0 1177.51959981 0 21437.79242087 0 3369.02056187 0 -8192.35777169 0 837
0.02650000 0.02652900 68708.75804587 0 185.86004441 0 19542.76402816 0 13438.92352538 0 -5964.11883589 0 723
0.02750000 0.02749970 65437.66112470 0 1212.47492927 0 19784.80504869 0 14177.55831404 0 -15465.38041369 0 826
0.02850000 0.02848090 65210.01412642 0 2840.95924662 0 11531.71557537 0 3005.85938014 0 -4477.33813157 0 831
0.02950000 0.02946900 62705.78642219 0 2769.93028291 0 12468.98787127 0 4564.75413601 0 -7354.93570101 0 996
0.03050000 0.03053250 55614.62671534 0 2880.07777020 0 7463.74343700 0 -4831.80753831 0 -3153.86314599 0 1041
0.03150000 0.03150510 57715.71107292 0 3362.35502233 0 16077.34780642 0 -6464.47719444 0 -10076.46885213 0 1036
0.03250000 0.03246190 55499.91743022 0 1158.29804393 0 12992.59811194 0 -4545.85367754 0 -13028.69389085 0 1059
0.03350000 0.03345080 51807.51854969 0 2724.65554672 0 10862.24959986 0 -4760.76750227 0 -16215.53042016 0 1302
0.03450000 0.03451200 50964.36101475 0 2021.69578864 0 8179.08205423 0 -2542.43829718 0 -21470.67722558 0 1339
0.03550000 0.03553350 48143.79699045 0 673.60813222 0 9815.33914361 0 1389.86464519 0 -20758.28384675 0 1365
0.03650000 0.03647120 47529.83657926 0 1896.61173516 0 7681.68000641 0 4653.79777220 0 -22665.04890377 0 1308
0.03750000 0.03744890 45636.91192826 0 847.06052944 0 4640.34489755 0 3634.90029774 0 -20566.06828790 0 1579
0.03850000 0.03847530 44858.63821676 0 629.07302734 0 4847.50809490 0 2318.04656241 0 -20008.13384029 0 1662
0.03950000 0.03950240 43152.50368545 0 1414.84380998 0 4747.83502689 0 -535.59271059 0 -16627.97451965 0 1683
0.04050000 0.04050350 43427.87240369 0 1621.17658297 0 5604.05790511 0 -3668.29442939 0 -10882.94377495 0 1822
0.04150000 0.04152450 41703.57925969 0 -993.29383055 0 5761.31813451 0 -4687.95589427 0 -10726.71327176 0 1887
0.04250000 0.04250150 44451.61955643 0 -575.66788304 0 11778.40697233 0 -967.56064044 0 -8205.65563380 0 1920
0.04350000 0.04349210 44862.18136070 0 875.12222946 0 13145.28547119 0 -4769.72501305 0 -7424.33703297 0 2005
0.04450000 0.04448520 44764.30200931 0 1214.49009238 0 14953.28539083 0 -992.77896745 0 -6837.84705965 0 2151
0.04550000 0.04548030 43999.86870383 0 2603.93398923 0 17409.12703561 0 -3119.02961211 0 -6072.83799328 0 2274
0.04650000 0.04648670 42819.66960141 0 1268.92164119 0 19834.29834063 0 962.70542601 0 -5318.73516686 0 2311
0.04750000 0.04749250 40106.17495810 0 472.52585566 0 17892.10184420 0 2344.11081503 0 -9410.00347665 0 2568
0.04850000 0.04851840 40608.08344213 0 2989.17338664 0 19101.97477713 0 1249.97689343 0 -10912.29650804 0 2493
0.04950000 0.04949480 38287.76705313 0 1747.95470215 0 16266.79528407 0 -829.12557770 0 -8117.34277105 0 2644
0.05050000 0.05050630 36959.19879815 0 487.72594317 0 17256.88256935 0 1072.89166644 0 -8097.14685058 0 2829
0.05150000 0.05149060 37611.80162296 0 -122.05909434 0 16819.41501576 0 96.33465136 0 -6507.20529592 0 2784
0.05250000 0.05249300 37999.00082186 0 440.99962520 0 15113.94482395 0 2482.02769297 0 -6055.29943077 0 3055
0.05350000 0.05348950 36721.80815403 0 1247.92851334 0 13928.54172886 0 1171.64019533 0 -2777.23801729 0 3009
0.05450000 0.05448610 36162.54502744 0 758.00914262 0 13609.32660434 0 2894.80396221 0 -4251.67307944 0 3336
0.05550000 0.05550870 35120.86070851 0 1345.37604406 0 14544.49515853 0 1727.61484145 0 -2474.19955933 0 3349
0.05650000 0.05647670 33984.28656587 0 1368.67221548 0 14059.85950121 0 2025.93648904 0 -4645.55996254 0 3324
0.05750000 0.05747970 33100.27215235 0 833.68405383 0 14492.23378538 0 686.04124576 0 -3541.62703347 0 3639
0.05850000 0.05849280 32072.98185568 0 121.65716894 0 12360.25764155 0 2033.19993412 0 -2708.88855618 0 3846
0.05950000 0.05951020 32459.29526860 0 -558.85012887 0 10587.89953551 0 1937.97794068 0 -2541.15390750 0 3787
0.06050000 0.06049470 31709.36670863 0 746.69876282 0 10255.41976585 0 2266.68204757 0 -1626.05947822 0 3930
0.06150000 0.06148310 31758.63855408 0 54.05132517 0 10071.84062036 0 906.91198125 0 -190.29229603 0 4083
0.06250000 0.06249100 31229.38142774 0 222.07761889 0 9959.65582530 0 978.40487537 0 256.83143203 0 4303
0.06350000 0.06350600 30865.10194121 0 480.69833861 0 10088.75913268 0 2584.52420382 0 417.59051607 0 4470
0.06450000 0.06451750 30338.83434258 0 -163.57809794 0 10221.73775375 0 2330.12646878 0 2169.73277146 0 4479
0.06550000 0.06550280 31176.56643836 0 110.14870525 0 8606.67309408 0 1054.34773683 0 2458.66508760 0 4636
0.06650000 0.06648880 30891.34335103 0 186.66610965 0 8890.25747734 0 752.60031195 0 1641.76003481 0 4653
0.06750000 0.06749660 30848.27200749 0 243.97314122 0 8146.20832185 0 -291.66828761 0 3992.19314731 0 5220
0.06850000 0.06852730 30969.73541075 0 552.97515333 0 8416.86022972 0 -945.19232984 0 -98.59240912 0 5029
0.06950000 0.06949320 29270.02282784 0 1310.32106369 0 9022.52746962 0 -2325.36536911 0 794.03073695 0 5040
0.07050000 0.07048030 29637.62401182 0 881.05035217 0 9800.73474717 0 -808.03722785 0 -1465.49969602 0 5475
0.07150000 0.07148790 28467.50072498 0 148.31268371 0 9815.39450523 0 -617.60099159 0 -821.32180317 0 5509
0.07250000 0.07249820 28273.73504065 0 397.12775257 0 8517.26407117 0 1345.03280199 0 -1769.46822927 0 5916
0.07350000 0.07351270 28745.85897092 0 -357.31610146 0 9209.79369928 0 2109.74291559 0 -2466.70359542 0 5721
0.07450000 0.07449140 28807.19965042 0 -119.01420501 0 7422.29972521 0 686.71665758 0 -2895.20256590 0 6028
0.07550000 0.07549160 27630.87586168 0 797.20295801 0 7701.77627595 0 -295.13724697 0 -3132.75929489 0 6183
0.07650000 0.07648840 27180.45368806 0 1094.77168751 0 6864.58672409 0 246.05805998 0 -1268.20194008 0 6330
0.07750000 0.07749960 26265.65821154 0 833.84681700 0 7599.86659832 0 -300.83395809 0 -548.59161993 0 6583
0.07850000 0.07848650 26112.52795930 0 575.77971352 0 7604.95986774 0 198.72940754 0 -1206.06405320 0 6549
0.07950000 0.07947320 25223.19882987 0 734.61885644 0 7960.11575862 0 1379.74454030 0 -861.54755923 0 6828
0.08050000 0.08048110 24872.31685637 0 903.77519162 0 7721.95005177 0 -160.17114359 0 -212.61188840 0 7147
0.08150000 0.08149960 23361.71958136 0 1145.06661577 0 7742.45599734 0 426.98649091 0 -364.18315731 0 7386
0.08250000 0.08250610 23570.21145769 0 348.28772780 0 7450.86632324 0 -271.44690079 0 192.81014269 0 7227
0.08350000 0.08350160 23138.39078977 0 -36.50080455 0 9014.19000903 0 619.30612962 0 951.69289174 0 7798
0.08450000 0.08449610 23189.43420718 0 149.06560180 0 8997.81404062 0 -187.02485298 0 877.15289383 0 7371
0.08550000 0.08548940 23217.11501923 0 167.56413488 0 9327.09390841 0 76.57331964 0 1155.52996272 0 8256
0.08650000 0.08650700 23039.40420589 0 625.91852200 0 9774.80336245 0 -1263.50727436 0 1568.43909986 0 8037
0.08750000 0.08749060 22457.33209017 0 850.93252143 0 11017.58324474 0 -26.81019515 0 2913.79299927 0 8155
0.08850000 0.08849210 22478.81240032 0 171.45162812 0 10672.29279527 0 -60.62097838 0 1597.40430159 0 8718
0.08950000 0.08949900 22322.58189713 0 -178.86565682 0 10919.80354427 0 1041.20931620 0 2623.37699161 0 8571
0.09050000 0.09049190 22249.39383008 0 514.34159757 0 10529.96913205 0 1015.48830565 0 380.78500114 0 8932
0.09150000 0.09150830 21654.25637107 0 669.00204510 0 9551.06489484 0 640.94809571 0 1074.47168719 0 9285
0.09250000 0.09250820 20908.20312479 0 547.77891129 0 9105.21559137 0 864.85264819 0 568.33800401 0 9204
0.09350000 0.09350330 20193.81672750 0 523.99777204 0 7466.31221636 0 1806.77089158 0 230.85354354 0 9349
0.09450000 0.09448040 19571.55207269 0 604.58104484 0 7284.30534099 0 1480.19267106 0 -858.16828570 0 9564
0.09550000 0.09549270 18714.11123873 0 630.64529746 0 5723.29577108 0 806.84806016 0 -1102.16578603 0 10155
0.09650000 0.09649430 18312.18584781 0 537.23805806 0 5916.82893659 0 685.21525033 0 -984.63637978 0 9913
0.09750000 0.09749140 17390.63625316 0 623.43057061 0 4940.05058574 0 -55.30548741 0 -302.05855722 0 10476
0.09850000 0.09850240 17294.86064348 0 452.99759638 0 5696.26822620 0 -324.53205490 0 -1841.08402619 0 10575
0.09950000 0.09950330 16903.67540763 0 239.88634613 0 5830.33193510 0 -238.18563703 0 -384.60052427 0 10882
0.10050000 0.10051200 16670.93513995 0 487.15904014 0 6237.91528400 0 -481.29402968 0 -1072.29486813 0 10875
0.10150000 0.10150300 16528.76648928 0 232.78012806 0 6246.34132319 0 -379.36774356 0 -907.21757741 0 11118
0.10250000 0.10250800 16089.19519397 0 437.80525949 0 6783.37122155 0 217.71512291 0 201.05238129 0 11575
0.10350000 0.10349800 16515.70114599 0 -21.01881565 0 6824.41632965 0 285.87746173 0 124.21930491 0 11364
0.10450000 0.10450100 16256.27657549 0 -660.09989595 0 6170.75056165 0 1276.41760509 0 570.10736152 0 12093
0.10550000 0.10551000 16861.71129657 0 -396.72139825 0 6254.47948193 0 1314.20744970 0 -723.82444697 0 12067
0.10650000 0.10649700 16917.95870665 0 55.54287805 0 5532.79642258 0 470.19734575 0 -516.77972349 0 12054
0.10750000 0.10749900 16594.42537545 0 921.43554971 0 5783.71744762 0 -462.02929173 0 -358.53627165 0 12807
0.10850000 0.10850100 16016.11785017 0 688.51701759 0 5871.86422550 0 -835.20096233 0 129.33582621 0 12736
0.10950000 0.10950300 15441.79636183 0 368.30759830 0 5865.89624242 0 -19.78967687 0 -104.44435423 0 12933
0.11050000 0.11050200 15388.98137244 0 60.82559494 0 5675.75120831 0 430.75772474 0 594.39561324 0 13428
0.11150000 0.11150900 15372.48360846 0 -268.21156748 0 5386.06597408 0 1055.46382718 0 -483.52621037 0 13453
0.11250000 0.11250000 15452.20434716 0 -61.14425645 0 5055.33563175 0 873.36726598 0 -129.28600074 0 13668
0.11350000 0.11349100 15228.54338582 0 408.54664116 0 4634.14439565 0 1062.29102266 0 -325.35583587 0 13791
0.11450000 0.11448600 14917.18961192 0 489.28381927 0 4284.17035278 0 -96.07179437 0 418.35450648 0 14205
0.11550000 0.11549300 14602.73558707 0 339.42322455 0 4018.40134016 0 -39.76769399 0 -403.69474842 0 14776
0.11650000 0.11649800 14242.66358397 0 202.16957886 0 4438.98359839 0 -340.94899091 0 606.99370442 0 14553
0.11750000 0.11747300 14177.55831404 0 91.61263700 0 4533.22015493 0 -442.83430942 0 -266.17868864 0 14568
0.11850000 0.11849100 14460.45621315 0 -59.11481004 0 5012.17570961 0 -168.32258913 0 27.66918611 0 16015
0.11950000 0.11950300 14338.54991690 0 -57.03133068 0 5149.77149013 0 -375.05839474 0 -783.14331996 0 15270
0.12050000 0.12050700 14436.98288454 0 213.88409852 0 5032.11696660 0 -66.09236769 0 -728.14708258 0 15999
0.12150000 0.12150000 14460.01332016 0 157.39752623 0 5179.20172949 0 -91.80042362 0 -343.70157086 0 15670
0.12250000 0.12250700 14362.46613851 0 119.92102841 0 5257.87059733 0 314.17057333 0 -1132.85384149 0 16887
0.12350000 0.12352200 14220.18676459 0 -153.70822760 0 5236.25741929 0 250.71175810 0 -1022.98759125 0 16407
0.12450000 0.12449800 14136.81215870 0 216.96220482 0 5127.16180285 0 385.20064428 0 -898.55126878 0 16306
0.12550000 0.12549900 14063.62409165 0 257.73936266 0 4742.61996190 0 547.67150974 0 -423.31601523 0 17523
0.12650000 0.12650100 13863.99007517 0 280.59264109 0 4328.01675906 0 868.67038579 0 -299.77433660 0 17154
0.12750000 0.12750600 13424.75094962 0 203.11072647 0 4081.33643443 0 672.68691480 0 508.78439774 0 18007
0.12850000 0.12850300 13611.43034606 0 -46.33723647 0 3830.86937470 0 567.61498120 0 -47.80686615 0 17496
0.12950000 0.12949900 13240.83963438 0 305.95933725 0 3654.39866174 0 103.74303317 0 252.93508092 0 18405
0.13050000 0.13049000 13129.11987696 0 423.24958129 0 3663.79906552 0 89.94326258 0 193.07809296 0 18100
0.13150000 0.13148800 12743.36008028 0 66.76811167 0 3521.07679860 0 -159.54223554 0 414.84347228 0 19059
0.13250000 0.13249300 12594.76948121 0 56.89458746 0 3495.79868104 0 198.73826540 0 145.04191896 0 18957
0.13350000 0.13349100 12538.18990139 0 342.08944036 0 3648.82928236 0 98.99189859 0 24.46507675 0 19468
0.13450000 0.13450700 12454.04023277 0 272.31718552 0 3351.11661264 0 151.53473024 0 81.46584781 0 19953
0.13550000 0.13551000 11973.72278213 0 158.73395583 0 3376.74904459 0 85.43505481 0 -106.16443989 0 19956
0.13650000 0.13649900 11989.33476013 0 333.97785520 0 3880.00835225 0 -209.56699908 0 -36.65083455 0 19723
0.13750000 0.13749600 11756.48376919 0 389.23539944 0 3859.86779340 0 43.19978251 0 644.99613766 0 20946
0.13850000 0.13851100 11424.31402463 0 264.63077763 0 3740.58563813 0 72.12556676 0 778.00465401 0 20955
0.13950000 0.13949800 11141.08395577 0 215.75089249 0 3583.25897478 0 431.15965014 0 1085.49640101 0 20506
0.14050000 0.14048300 11071.48332196 0 76.91966196 0 3411.77080799 0 722.02076526 0 1246.06836277 0 21447
0.14150000 0.14148400 11054.78625613 0 -13.13033783 0 3123.71320551 0 562.92031548 0 1246.61090668 0 21771
0.14250000 0.14249400 11052.30605537 0 -62.40207255 0 2869.50370000 0 394.02528716 0 681.51820107 0 22470
0.14350000 0.14350900 11106.09540934 0 11.35112596 0 2644.38119179 0 -444.89819077 0 509.50409885 0 22519
0.14450000 0.14449900 11012.34603510 0 178.59106316 0 2949.09157080 0 -428.59972864 0 646.35803361 0 22218
0.14550000 0.14550500 10907.79007184 0 165.27216364 0 3101.67927912 0 -407.97752366 0 576.25360902 0 23559
0.14650000 0.14650700 10793.90013876 0 253.47319591 0 3542.78962757 0 -59.58084419 0 710.51440531 0 23044
0.14750000 0.14750500 10715.00982442 0 374.57564138 0 3524.57565325 0 147.94286806 0 649.45164117 0 23649
0.14850000 0.14849900 10337.44354811 0 154.36481646 0 3290.69493610 0 350.60405815 0 988.54491044 0 23640
0.14950000 0.14949500 10250.21577319 0 80.90636324 0 3345.62473953 0 484.62790668 0 914.96931202 0 24457
0.15050000 0.15050000 10303.14148582 0 64.94449978 0 3256.33751219 0 519.44815377 0 1046.84512954 0 24591
0.15150000 0.15149900 9903.85130821 0 74.11426702 0 2760.28628799 0 555.55943394 0 997.01191722 0 25020
0.15250000 0.15250500 10116.99356097 0 156.23936105 0 2771.11502166 0 306.92816567 0 755.70388459 0 25297
0.15350000 0.15350100 9839.24429289 0 117.18505695 0 2514.46960469 0 -183.42191848 0 884.27904208 0 25452
0.15450000 0.15450400 9812.37176056 0 91.23551361 0 2643.42897185 0 -201.93816727 0 336.36726290 0 26061
0.15550000 0.15549900 9681.79583397 0 154.63830288 0 2882.49153701 0 -456.30932873 0 629.61114233 0 26128
0.15650000 0.15649500 9662.67392901 0 236.54471850 0 3009.41359641 0 -285.71580578 0 268.34443537 0 26331
0.15750000 0.15749700 9506.79774021 0 183.27576379 0 3165.97626934 0 -280.09438647 0 94.46165690 0 27345
0.15850000 0.15849900 9353.92215144 0 176.91582042 0 3364.09337732 0 7.23790123 0 -32.81039869 0 26980
0.15950000 0.15949700 9304.71673995 0 164.81266216 0 3444.89920385 0 -169.22830530 0 45.16168775 0 27777
0.16050000 0.16050000 9054.16110163 0 176.28691237 0 3375.69717373 0 135.64594412 0 -107.12706781 0 28224
0.16150000 0.16150500 8968.39487358 0 153.40706036 0 3352.55601486 0 79.72505690 0 -36.34512766 0 28075
0.16250000 0.16249700 8962.94728977 0 -8.48895214 0 3310.91300122 0 434.99399622 0 68.29620322 0 28590
0.16350000 0.16349900 8909.74476902 0 -53.24614571 0 3071.20824122 0 504.28681940 0 240.80977802 0 29163
0.16450000 0.16449100 8972.51377841 0 32.02581375 0 2810.69858289 0 494.49445533 0 261.04777332 0 28996
0.16550000 0.16550500 8905.42656234 0 83.25624273 0 2687.06500396 0 243.47931553 0 289.28109437 0 30777
0.16650000 0.16650700 8743.10628050 0 241.56601780 0 2661.03396831 0 -5.69490633 0 561.90719776 0 29211
0.16750000 0.16749900 8568.99397272 0 289.24677017 0 2709.84077612 0 119.29322760 0 488.59069174 0 30922
0.16850000 0.16850800 8388.22719773 0 130.89370231 0 2451.77810157 0 -120.61637041 0 453.20907778 0 30867
0.16950000 0.16949900 8333.13130944 0 16.72873268 0 2550.75361312 0 -86.47784636 0 156.16406924 0 30852
0.17050000 0.17049200 8325.40282671 0 95.24912064 0 2548.66094373 0 -143.94908050 0 -19.14183515 0 31257
0.17150000 0.17149500 8281.51213113 0 86.75310436 0 2538.31939235 0 -33.70105650 0 98.94971304 0 32608
0.17250000 0.17250900 8315.64810855 0 -29.13029009 0 2559.64468995 0 69.80215012 0 57.53135686 0 32361
0.17350000 0.17350400 8255.49216781 0 39.39677111 0 2584.50205917 0 238.87655010 0 36.70398171 0 32508
0.17450000 0.17449800 8185.39327938 0 115.62164469 0 2720.00517030 0 255.22815939 0 -6.02501662 0 32791
0.17550000 0.17549800 8122.26995559 0 173.06929478 0 2365.12608754 0 390.02042727 0 56.40275480 0 33633
0.17650000 0.17650100 7962.31915126 0 105.67072493 0 2307.05174386 0 216.50270334 0 227.03912764 0 33984
0.17750000 0.17750300 7910.65568366 0 28.24228964 0 2286.30220715 0 65.91155663 0 278.91739834 0 34069
0.17850000 0.17849800 7978.45152852 0 -39.22548224 0 2318.81055282 0 5.77521390 0 481.91961603 0 34536
