### header ###
fiducial parameters:
Omega_m = 0.31
Omega_nu = 0
Omega_de = 0.69
Omega_k = 0
H_0 = 100
w_de = -1
zeff = 0
beta = 0
fgrowth = 0
b_1 = 2
gamma = 0.55
Lx = 3500 Ly = 3500 Lz = 3500
nx = 700 ny = 700 nz = 700
xoffset = -685.467585 yoffset = -31.7331281 zoffset = 572.489161
bins = 400 dk = 0.001
kx_ny = 0.628318531 ky_ny = 0.628318531 kz_ny = 0.628318531
############################
A(data) = 8.03692525 (not used)
A(ran) = 8.03650422 (used)
Ngal = 477494
weighted Ngal = 0
Nran = 23820508
weighted Nran = 0
SN(data) = 3486.59617
SN(ran) = 70.0008664
SN(data+ran) = 3556.59704
############################
13 columns: k_central k_mean P_0(k) sigma^{lin}_{P_0(k)} P^img_1(k) sigma^{lin}_{P_1(k)} P_2(k) sigma^{lin}_{P_2(k)} P^img_3(k) sigma^{lin}_{P_3(k)} P_4(k) sigma^{lin}_{P_4(k)} N_modes
### header ###
0.00050000 0 0 0 0 0 0 0 0 0 0 0 0
0.00150000 0.00179520 125046.40757186 0 -45892.90407807 0 67181.33083714 0 103589.79219880 0 -399433.01060018 0 3
0.00250000 0.00253879 208622.52976797 0 -13383.34045479 0 74543.20888581 0 13260.54837256 0 313945.80514038 0 6
0.00350000 0.00331552 161062.46574196 0 48527.89593841 0 53396.61860767 0 -84130.18133003 0 152610.96020788 0 7
0.00450000 0.00420575 109398.22307542 0 71146.66252444 0 55103.52820171 0 -24371.95849781 0 88405.64883550 0 24
0.00550000 0.00557378 91401.15559194 0 -17152.13837657 0 87795.34229150 0 84229.27863716 0 -37369.20698618 0 45
0.00650000 0.00659388 95156.33455418 0 967.02473992 0 101322.95513868 0 48584.80768798 0 8694.29947270 0 40
0.00750000 0.00754703 88347.07623721 0 22265.78087081 0 47189.36259109 0 26786.94326401 0 -19822.11878333 0 57
0.00850000 0.00846663 68462.06664891 0 18371.75495534 0 46798.50952499 0 16907.77216782 0 29749.45449248 0 75
0.00950000 0.00948925 70341.92595662 0 1592.06744102 0 29426.36405428 0 23663.77260241 0 4115.28418232 0 112
0.01050000 0.01054430 67147.22807670 0 -10720.83386728 0 32529.27236145 0 18585.11865459 0 17288.21724859 0 105
0.01150000 0.01145670 72002.88540266 0 -4597.52821747 0 28949.81119408 0 29.71767692 0 5204.92274005 0 144
0.01250000 0.01249090 87341.93059018 0 -11166.10740986 0 23152.34191904 0 -3095.68915140 0 -7205.80255803 0 169
0.01350000 0.01339930 94632.50286701 0 -12337.67009892 0 23995.94234697 0 -16139.13137891 0 -26760.25896119 0 180
0.01450000 0.01448870 98687.18821560 0 14988.93827675 0 53587.72693404 0 -42850.56138765 0 -31216.20536121 0 267
0.01550000 0.01550050 86683.23798671 0 8782.81163730 0 59131.97214048 0 -15101.43309690 0 16265.90949808 0 238
0.01650000 0.01653350 87619.84594312 0 217.30101796 0 54761.39336481 0 6016.23626881 0 -23687.46737752 0 315
0.01750000 0.01747870 82492.47376611 0 1687.56624258 0 47144.07678258 0 8759.48224890 0 -28065.46461082 0 297
0.01850000 0.01844180 92141.78339906 0 -8680.44799435 0 36941.70452493 0 19073.29745585 0 -70475.01530094 0 388
0.01950000 0.01947590 86619.35067251 0 887.41804617 0 23367.80936001 0 10269.21588258 0 -39028.61630675 0 399
0.02050000 0.02045430 82731.41453569 0 1510.98480638 0 11335.84614933 0 13339.82621826 0 -46599.65057124 0 462
0.02150000 0.02154770 82561.12217998 0 2170.29746003 0 5152.62814993 0 5007.00493392 0 -43031.15100544 0 571
0.02250000 0.02255340 80826.08888090 0 5865.38691548 0 7853.79929571 0 -15437.47815515 0 -36763.99371159 0 510
0.02350000 0.02348930 75978.62507530 0 9630.61954866 0 21388.40985218 0 -19651.27281138 0 -21351.87118028 0 555
0.02450000 0.02439640 73829.04393500 0 8638.17385819 0 31658.65546096 0 -21090.23214481 0 -8087.35891544 0 592
0.02550000 0.02547300 68251.91392385 0 838.50715852 0 40033.20833755 0 294.50280276 0 2051.51355937 0 837
0.02650000 0.02652900 71783.76409450 0 -3973.34805047 0 42632.21514223 0 21029.55580481 0 -7415.31308824 0 723
0.02750000 0.02749970 73157.06454176 0 1692.08375111 0 41385.13919790 0 19914.90486531 0 -3323.64617476 0 826
0.02850000 0.02848090 68292.32790944 0 5698.72628231 0 30629.48286907 0 16321.60329192 0 6553.24402251 0 831
0.02950000 0.02946900 64151.38915051 0 1911.03897440 0 27016.14038775 0 8852.47870506 0 3419.67644791 0 996
0.03050000 0.03053250 59338.47099834 0 4814.64543484 0 23107.60972677 0 2867.47746456 0 614.92813238 0 1041
0.03150000 0.03150510 57016.38303738 0 3789.52531383 0 21954.20565041 0 -2069.43965325 0 5230.98699267 0 1036
0.03250000 0.03246190 57184.57165137 0 -1036.08504428 0 20065.70992934 0 2429.77739215 0 -1170.57725215 0 1059
0.03350000 0.03345080 55462.71441883 0 -1496.30290367 0 19793.22001556 0 1672.79576128 0 4528.23760876 0 1302
0.03450000 0.03451200 56158.16714069 0 2676.96704373 0 18158.39125608 0 5347.23533094 0 -6258.47659119 0 1339
0.03550000 0.03553350 55075.95811291 0 2709.02142408 0 17055.80915064 0 3760.54903978 0 1933.38292588 0 1365
0.03650000 0.03647120 49528.72337877 0 1537.30372247 0 13736.43689326 0 5728.05687076 0 3991.97170082 0 1308
0.03750000 0.03744890 50312.20108294 0 -432.13733642 0 12422.81627678 0 4724.67172336 0 2370.68439460 0 1579
0.03850000 0.03847530 49867.75796472 0 1645.42497432 0 14589.00590430 0 172.16468584 0 8928.94418025 0 1662
0.03950000 0.03950240 47044.64730571 0 1841.09509852 0 11370.83469576 0 1357.28986557 0 8472.83083167 0 1683
0.04050000 0.04050350 48309.88186273 0 1203.42883989 0 12381.62722845 0 -1141.70062903 0 8146.50727462 0 1822
0.04150000 0.04152450 47138.87278991 0 -1036.21016155 0 13563.04428660 0 1620.06935049 0 7902.31822307 0 1887
0.04250000 0.04250150 46680.92143541 0 1260.58418060 0 16474.73354416 0 -423.25179575 0 3896.82721365 0 1920
0.04350000 0.04349210 45022.84079382 0 2737.17834609 0 13724.36805921 0 -2646.32992096 0 1370.51022140 0 2005
0.04450000 0.04448520 42547.17968762 0 2947.29785418 0 16529.54155201 0 -1069.06949991 0 1225.03094561 0 2151
0.04550000 0.04548030 40939.58884720 0 1513.27677761 0 15500.36896012 0 -2233.94118309 0 256.89675874 0 2274
0.04650000 0.04648670 40134.52010964 0 263.85128596 0 15191.11892793 0 37.21220142 0 -5121.64778509 0 2311
0.04750000 0.04749250 40161.53658219 0 703.92083588 0 14637.05979401 0 -581.54396582 0 -4591.61559602 0 2568
0.04850000 0.04851840 40119.24030139 0 1335.93135099 0 14983.62356083 0 1242.76880997 0 -4717.89546058 0 2493
0.04950000 0.04949480 39306.64238295 0 793.19920536 0 13586.62833846 0 650.75706826 0 -1110.76455348 0 2644
0.05050000 0.05050630 39069.69463183 0 -428.82006790 0 15946.25148057 0 1888.34070852 0 -4381.91683628 0 2829
0.05150000 0.05149060 39531.41057676 0 1044.80450007 0 17848.36616116 0 1949.16098875 0 -1998.73178696 0 2784
0.05250000 0.05249300 38402.25489176 0 2852.38588583 0 16886.62402741 0 409.59961925 0 -1684.08953259 0 3055
0.05350000 0.05348950 36121.24525587 0 948.64246625 0 15371.81926897 0 2181.04868743 0 2788.31034211 0 3009
0.05450000 0.05448610 36504.23697135 0 -835.63278299 0 17642.75308928 0 1721.45862885 0 675.10843224 0 3336
0.05550000 0.05550870 36499.80804142 0 144.57466685 0 13488.41681732 0 4833.94449700 0 1223.94585778 0 3349
0.05650000 0.05647670 35001.05815397 0 604.14922417 0 13486.64524535 0 3660.73203154 0 2063.26129601 0 3324
0.05750000 0.05747970 34939.05313498 0 353.25587994 0 8323.04442153 0 3829.87286547 0 2560.18723387 0 3639
0.05850000 0.05849280 35565.30382673 0 -732.15083524 0 8693.96730295 0 1804.73358382 0 1096.43142900 0 3846
0.05950000 0.05951020 34340.70470178 0 657.62190965 0 7351.81330541 0 -411.08995417 0 1302.90260606 0 3787
0.06050000 0.06049470 35032.94644945 0 1840.13180626 0 9743.96693783 0 -2690.68565418 0 -267.91040024 0 3930
0.06150000 0.06148310 32456.97008039 0 1471.77770419 0 8921.63644587 0 -3047.42488751 0 221.79970353 0 4083
0.06250000 0.06249100 32028.91400290 0 1073.15629500 0 10809.63391232 0 -1666.59525938 0 846.07398530 0 4303
0.06350000 0.06350600 31196.60734628 0 828.83437555 0 11338.50350729 0 1707.85074165 0 -1177.18743007 0 4470
0.06450000 0.06451750 31319.06725877 0 -371.33587914 0 10765.30032375 0 2641.73490616 0 969.74963906 0 4479
0.06550000 0.06550280 31188.19237942 0 -264.19120634 0 9257.50434692 0 3907.66701965 0 -771.31918428 0 4636
0.06650000 0.06648880 31872.68349971 0 -878.99422145 0 8530.89410302 0 2704.75857902 0 -914.76779570 0 4653
0.06750000 0.06749660 31552.47186595 0 761.11714420 0 8352.62967344 0 -1126.33224218 0 1398.08031020 0 5220
0.06850000 0.06852730 31054.77086535 0 1339.83988165 0 8143.70597644 0 -912.76259768 0 1692.50449945 0 5029
0.06950000 0.06949320 30150.05120442 0 989.44287598 0 10321.70977454 0 -899.59871070 0 3452.60554192 0 5040
0.07050000 0.07048030 29303.01835580 0 879.76928419 0 9291.03134647 0 -673.14641628 0 1587.56100482 0 5475
0.07150000 0.07148790 28444.02739637 0 754.19029779 0 11177.95479742 0 -870.16293517 0 3549.06763574 0 5509
0.07250000 0.07249820 28343.37996376 0 992.39807947 0 12040.26745429 0 1165.82722480 0 3903.84706758 0 5916
0.07350000 0.07351270 27270.36096559 0 441.12584970 0 11448.45169274 0 1366.83420956 0 3439.06408867 0 5721
0.07450000 0.07449140 27367.35453100 0 -211.46479555 0 12401.66813637 0 1402.71961430 0 3478.14939528 0 6028
0.07550000 0.07549160 27322.17944574 0 103.69254337 0 11526.06868971 0 977.77264562 0 2745.74832550 0 6183
0.07650000 0.07648840 27606.95964008 0 210.03314395 0 10324.99825501 0 440.87118623 0 2474.16634235 0 6330
0.07750000 0.07749960 26795.69040061 0 40.46381105 0 9521.03674993 0 -622.36762743 0 2112.79887724 0 6583
0.07850000 0.07848650 27159.52699415 0 265.72693779 0 10483.48751247 0 -890.47068612 0 1182.87860503 0 6549
0.07950000 0.07947320 26679.65243651 0 517.76626763 0 9671.76430769 0 394.88117787 0 361.37189404 0 6828
0.08050000 0.08048110 26466.51018375 0 565.64300015 0 8810.50352167 0 470.95247830 0 256.87350686 0 7147
0.08150000 0.08149960 25314.43478637 0 908.89835632 0 9035.61495756 0 -79.72638558 0 -366.08538271 0 7386
0.08250000 0.08250610 24727.60157099 0 1705.41483019 0 10370.39478677 0 -27.54894066 0 -380.39968424 0 7227
0.08350000 0.08350160 23287.97789807 0 1187.63970470 0 9087.64381188 0 332.92376988 0 1202.21088416 0 7798
0.08450000 0.08449610 22746.43049119 0 208.12648962 0 10293.86287762 0 2188.63322993 0 3097.17284292 0 7371
0.08550000 0.08548940 23080.03963797 0 -456.85297988 0 9847.76998300 0 1927.96855905 0 1570.17745486 0 8256
0.08650000 0.08650700 22894.91036700 0 92.76061563 0 9343.23735799 0 1542.81774023 0 1331.26990225 0 8037
0.08750000 0.08749060 22554.10420909 0 454.98950761 0 8094.09088893 0 746.18611418 0 1683.75736285 0 8155
0.08850000 0.08849210 22217.39481135 0 474.89754763 0 8317.16501705 0 -311.11018275 0 2115.35658428 0 8718
0.08950000 0.08949900 21599.11619348 0 655.27457679 0 8895.58326557 0 -370.92731035 0 2447.75884766 0 8571
0.09050000 0.09049190 21218.00677322 0 1164.67570302 0 8513.64342095 0 -117.04997459 0 1713.46441034 0 8932
0.09150000 0.09150830 20026.51389949 0 842.89844254 0 8791.48126763 0 -44.31299405 0 2261.05730657 0 9285
0.09250000 0.09250820 19794.32724804 0 530.17834376 0 8288.59841902 0 374.56456906 0 1771.67162191 0 9204
0.09350000 0.09350330 19599.01143824 0 -47.02936750 0 8663.16409531 0 852.69523554 0 794.31086677 0 9349
0.09450000 0.09448040 19503.45727505 0 -131.36649058 0 7856.45665367 0 -92.07667813 0 1024.52332270 0 9564
0.09550000 0.09549270 19738.63345420 0 209.72090439 0 7764.79994882 0 236.32770093 0 84.61359903 0 10155
0.09650000 0.09649430 18840.33574166 0 208.71443006 0 7149.63265422 0 236.07525192 0 -204.88672737 0 9913
0.09750000 0.09749140 18804.79357900 0 678.89738179 0 7178.37640945 0 414.16695324 0 -1122.98840008 0 10476
0.09850000 0.09850240 18198.36234868 0 426.64103438 0 6971.03605490 0 533.63512356 0 -19.39262330 0 10575
0.09950000 0.09950330 17676.19151023 0 488.71138008 0 6637.10581069 0 1233.95523941 0 167.96827473 0 10882
0.10050000 0.10051200 17414.77392126 0 162.42325446 0 6141.06565882 0 1729.20925623 0 830.53287018 0 10875
0.10150000 0.10150300 17302.72199410 0 137.21157085 0 5564.83973060 0 1116.95398306 0 1089.51676215 0 11118
0.10250000 0.10250800 16987.27146002 0 479.72840295 0 5439.06919299 0 -2.72081345 0 1234.91853167 0 11575
0.10350000 0.10349800 16551.46475515 0 584.30872533 0 5715.71122858 0 -213.71247749 0 1923.18531473 0 11364
0.10450000 0.10450100 16193.27504727 0 486.33083024 0 6001.01182218 0 -829.13665002 0 1624.55364204 0 12093
0.10550000 0.10551000 15964.41009327 0 129.66024532 0 5958.59374580 0 51.48398522 0 499.98854291 0 12067
0.10650000 0.10649700 15684.28027536 0 187.44670855 0 5633.63208470 0 -76.50478195 0 -242.60570910 0 12054
0.10750000 0.10749900 15562.70614885 0 170.76514398 0 5566.58915792 0 637.30087191 0 -538.61434804 0 12807
0.10850000 0.10850100 15318.89355634 0 -40.71847452 0 4689.92676808 0 821.01620700 0 -777.75884840 0 12736
0.10950000 0.10950300 15333.06613211 0 -27.96824960 0 4279.90750772 0 1124.53852556 0 -825.18604453 0 12933
0.11050000 0.11050200 15427.51306281 0 26.66514769 0 3947.73776316 0 239.00941800 0 -1431.24192303 0 13428
0.11150000 0.11150900 15167.20270633 0 481.72031419 0 4177.13418876 0 -200.04479973 0 -618.28747573 0 13453
0.11250000 0.11250000 14880.87238652 0 478.63888619 0 4389.43494483 0 -691.45339813 0 626.16986377 0 13668
0.11350000 0.11349100 14727.18851803 0 375.49353711 0 5244.90490497 0 -411.90709174 0 991.18344544 0 13791
0.11450000 0.11448600 14663.96554332 0 14.88065094 0 5731.46714680 0 -44.85708809 0 843.85509140 0 14205
0.11550000 0.11549300 14508.51010287 0 27.10792996 0 6033.80804830 0 105.15198651 0 20.43043231 0 14776
0.11650000 0.11649800 14558.55701105 0 89.23009414 0 6036.64256345 0 262.51153466 0 196.23259830 0 14553
0.11750000 0.11747300 14368.77736365 0 327.65112880 0 6142.59363964 0 -109.64890051 0 9.54989123 0 14568
0.11850000 0.11849100 14003.61209113 0 411.59485218 0 5649.11119480 0 240.34031144 0 283.39061757 0 16015
0.11950000 0.11950300 14085.99018779 0 230.72067564 0 5536.28420490 0 130.72097404 0 -334.09300738 0 15270
0.12050000 0.12050700 13522.63030101 0 51.37005100 0 4738.94395006 0 415.01620055 0 356.93521348 0 15999
0.12150000 0.12150000 14033.50736815 0 -320.97894587 0 4894.86442815 0 1098.83965965 0 61.10672127 0 15670
0.12250000 0.12250700 13853.80353634 0 -182.78304534 0 4544.01567162 0 497.86044208 0 -410.86740044 0 16887
0.12350000 0.12352200 14198.59573119 0 96.66361013 0 4436.43696369 0 -29.78256074 0 -728.53572118 0 16407
0.12450000 0.12449800 13901.08236331 0 384.16427468 0 4285.27758526 0 -844.78073776 0 -795.95842870 0 16306
0.12550000 0.12549900 13672.21740931 0 488.21755439 0 4956.22725230 0 -827.39054440 0 -461.49228398 0 17523
0.12650000 0.12650100 13564.15151908 0 14.95306394 0 5021.45431780 0 -165.83131604 0 -197.88901809 0 17154
0.12750000 0.12750600 13410.91054359 0 20.21385764 0 5137.37048633 0 269.11396195 0 -411.24828841 0 18007
0.12850000 0.12850300 13370.82872775 0 206.77677322 0 5063.18591005 0 412.19165049 0 -352.79970016 0 17496
0.12950000 0.12949900 13235.30347197 0 197.12502768 0 5009.98338929 0 739.65233530 0 -417.41557334 0 18405
0.13050000 0.13049000 13139.08496929 0 374.22797038 0 4867.39399028 0 442.12457340 0 517.00116999 0 18100
0.13150000 0.13148800 12752.88227962 0 30.48155661 0 4260.94061531 0 658.64499246 0 462.00936155 0 19059
0.13250000 0.13249300 12678.91914983 0 -3.55949777 0 4269.20056962 0 334.02214450 0 576.54259670 0 18957
0.13350000 0.13349100 12803.37208079 0 8.69145389 0 4268.12655412 0 -51.80873651 0 277.61861464 0 19468
0.13450000 0.13450700 12738.48825736 0 197.01098273 0 4231.94219661 0 -375.61201099 0 114.91080143 0 19953
0.13550000 0.13551000 12537.19339215 0 259.26180733 0 4287.74671370 0 -489.47647772 0 -265.20210959 0 19956
0.13650000 0.13649900 12430.34545765 0 243.42063221 0 4228.29940174 0 -242.18606799 0 -461.63290250 0 19723
0.13750000 0.13749600 12236.35832683 0 81.46474058 0 4104.00148333 0 257.26657439 0 -713.06325448 0 20946
0.13850000 0.13851100 12211.66704249 0 129.32143218 0 3931.31750546 0 438.45409773 0 -734.57124544 0 20955
0.13950000 0.13949800 12133.16425952 0 -53.75181879 0 3587.71004936 0 684.89968907 0 -1093.35000101 0 20506
0.14050000 0.14048300 11907.73172621 0 120.91643041 0 3245.69700804 0 692.76436139 0 -803.97368464 0 21447
0.14150000 0.14148400 11775.52816788 0 150.96671997 0 2963.54095469 0 542.67789124 0 -957.69187733 0 21771
0.14250000 0.14249400 11813.61696525 0 188.28488354 0 2688.53762316 0 279.38243599 0 -1193.26444571 0 22470
0.14350000 0.14350900 11321.67357356 0 407.52134388 0 2797.97648167 0 -85.23553152 0 -702.33860066 0 22519
0.14450000 0.14449900 10919.82568892 0 641.87152760 0 2725.22023529 0 -102.60203010 0 -550.65217958 0 22218
0.14550000 0.14550500 10499.49809415 0 252.53647723 0 2814.67354750 0 375.30530759 0 -36.58451133 0 23559
0.14650000 0.14650700 10390.90073233 0 -20.68155264 0 2742.82523175 0 270.70505503 0 -162.41661107 0 23044
0.14750000 0.14750500 10440.68190472 0 57.64650904 0 2848.39984890 0 243.63764977 0 -169.26484397 0 23649
0.14850000 0.14849900 10432.57696295 0 202.41870617 0 2931.48657434 0 -322.31869717 0 -189.24485410 0 23640
0.14950000 0.14949500 10152.65751921 0 273.10774951 0 2898.13673198 0 -206.51546635 0 283.43822857 0 24457
0.15050000 0.15050000 10093.76382350 0 99.05633953 0 3408.65948472 0 -352.26712134 0 447.04511455 0 24591
0.15150000 0.15149900 9994.40078058 0 70.70819846 0 3135.75989491 0 257.48248473 0 258.36494902 0 25020
0.15250000 0.15250500 10072.15064545 0 64.04387688 0 3638.52094795 0 108.00576751 0 20.93178718 0 25297
0.15350000 0.15350100 9862.48510269 0 175.87280742 0 3362.04499723 0 140.91526350 0 -446.18700938 0 25452
0.15450000 0.15450400 9739.67087580 0 264.10041327 0 3464.26469996 0 -250.73390275 0 -32.80242661 0 26061
0.15550000 0.15549900 9485.19563449 0 181.98473072 0 3125.86123653 0 108.83563825 0 287.37111834 0 26128
0.15650000 0.15649500 9506.73130626 0 -93.35697105 0 3315.64088392 0 287.73096890 0 -157.66326202 0 26331
0.15750000 0.15749700 9482.92580790 0 -129.78757706 0 2855.43077516 0 539.54553055 0 -96.17310614 0 27345
0.15850000 0.15849900 9576.56445890 0 105.43377717 0 2737.63231141 0 309.83907987 0 -872.79261232 0 26980
0.15950000 0.15949700 9290.30057303 0 334.93671853 0 2483.24564870 0 -142.54068079 0 -584.32422658 0 27777
0.16050000 0.16050000 9221.26462779 0 228.61582669 0 2588.65418098 0 -56.74920784 0 -598.91422900 0 28224
0.16150000 0.16150500 8832.33814621 0 83.42321339 0 2565.29157561 0 -153.21661638 0 -435.42470966 0 28075
0.16250000 0.16249700 8990.81633134 0 89.90495234 0 2589.99393228 0 154.21644731 0 -571.64530743 0 28590
0.16350000 0.16349900 8826.38123546 0 116.71669761 0 2677.74210647 0 -30.19234749 0 -430.00591389 0 29163
0.16450000 0.16449100 8827.79849303 0 213.69365453 0 2531.01165797 0 368.88225196 0 -171.51916930 0 28996
0.16550000 0.16550500 8714.36252527 0 68.73643886 0 2568.15930774 0 115.51313590 0 0.66937629 0 30777
0.16650000 0.16650700 8686.28310953 0 132.52797745 0 2522.37524461 0 209.18943280 0 451.54933629 0 29211
0.16750000 0.16749900 8559.33890548 0 83.75936917 0 2642.68712609 0 68.87473219 0 -311.72137508 0 30922
0.16850000 0.16850800 8490.83443183 0 110.37602008 0 2413.43464072 0 20.40430162 0 9.12713879 0 30867
0.16950000 0.16949900 8411.93304517 0 89.09877637 0 2525.60836346 0 -157.21594010 0 -256.88568642 0 30852
0.17050000 0.17049200 8300.26864937 0 186.03498714 0 2594.88789985 0 -144.08305563 0 -214.74552539 0 31257
0.17150000 0.17149500 8259.74394054 0 22.15782570 0 2441.60263506 0 -159.66181665 0 -876.53505811 0 32608
0.17250000 0.17250900 8236.39240750 0 74.35542226 0 2606.48062393 0 -45.04055651 0 -791.44977804 0 32361
0.17350000 0.17350400 8160.72413969 0 114.80118542 0 2574.33766498 0 54.88551413 0 -668.64108731 0 32508
0.17450000 0.17449800 8229.76008493 0 -26.24927117 0 2353.64408670 0 278.35713871 0 -659.67804037 0 32791
0.17550000 0.17549800 8186.23477607 0 7.99933393 0 2385.47702055 0 258.33616097 0 -319.61483545 0 33633
0.17650000 0.17650100 8236.12667170 0 45.77631250 0 2348.72797448 0 234.26271235 0 -159.81682920 0 33984
0.17750000 0.17750300 8063.26553663 0 69.83005238 0 2305.95558371 0 239.48442073 0 89.43570721 0 34069
