### header ###
fiducial parameters:
Omega_m = 0.31
Omega_nu = 0
Omega_de = 0.69
Omega_k = 0
H_0 = 100
w_de = -1
zeff = 0
beta = 0
fgrowth = 0
b_1 = 2
gamma = 0.55
Lx = 3500 Ly = 3500 Lz = 3500
nx = 700 ny = 700 nz = 700
xoffset = -685.467585 yoffset = -31.7331281 zoffset = 572.489161
bins = 400 dk = 0.001
kx_ny = 0.628318531 ky_ny = 0.628318531 kz_ny = 0.628318531
############################
A(data) = 8.05985011 (not used)
A(ran) = 8.06485559 (used)
Ngal = 479801
weighted Ngal = 0
Nran = 23820508
weighted Nran = 0
SN(data) = 3482.3806
SN(ran) = 70.247817
SN(data+ran) = 3552.62842
############################
13 columns: k_central k_mean P_0(k) sigma^{lin}_{P_0(k)} P^img_1(k) sigma^{lin}_{P_1(k)} P_2(k) sigma^{lin}_{P_2(k)} P^img_3(k) sigma^{lin}_{P_3(k)} P_4(k) sigma^{lin}_{P_4(k)} N_modes
### header ###
0.00050000 0 0 0 0 0 0 0 0 0 0 0 0
0.00150000 0.00179520 15094.12536252 0 -34739.86201150 0 -29826.96076621 0 65180.00812617 0 -8722.02457404 0 3
0.00250000 0.00253879 20288.37438145 0 -26653.07885695 0 1025.01050499 0 -19872.94075425 0 13155.36128678 0 6
0.00350000 0.00331552 42614.72086901 0 -26204.09608555 0 -17023.92085517 0 -16115.32588055 0 -46796.51650652 0 7
0.00450000 0.00420575 52439.41612709 0 -17232.74490124 0 -14212.98975346 0 -1974.66055281 0 16703.59849816 0 24
0.00550000 0.00557378 59497.46958274 0 7041.01314775 0 -27695.87040837 0 -23088.89749783 0 2745.94762735 0 45
0.00650000 0.00659388 56287.82406431 0 -1078.64373918 0 -19482.19841140 0 -11888.68732753 0 -2978.66575039 0 40
0.00750000 0.00754703 55127.55514657 0 1226.71393898 0 -29038.94340887 0 -7500.13816868 0 -3431.10308713 0 57
0.00850000 0.00846663 61711.49165348 0 -5944.36580841 0 -2125.83100356 0 -51354.99263436 0 -23402.13356695 0 75
0.00950000 0.00948925 64749.73758371 0 701.17932826 0 -1602.71901750 0 -13739.75859071 0 -17427.06420181 0 112
0.01050000 0.01054430 64709.21287488 0 4450.56525015 0 13914.81204609 0 -28508.02543382 0 -11027.22723966 0 105
0.01150000 0.01145670 58765.25674248 0 7512.11842413 0 19799.97413370 0 -13507.46121601 0 -13907.83648145 0 144
0.01250000 0.01249090 62101.34821034 0 3618.48004003 0 34886.01669910 0 8328.29270349 0 -8125.55843606 0 169
0.01350000 0.01339930 49520.64058165 0 -1001.62907667 0 25468.34010135 0 16684.66482272 0 2200.19273704 0 180
0.01450000 0.01448870 61923.08378076 0 -6718.90814645 0 31288.50764228 0 24492.09322209 0 -5291.16507806 0 267
0.01550000 0.01550050 74843.49033489 0 -13123.58371455 0 30041.09952821 0 20880.52231275 0 15267.85013893 0 238
0.01650000 0.01653350 80642.17756566 0 -4434.87576589 0 23734.41403475 0 9692.48062742 0 8188.22779453 0 315
0.01750000 0.01747870 84114.01573580 0 3242.98428846 0 25015.48201627 0 -2850.59216921 0 26636.69181622 0 297
0.01850000 0.01844180 83031.47453828 0 1773.36568760 0 19727.22895964 0 5359.31523732 0 26033.91445309 0 388
0.01950000 0.01947590 81293.11954175 0 3547.66145049 0 20296.34645532 0 4695.07539912 0 7668.20498710 0 399
0.02050000 0.02045430 79491.54157051 0 3184.64420899 0 31177.23077785 0 580.74343674 0 3369.54096114 0 462
0.02150000 0.02154770 72028.46247300 0 11236.08450271 0 27010.49350209 0 -12101.05451755 0 -9473.30395764 0 571
0.02250000 0.02255340 65518.26764938 0 6576.19695186 0 26816.61709452 0 -3266.14759198 0 -8581.52784442 0 510
0.02350000 0.02348930 63398.02816985 0 1152.79509849 0 34052.49208675 0 -5098.62842179 0 -18245.64117565 0 555
0.02450000 0.02439640 59567.77884534 0 -555.20401231 0 30952.01969104 0 3111.99868585 0 -17275.92696804 0 592
0.02550000 0.02547300 63544.95792020 0 -2598.19852497 0 28163.34396221 0 6029.67807114 0 -26666.36564673 0 837
0.02650000 0.02652900 66373.38329512 0 -4249.76863957 0 26098.79827653 0 4080.76067354 0 -17675.63789399 0 723
0.02750000 0.02749970 68107.53080822 0 -52.31629188 0 19054.80667340 0 6423.37672472 0 -24892.13631779 0 826
0.02850000 0.02848090 67466.88609421 0 1961.25196745 0 19005.75627445 0 4335.10304695 0 -17103.86304036 0 831
0.02950000 0.02946900 63724.10813576 0 2178.36918482 0 17973.70487811 0 3330.75460730 0 -11000.34363500 0 996
0.03050000 0.03053250 62398.75085497 0 1690.83257841 0 20652.76459123 0 7390.53322530 0 -11195.00617764 0 1041
0.03150000 0.03150510 59670.41929641 0 3055.29731046 0 16370.65369086 0 -764.16535522 0 -10005.98243234 0 1036
0.03250000 0.03246190 55799.86670955 0 6362.75574633 0 12363.02572276 0 -1375.06094690 0 -8539.34228686 0 1059
0.03350000 0.03345080 53490.51192213 0 4896.22632410 0 13335.39728833 0 1425.09678276 0 -3982.15054870 0 1302
0.03450000 0.03451200 47432.28939761 0 1606.45039096 0 14815.10277709 0 -1131.40336694 0 -2653.27226862 0 1339
0.03550000 0.03553350 48764.51151979 0 1031.57971531 0 14090.52984096 0 -2198.33258647 0 -8375.79297696 0 1365
0.03650000 0.03647120 47167.32866470 0 -868.11123338 0 14311.64416759 0 -5124.60409581 0 -8591.80296185 0 1308
0.03750000 0.03744890 48983.96499769 0 -827.44147709 0 18683.21945249 0 -2929.15031380 0 -8019.52985360 0 1579
0.03850000 0.03847530 49889.01682837 0 1465.26717720 0 25738.72627343 0 -4918.42633537 0 -8867.74744098 0 1662
0.03950000 0.03950240 50632.41271669 0 486.24335888 0 27987.29399760 0 -3028.62407997 0 -8293.44809729 0 1683
0.04050000 0.04050350 48428.79863128 0 2261.20124679 0 28515.22244495 0 4435.16364633 0 -3652.37242630 0 1822
0.04150000 0.04152450 48367.12578204 0 3051.35556282 0 28246.05422861 0 9548.45182618 0 -2207.47832677 0 1887
0.04250000 0.04250150 44426.15320934 0 670.40158696 0 21919.88144347 0 8199.98660349 0 -1451.30497560 0 1920
0.04350000 0.04349210 42303.58854161 0 2864.91975753 0 17635.00246191 0 8980.18689951 0 1578.68100032 0 2005
0.04450000 0.04448520 40188.33160826 0 3097.59359126 0 16986.60712053 0 4998.58996705 0 1515.61303815 0 2151
0.04550000 0.04548030 36598.13028581 0 1020.07114089 0 11778.07480259 0 1509.65612740 0 5454.81403888 0 2274
0.04650000 0.04648670 36942.59031092 0 1090.83769051 0 14137.69794469 0 273.33694664 0 2407.71024879 0 2311
0.04750000 0.04749250 36130.54600872 0 -648.18053828 0 14116.32835779 0 -374.03974086 0 4076.65284103 0 2568
0.04850000 0.04851840 37486.79507575 0 -380.32439243 0 16877.43399781 0 -1665.33301435 0 -439.28673655 0 2493
0.04950000 0.04949480 37727.39669406 0 950.10844206 0 16410.40333696 0 -2540.73315916 0 2201.53248834 0 2644
0.05050000 0.05050630 37864.02918232 0 -114.22874622 0 19196.31098458 0 -424.96357717 0 607.55728575 0 2829
0.05150000 0.05149060 37575.04150456 0 -125.52583924 0 15444.12155004 0 1744.84337887 0 -210.72959318 0 2784
0.05250000 0.05249300 37882.51996477 0 -382.84334632 0 14589.55952054 0 4500.59001368 0 -3192.32840241 0 3055
0.05350000 0.05348950 38687.81014883 0 -306.28154190 0 12161.39868781 0 1559.83590348 0 -5313.29865537 0 3009
0.05450000 0.05448610 37826.71544769 0 1119.86600448 0 11803.31970317 0 -1011.67278252 0 -5627.13263003 0 3336
0.05550000 0.05550870 35114.32803686 0 3348.04957866 0 10894.06038907 0 -1486.65890875 0 -4113.06971736 0 3349
0.05650000 0.05647670 34604.66892546 0 765.77748571 0 13022.05049596 0 59.36604109 0 -1533.62771063 0 3324
0.05750000 0.05747970 34552.07538257 0 -85.99974338 0 14245.43166517 0 -183.84598852 0 -126.71500692 0 3639
0.05850000 0.05849280 34936.39577703 0 -402.79346118 0 15840.73222504 0 1780.60698804 0 1263.64014225 0 3846
0.05950000 0.05951020 35822.40320901 0 -1310.17712347 0 14883.64046772 0 3006.99982960 0 -851.09196290 0 3787
0.06050000 0.06049470 35960.58582275 0 -485.92447592 0 12640.71962921 0 2084.59766593 0 2454.61261672 0 3930
0.06150000 0.06148310 36296.85232749 0 1472.63027320 0 14237.34886806 0 1148.35509624 0 -1340.53743812 0 4083
0.06250000 0.06249100 34853.13189439 0 1091.72458372 0 13182.26703609 0 1461.96762440 0 -520.70486264 0 4303
0.06350000 0.06350600 33869.68800400 0 1118.14979414 0 11821.36759263 0 -535.88169827 0 -659.02588044 0 4470
0.06450000 0.06451750 32101.43773046 0 1473.56034849 0 10425.25815624 0 1011.29410901 0 -1922.60955383 0 4479
0.06550000 0.06550280 31446.28827094 0 1025.19430559 0 11384.12148554 0 -1020.29923078 0 -1602.74116215 0 4636
0.06650000 0.06648880 30849.04707022 0 453.98967668 0 10871.48391876 0 717.71141644 0 -1648.84632269 0 4653
0.06750000 0.06749660 31014.02471002 0 305.36696787 0 12988.16918202 0 -25.24800084 0 -2268.07716050 0 5220
0.06850000 0.06852730 29720.77717120 0 1080.66333123 0 12353.06063042 0 184.87682196 0 -1656.35335892 0 5029
0.06950000 0.06949320 29875.34682567 0 796.07690258 0 14220.18676459 0 26.89500915 0 -246.83755165 0 5040
0.07050000 0.07048030 29764.18068449 0 -187.74455409 0 12614.81038913 0 427.56003734 0 -367.92671033 0 5475
0.07150000 0.07148790 28877.50891302 0 -491.16057833 0 12240.45508701 0 2413.34606212 0 998.39595783 0 5509
0.07250000 0.07249820 30163.55944070 0 -320.46740446 0 14103.59518425 0 1376.55571075 0 35.56596817 0 5916
0.07350000 0.07351270 29545.17009958 0 584.34415677 0 10929.28145431 0 2930.85545182 0 2190.32729562 0 5721
0.07450000 0.07449140 29255.73952882 0 568.21620844 0 9336.74897565 0 2862.14060400 0 1829.12591539 0 6028
0.07550000 0.07549160 28343.82285676 0 377.70135868 0 8424.35619362 0 1943.00477615 0 3079.58999111 0 6183
0.07650000 0.07648840 28836.65203443 0 133.16795783 0 9013.90212859 0 1494.81921214 0 2105.38041962 0 6330
0.07750000 0.07749960 27327.49416165 0 1443.33290173 0 9240.38653275 0 -1309.08096331 0 3507.94502137 0 6583
0.07850000 0.07848650 26911.72836471 0 1877.42339625 0 9226.76757322 0 -1232.72621136 0 3898.32197750 0 6549
0.07950000 0.07947320 25564.89077377 0 864.78067808 0 10370.31728049 0 -1615.30825082 0 3028.22547628 0 6828
0.08050000 0.08048110 25016.14635576 0 972.92296735 0 12034.62056863 0 -804.49186944 0 2076.83596623 0 7147
0.08150000 0.08149960 24475.92762786 0 770.12669490 0 12462.78736937 0 -488.98375927 0 1503.48884247 0 7386
0.08250000 0.08250610 23486.28323557 0 638.19440852 0 12301.35287352 0 919.14800740 0 1004.54331257 0 7227
0.08350000 0.08350160 23603.53915540 0 320.34560889 0 11443.13697682 0 1021.40092710 0 355.42162668 0 7798
0.08450000 0.08449610 22528.19496901 0 387.42507433 0 10694.57031281 0 1244.99434726 0 -247.83073918 0 7371
0.08550000 0.08548940 22531.51666646 0 369.04058621 0 10338.14110457 0 1332.89753399 0 -9.22972388 0 8256
0.08650000 0.08650700 21981.33284622 0 -197.47269868 0 9406.91429802 0 945.46803073 0 -458.37874624 0 8037
0.08750000 0.08749060 22103.68203546 0 314.60903740 0 9056.90703818 0 1262.90936881 0 -92.19481983 0 8155
0.08850000 0.08849210 21479.20291569 0 589.08975519 0 8986.17702724 0 151.62109437 0 440.28213855 0 8718
0.08950000 0.08949900 20931.23356042 0 1049.90884181 0 8976.57732162 0 609.75957116 0 1134.94651089 0 8571
0.09050000 0.09049190 20418.69564456 0 -54.24509086 0 8972.82380351 0 710.60298391 0 1530.99249732 0 8932
0.09150000 0.09150830 20636.82044349 0 -210.77056078 0 9184.89204076 0 383.71916722 0 1131.28157137 0 9285
0.09250000 0.09250820 20700.92920419 0 421.47136592 0 8464.38264784 0 669.83136223 0 1543.83639411 0 9204
0.09350000 0.09350330 19996.61862248 0 779.62010620 0 8017.06072516 0 822.67041233 0 1292.01851076 0 9349
0.09450000 0.09448040 19584.17452298 0 472.80819994 0 6613.83178392 0 873.85444827 0 1169.90184034 0 9564
0.09550000 0.09549270 19037.75529318 0 368.21680524 0 6692.35671154 0 497.60799307 0 -81.40727521 0 10155
0.09650000 0.09649430 18513.70215951 0 717.94725696 0 6096.72099792 0 218.81571200 0 -695.02090119 0 9913
0.09750000 0.09749140 18161.82367678 0 230.72289011 0 5779.01170957 0 -246.56849415 0 -871.21148433 0 10476
0.09850000 0.09850240 17771.96711991 0 355.11160158 0 6752.10297626 0 -489.01586901 0 288.25690433 0 10575
0.09950000 0.09950330 17938.82705493 0 56.91761790 0 6280.77625338 0 467.10484543 0 -134.14896581 0 10882
0.10050000 0.10051200 17854.12377007 0 297.87875460 0 7460.82034325 0 275.13619942 0 509.24943538 0 10875
0.10150000 0.10150300 17320.32699056 0 753.97992362 0 7121.32071966 0 633.67911446 0 912.77920617 0 11118
0.10250000 0.10250800 16988.15724600 0 167.32275819 0 7465.09426063 0 803.29273666 0 1799.65138672 0 11575
0.10350000 0.10349800 16681.01095553 0 165.19022843 0 6426.07837197 0 916.71984657 0 2245.19066510 0 11364
0.10450000 0.10450100 16902.78962165 0 -132.05297472 0 6430.34121703 0 1046.43766798 0 2267.42389334 0 12093
0.10550000 0.10551000 16629.85681487 0 -30.06800528 0 5645.23588111 0 1200.00749152 0 2001.99812278 0 12067
0.10650000 0.10649700 16673.26032816 0 257.59763691 0 5599.72862611 0 -84.58780051 0 1487.75506891 0 12054
0.10750000 0.10749900 16118.64757799 0 636.11059699 0 5019.48344399 0 -381.60324594 0 1055.23130835 0 12807
0.10850000 0.10850100 15646.41292448 0 683.06168315 0 5463.27329504 0 -834.58755553 0 1557.58822154 0 12736
0.10950000 0.10950300 15100.43658767 0 483.27043966 0 5786.46338417 0 -567.90286165 0 885.46267361 0 12933
0.11050000 0.11050200 14987.83104426 0 209.83384210 0 5616.43676426 0 -12.91121652 0 418.70439195 0 13428
0.11150000 0.11150900 14723.86682059 0 74.60875705 0 5848.32446294 0 100.40505941 0 492.36856897 0 13453
0.11250000 0.11250000 14917.85395141 0 124.11743952 0 5924.66814256 0 -28.43229073 0 622.98878485 0 13668
0.11350000 0.11349100 14811.00601691 0 -125.21692137 0 5928.82026437 0 690.46021060 0 425.03554728 0 13791
0.11450000 0.11448600 14707.14761011 0 69.00682503 0 5623.66699236 0 583.22695919 0 216.24693264 0 14205
0.11550000 0.11549300 14480.71856757 0 417.35910448 0 5248.02730057 0 240.62376296 0 180.47225115 0 14776
0.11650000 0.11649800 14319.06262522 0 302.08402356 0 5312.34643544 0 482.38133198 0 6.24848935 0 14553
0.11750000 0.11747300 14012.91284398 0 337.83434594 0 4824.85411832 0 142.12879030 0 1038.65603810 0 14568
0.11850000 0.11849100 14053.99116906 0 -58.01189576 0 4848.53782111 0 219.08587672 0 702.49361321 0 16015
0.11950000 0.11950300 13924.55569193 0 -47.81550256 0 4817.19206955 0 180.81660045 0 972.30180993 0 15270
0.12050000 0.12050700 13893.44245919 0 112.37856075 0 4894.06722077 0 355.47809554 0 126.45259282 0 15999
0.12150000 0.12150000 13782.71921100 0 394.08507771 0 4710.29984575 0 278.03936299 0 600.86295817 0 15670
0.12250000 0.12250700 13454.31405688 0 310.42148415 0 4816.62738098 0 -242.09306046 0 27.73296270 0 16887
0.12350000 0.12352200 13499.04624915 0 228.67118832 0 4842.55876571 0 -222.04218745 0 577.89342033 0 16407
0.12450000 0.12449800 13109.85403177 0 152.51020205 0 5536.57208534 0 1.75849556 0 515.53297972 0 16306
0.12550000 0.12549900 13200.42564879 0 111.75961779 0 5137.06046124 0 200.65931376 0 744.49979911 0 17523
0.12650000 0.12650100 13125.35528652 0 -1.76350025 0 4999.47575304 0 602.53155752 0 876.83954704 0 17154
0.12750000 0.12750600 12937.56865760 0 253.18531547 0 4603.15295848 0 686.16304134 0 540.54646872 0 18007
0.12850000 0.12850300 12932.36466493 0 187.51978590 0 4505.07430524 0 478.63999342 0 206.47560599 0 17496
0.12950000 0.12949900 12632.19393910 0 113.43928946 0 3883.24147110 0 83.33773504 0 431.81291730 0 18405
0.13050000 0.13049000 12485.70708175 0 37.68244306 0 3956.89457579 0 -186.72590021 0 39.98781181 0 18100
0.13150000 0.13148800 12406.31851280 0 -1.98267692 0 3792.62556478 0 217.02974600 0 29.44441194 0 19059
0.13250000 0.13249300 12622.89318625 0 83.87463207 0 4248.67247941 0 -69.42524818 0 -46.12630869 0 18957
0.13350000 0.13349100 12407.31502203 0 125.14605850 0 4002.12502267 0 -225.62740622 0 -27.20237689 0 19468
0.13450000 0.13450700 12328.92296231 0 282.37749985 0 4435.82798582 0 64.54102426 0 -25.49125981 0 19953
0.13550000 0.13551000 12208.89896128 0 189.23488901 0 4435.87227512 0 -175.10549531 0 140.45354756 0 19956
0.13650000 0.13649900 12004.61456838 0 231.98513514 0 4601.14886769 0 20.03260368 0 -14.78410027 0 19723
0.13750000 0.13749600 11874.95764475 0 278.76460026 0 4447.62001175 0 177.44286308 0 288.91681489 0 20946
0.13850000 0.13851100 11574.78691892 0 25.96836629 0 4233.73591323 0 291.92959447 0 -129.11216525 0 20955
0.13950000 0.13949800 11557.84626194 0 81.94428296 0 4107.17924055 0 715.66303635 0 132.64534409 0 20506
0.14050000 0.14048300 11488.53350858 0 196.72974568 0 3896.47289925 0 351.86519595 0 -296.77705828 0 21447
0.14150000 0.14148400 11208.73586041 0 326.36784635 0 3734.31870229 0 175.17635819 0 -39.47892776 0 21771
0.14250000 0.14249400 10991.40826887 0 250.81030179 0 3500.80337186 0 161.69137379 0 353.61019434 0 22470
0.14350000 0.14350900 10782.73923534 0 262.79941511 0 3826.55116802 0 128.01268339 0 509.12874704 0 22519
0.14450000 0.14449900 10586.79230302 0 195.09214884 0 3549.38873316 0 437.67239159 0 996.51476984 0 22218
0.14550000 0.14550500 10507.38158942 0 113.15583795 0 3337.73017193 0 347.02548277 0 1065.34919877 0 23559
0.14650000 0.14650700 10450.64699705 0 -123.55053649 0 3443.34907838 0 328.05194696 0 1146.84926007 0 23044
0.14750000 0.14750500 10506.67296064 0 -46.26692721 0 3241.27915044 0 270.97079082 0 765.96460800 0 23649
0.14850000 0.14849900 10415.86882480 0 202.38438197 0 3003.81100005 0 155.89279728 0 918.41612673 0 23640
0.14950000 0.14949500 10437.09447148 0 11.51311407 0 2944.34154345 0 -170.28571232 0 621.97566713 0 24457
0.15050000 0.15050000 10397.99809254 0 135.96593431 0 3097.37214477 0 -213.64050738 0 555.04789253 0 24591
0.15150000 0.15149900 10323.23775537 0 305.34814492 0 3291.48107116 0 -59.96726832 0 341.53360966 0 25020
0.15250000 0.15250500 10005.86063676 0 337.02385176 0 3289.04515970 0 -259.81210187 0 286.97140742 0 25297
0.15350000 0.15350100 9720.79256198 0 319.05457581 0 3406.58895998 0 -83.97638674 0 375.45589121 0 25452
0.15450000 0.15450400 9584.24865232 0 204.46376457 0 3452.68304820 0 212.75915032 0 -210.59008189 0 26061
0.15550000 0.15549900 9450.06314784 0 -27.47542042 0 3429.29829818 0 142.10553842 0 -95.19829867 0 26128
0.15650000 0.15649500 9335.17670552 0 103.59566053 0 3156.32120210 0 293.38117625 0 -573.48995675 0 26331
0.15750000 0.15749700 9252.04569079 0 173.92961441 0 3122.28487561 0 69.20036927 0 -541.80096312 0 27345
0.15850000 0.15849900 9112.54547040 0 120.12254473 0 2763.56369614 0 234.01579951 0 -278.39589185 0 26980
0.15950000 0.15949700 8996.66251884 0 77.40296894 0 2674.09931160 0 276.80812047 0 -291.26636221 0 27777
0.16050000 0.16050000 8919.73200600 0 15.11173036 0 2468.41980577 0 464.62907360 0 5.81012494 0 28224
0.16150000 0.16150500 8862.54344832 0 44.85919183 0 2375.39013264 0 560.75235428 0 192.81567886 0 28075
0.16250000 0.16249700 8847.15291682 0 239.94281498 0 2292.75737252 0 255.75741652 0 718.44108265 0 28590
0.16350000 0.16349900 8635.04039027 0 158.92218535 0 2234.09619563 0 158.79153192 0 840.63525935 0 29163
0.16450000 0.16449100 8653.84119781 0 23.75467639 0 2310.59488780 0 41.87453595 0 958.71828184 0 28996
0.16550000 0.16550500 8631.46402935 0 128.82207034 0 2411.74057502 0 -194.24954492 0 1018.29956892 0 30777
0.16650000 0.16650700 8532.74318127 0 61.27778869 0 2566.83062876 0 -69.94752975 0 1134.78042601 0 29211
0.16750000 0.16749900 8466.36459398 0 71.38781776 0 2478.08594534 0 -11.76633814 0 937.19589686 0 30922
0.16850000 0.16850800 8491.90844734 0 116.35352536 0 2504.88097140 0 -103.36712775 0 872.47151490 0 30867
0.16950000 0.16949900 8299.63752686 0 195.89267792 0 2396.37218817 0 273.11550014 0 590.80485830 0 30852
0.17050000 0.17049200 8163.71366739 0 143.46743437 0 2408.67354105 0 156.68003958 0 950.75617306 0 31257
0.17150000 0.17149500 8127.58467150 0 62.26078969 0 2270.93382030 0 112.22022650 0 1119.09094175 0 32608
0.17250000 0.17250900 8022.25364550 0 22.07190446 0 2227.61888561 0 457.07442637 0 1024.83002610 0 32361
0.17350000 0.17350400 8096.93647641 0 61.73485426 0 2207.09079540 0 179.67172206 0 1086.80625704 0 32508
0.17450000 0.17449800 7969.99227236 0 93.14825773 0 2159.01476104 0 56.04655811 0 855.89403018 0 32791
0.17550000 0.17549800 8013.04147125 0 113.59983817 0 2271.17741145 0 -258.71483448 0 997.25772284 0 33633
0.17650000 0.17650100 7912.40511098 0 67.64847222 0 2400.04820001 0 -398.56715480 0 601.86168186 0 33984
0.17750000 0.17750300 7966.08374170 0 19.13264512 0 2542.88119018 0 -323.42703688 0 592.02835019 0 34069
