### header ###
fiducial parameters:
Omega_m = 0.31
Omega_nu = 0
Omega_de = 0.69
Omega_k = 0
H_0 = 100
w_de = -1
zeff = 0
beta = 0
fgrowth = 0
b_1 = 2
gamma = 0.55
Lx = 3500 Ly = 3500 Lz = 3500
nx = 700 ny = 700 nz = 700
xoffset = -685.467585 yoffset = -31.7331281 zoffset = 572.489161
bins = 400 dk = 0.001
kx_ny = 0.628318531 ky_ny = 0.628318531 kz_ny = 0.628318531
############################
A(data) = 8.04043391 (not used)
A(ran) = 8.04267852 (used)
Ngal = 478281
weighted Ngal = 0
Nran = 23820508
weighted Nran = 0
SN(data) = 3479.37104
SN(ran) = 70.0546467
SN(data+ran) = 3549.42569
############################
13 columns: k_central k_mean P_0(k) sigma^{lin}_{P_0(k)} P^img_1(k) sigma^{lin}_{P_1(k)} P_2(k) sigma^{lin}_{P_2(k)} P^img_3(k) sigma^{lin}_{P_3(k)} P_4(k) sigma^{lin}_{P_4(k)} N_modes
### header ###
0.00050000 0 0 0 0 0 0 0 0 0 0 0 0
0.00150000 0.00179520 21944.57272782 0 -31780.78320371 0 -2317.64795871 0 -27540.08279817 0 -11134.44056088 0 3
0.00250000 0.00253879 56721.08413447 0 -49063.46428989 0 -15500.14751362 0 -70659.70167891 0 -7663.33316418 0 6
0.00350000 0.00331552 75051.53931823 0 -33070.37687534 0 -47778.07810169 0 30433.94561277 0 37059.18189126 0 7
0.00450000 0.00420575 87379.24432481 0 2152.02812408 0 -22644.34365636 0 -60058.50428130 0 -6751.19504562 0 24
0.00550000 0.00557378 74569.56101887 0 3912.53884257 0 -20735.03196463 0 -22460.76451086 0 10912.60653314 0 45
0.00650000 0.00659388 56592.75588982 0 -12165.38472474 0 169.94025578 0 -10170.81613191 0 15628.25431177 0 40
0.00750000 0.00754703 83205.64220767 0 -16563.09069621 0 -9975.68855163 0 10180.71479030 0 -10069.00610520 0 57
0.00850000 0.00846663 90443.51021838 0 -4121.70613072 0 2521.57803722 0 -10368.15817715 0 -8883.17118945 0 75
0.00950000 0.00948925 84102.16834824 0 10860.83234229 0 -16578.25978121 0 -12574.28568030 0 10641.11312858 0 112
0.01050000 0.01054430 77255.70701988 0 12908.89133632 0 -6490.95112308 0 -23953.31389642 0 4949.49527881 0 105
0.01150000 0.01145670 67964.80854130 0 5588.06946807 0 9014.32287693 0 -18644.46631562 0 4461.98081704 0 144
0.01250000 0.01249090 65116.01008871 0 3138.40618055 0 8610.00586385 0 -14884.96914670 0 -23006.63012442 0 169
0.01350000 0.01339930 57064.32620384 0 909.13530407 0 20326.35245557 0 -10576.06322027 0 -13798.33118900 0 180
0.01450000 0.01448870 61615.93749029 0 996.70299936 0 15928.64648410 0 -16786.64093430 0 -14685.66729996 0 267
0.01550000 0.01550050 66916.14865773 0 -4491.26711619 0 20032.38223164 0 -7016.23328481 0 -27903.80866846 0 238
0.01650000 0.01653350 75608.03436362 0 -6759.72073573 0 22528.74858525 0 -6727.95423583 0 -21532.79296781 0 315
0.01750000 0.01747870 77566.72862403 0 -6801.23088148 0 30140.52900508 0 1072.61042939 0 -37184.63133145 0 297
0.01850000 0.01844180 82874.13680260 0 3884.78052425 0 17770.08482469 0 -411.20842804 0 -31972.66659282 0 388
0.01950000 0.01947590 80762.75518294 0 5162.56002529 0 18186.18279138 0 -34.25467274 0 -24764.14024289 0 399
0.02050000 0.02045430 72478.22030713 0 3717.61056413 0 23956.63559386 0 3410.18746554 0 -32427.07480338 0 462
0.02150000 0.02154770 68125.57869767 0 6055.25514147 0 7846.98981595 0 7367.07096901 0 -18048.66451713 0 571
0.02250000 0.02255340 66332.52641654 0 -2777.65876563 0 8363.19267132 0 13685.83636884 0 -30805.42211044 0 510
0.02350000 0.02348930 65520.03922135 0 -4055.85901502 0 -489.87618865 0 8052.14892251 0 -23810.81307600 0 555
0.02450000 0.02439640 68119.04602603 0 2449.67435985 0 394.46264399 0 -3437.55825250 0 -25941.90343385 0 592
0.02550000 0.02547300 62148.73776057 0 5003.71645344 0 450.01581930 0 -10418.71441228 0 -13941.49634890 0 837
0.02650000 0.02652900 59769.40588029 0 2468.10978067 0 4435.19686331 0 -1929.97264984 0 -6273.78961642 0 723
0.02750000 0.02749970 61830.85131502 0 -217.79705811 0 12723.98351184 0 -7495.88639595 0 -12410.08310324 0 826
0.02850000 0.02848090 62518.66413276 0 2871.15347640 0 19021.14680595 0 -2869.39297675 0 -5012.92862769 0 831
0.02950000 0.02946900 59892.30868577 0 4883.17205314 0 25591.02146034 0 -3932.28079772 0 191.02639117 0 996
0.03050000 0.03053250 55914.02237843 0 3177.53577646 0 19828.09783874 0 3728.41715316 0 887.22538772 0 1041
0.03150000 0.03150510 52699.39431384 0 -9.22520638 0 20770.13123431 0 10479.04751021 0 -3673.74201320 0 1036
0.03250000 0.03246190 54466.09446190 0 657.53000936 0 20831.47191380 0 7593.00175693 0 -9575.28006922 0 1059
0.03350000 0.03345080 51495.50043630 0 2804.26556217 0 15828.66339099 0 1086.97234191 0 -2816.41190249 0 1302
0.03450000 0.03451200 48417.50485997 0 2296.54410761 0 14030.62856369 0 898.21134840 0 1275.24393866 0 1339
0.03550000 0.03553350 47904.63477437 0 1137.65923047 0 14998.01758310 0 5994.87775423 0 6360.55235370 0 1365
0.03650000 0.03647120 46360.82052491 0 -26.51489624 0 13963.97316828 0 4818.95256920 0 2881.63896800 0 1308
0.03750000 0.03744890 47013.42334972 0 2588.18914333 0 14025.86746402 0 1280.71366712 0 4136.41017807 0 1579
0.03850000 0.03847530 44573.74729918 0 2858.46459216 0 16897.69635223 0 -2486.82200962 0 7602.75647510 0 1662
0.03950000 0.03950240 42048.81434753 0 457.22168829 0 15589.16900516 0 -2239.52163479 0 9928.28792908 0 1683
0.04050000 0.04050350 44231.39101578 0 -517.24808283 0 19778.27237705 0 -2814.14207591 0 9513.35255651 0 1822
0.04150000 0.04152450 43924.35544856 0 -1084.85863510 0 17005.76224246 0 1950.96577770 0 2460.74668467 0 1887
0.04250000 0.04250150 47052.95154932 0 -911.81259221 0 21647.50225294 0 1152.67330292 0 746.48949588 0 1920
0.04350000 0.04349210 45537.70389789 0 1123.58630562 0 17572.66527318 0 -1941.21105953 0 -4165.27572888 0 2005
0.04450000 0.04448520 45088.49968000 0 1402.87462685 0 18767.36912111 0 -114.86319044 0 -2578.65587166 0 2151
0.04550000 0.04548030 44258.29676509 0 113.39610740 0 17334.38884308 0 457.40881058 0 -6454.19100469 0 2274
0.04650000 0.04648670 44632.87351371 0 742.54885548 0 17373.03125670 0 926.80784171 0 -4666.55309039 0 2311
0.04750000 0.04749250 43999.53653408 0 1930.50412143 0 16657.20545717 0 1565.18383636 0 -3477.69542996 0 2568
0.04850000 0.04851840 41303.09327100 0 2197.63503000 0 14967.45796660 0 4834.81921066 0 1838.94706750 0 2493
0.04950000 0.04949480 39730.04808401 0 1590.10763953 0 13908.72226744 0 3375.26535307 0 2307.28426268 0 2644
0.05050000 0.05050630 38401.25838253 0 847.01956184 0 12704.05332717 0 5382.58926409 0 118.20703253 0 2829
0.05150000 0.05149060 38480.42550498 0 1519.22261604 0 12884.42149847 0 -257.12595587 0 1282.36344352 0 2784
0.05250000 0.05249300 36321.10071885 0 1884.86399853 0 12864.15914405 0 -698.54300772 0 971.65740062 0 3055
0.05350000 0.05348950 34373.36806000 0 576.39312032 0 14435.54348231 0 -1653.00951683 0 4463.35378532 0 3009
0.05450000 0.05448610 34216.69466381 0 946.99379709 0 13417.44321524 0 1044.92297395 0 1332.37713473 0 3336
0.05550000 0.05550870 34406.25286471 0 -1009.43285121 0 12386.27760488 0 1787.26145525 0 3330.74353497 0 3349
0.05650000 0.05647670 34150.37143815 0 -764.60824821 0 11113.07097398 0 3409.40133048 0 -2426.83215375 0 3324
0.05750000 0.05747970 35330.23837083 0 -63.34023063 0 10525.60663608 0 544.49707421 0 -1346.77115699 0 3639
0.05850000 0.05849280 33887.84661670 0 1468.06847538 0 11080.73978551 0 -1714.33912400 0 -2764.31661422 0 3846
0.05950000 0.05951020 32821.02812042 0 1664.97869995 0 9554.05442254 0 -3197.31094858 0 -1662.15525713 0 3787
0.06050000 0.06049470 32118.04621769 0 1389.66534334 0 12685.34109823 0 -1640.17669236 0 -1669.19725571 0 3930
0.06150000 0.06148310 31184.64923548 0 547.61171918 0 13329.63967942 0 -990.87895651 0 -15.28744815 0 4083
0.06250000 0.06249100 31481.83043361 0 184.11061708 0 15022.48742095 0 930.90570913 0 -1892.70320450 0 4303
0.06350000 0.06350600 31305.78046899 0 -373.40418942 0 15229.31844856 0 1691.33083302 0 -1481.65421793 0 4470
0.06450000 0.06451750 31622.44895881 0 -48.55856628 0 16426.67965445 0 700.05105836 0 -667.54935608 0 4479
0.06550000 0.06550280 31575.50230157 0 786.40301238 0 16068.37922332 0 548.23952000 0 414.81357701 0 4636
0.06650000 0.06648880 31205.57592938 0 1297.43287760 0 17334.16739658 0 1142.88536778 0 3162.20060658 0 4653
0.06750000 0.06749660 30225.34301319 0 488.19873144 0 15592.26925611 0 1406.76101286 0 4736.06514560 0 5220
0.06850000 0.06852730 30651.40607221 0 -310.36169360 0 16479.49464383 0 905.14483820 0 2353.06832581 0 5029
0.06950000 0.06949320 30210.61682118 0 331.02818787 0 14986.72381178 0 1424.00062260 0 4195.34816308 0 5040
0.07050000 0.07048030 30014.85811839 0 327.81057028 0 14708.91918208 0 785.50061791 0 2869.10509631 0 5475
0.07150000 0.07148790 30321.22934612 0 -120.22330288 0 14224.17280152 0 1390.08609168 0 1980.53995729 0 5509
0.07250000 0.07249820 29775.36373256 0 167.65824964 0 13852.91775035 0 1258.41400494 0 2201.39962044 0 5916
0.07350000 0.07351270 29535.98006998 0 981.84836839 0 13212.27303635 0 1152.98332802 0 1927.82461882 0 5721
0.07450000 0.07449140 28882.82362893 0 843.54617354 0 13902.07887255 0 160.89859533 0 1078.96594384 0 6028
0.07550000 0.07549160 28005.67405679 0 763.18213277 0 12281.53341209 0 592.72258496 0 -232.60739979 0 6183
0.07650000 0.07648840 27019.12991545 0 1155.72926457 0 11921.23996249 0 551.56564638 0 1230.06885340 0 6330
0.07750000 0.07749960 26498.95209547 0 577.36748490 0 11393.42223839 0 2678.39537363 0 1266.71824855 0 6583
0.07850000 0.07848650 25539.97804293 0 45.06159393 0 9113.44232871 0 3287.20715378 0 927.70802172 0 6549
0.07950000 0.07947320 25243.12901454 0 444.55162700 0 7575.28603722 0 2594.44500686 0 318.56296459 0 6828
0.08050000 0.08048110 24195.13347046 0 832.56907072 0 5792.90747722 0 1932.05424690 0 2304.53832613 0 7147
0.08150000 0.08149960 23987.74882660 0 19.42329364 0 5535.91881818 0 1664.32543279 0 2090.26669624 0 7386
0.08250000 0.08250610 23746.81503855 0 -170.14509379 0 4541.40260297 0 465.40856526 0 2108.73533404 0 7227
0.08350000 0.08350160 23892.52683316 0 -21.73752025 0 5021.58718570 0 -624.25878051 0 902.48637302 0 7798
0.08450000 0.08449610 23253.54296788 0 856.55836967 0 5118.27072602 0 -1365.07370992 0 1136.91738470 0 7371
0.08550000 0.08548940 23105.28453856 0 1026.42997704 0 5991.23495937 0 -1522.15678212 0 2350.69884830 0 8256
0.08650000 0.08650700 22501.84283594 0 289.48482515 0 6822.22400933 0 -618.10810407 0 1333.44007791 0 8037
0.08750000 0.08749060 22179.74890697 0 324.29289268 0 7146.48811397 0 -513.21886383 0 1428.78386692 0 8155
0.08850000 0.08849210 21973.91438859 0 474.93519354 0 6921.31024414 0 -465.59015139 0 -35.77047401 0 8718
0.08950000 0.08949900 21544.86180187 0 893.42699685 0 8318.19474326 0 -222.48950937 0 -303.39720129 0 8571
0.09050000 0.09049190 21037.08498568 0 557.50705587 0 7695.21038734 0 -355.73054454 0 117.63791504 0 8932
0.09150000 0.09150830 20495.64830205 0 340.01005776 0 6661.56457622 0 504.83157778 0 -126.03959511 0 9285
0.09250000 0.09250820 20201.12446188 0 46.27334916 0 7181.85311944 0 1352.26303010 0 -447.61312482 0 9204
0.09350000 0.09350330 20202.56386410 0 -168.45988595 0 6641.04755833 0 1363.23570400 0 -1884.12215276 0 9349
0.09450000 0.09448040 19847.25296067 0 389.88866661 0 6063.91369948 0 1345.33175476 0 -729.70717315 0 9564
0.09550000 0.09549270 19519.06925305 0 732.29256100 0 6414.96175785 0 -476.78316455 0 -756.18663795 0 10155
0.09650000 0.09649430 18818.63398502 0 608.24044819 0 6357.72891087 0 -285.49103759 0 -7.52509519 0 9913
0.09750000 0.09749140 18840.66791141 0 587.22185399 0 6869.97894628 0 -1022.36975552 0 -290.97737454 0 10476
0.09850000 0.09850240 18035.26700410 0 437.80636672 0 7407.14171253 0 -428.57315506 0 286.50969147 0 10575
0.09950000 0.09950330 18054.20067954 0 585.17125943 0 7763.73700564 0 -22.69815515 0 33.50618358 0 10882
0.10050000 0.10051200 17322.76290202 0 578.17465738 0 7407.10849555 0 566.19772362 0 -71.11876027 0 10875
0.10150000 0.10150300 16990.92532721 0 455.25081448 0 7697.38056300 0 709.50239482 0 597.09504603 0 11118
0.10250000 0.10250800 16585.12462260 0 359.32683564 0 7264.71839839 0 836.13103761 0 -71.20955333 0 11575
0.10350000 0.10349800 16308.42722538 0 28.32710365 0 6978.52094647 0 923.02775002 0 882.99686687 0 11364
0.10450000 0.10450100 16243.43267870 0 44.27999852 0 6664.55410392 0 423.38909258 0 1165.37325949 0 12093
0.10550000 0.10551000 16265.68805158 0 7.38444345 0 7129.73568652 0 -52.31385596 0 1171.03121747 0 12067
0.10650000 0.10649700 16352.16290842 0 233.37692637 0 6961.34777068 0 134.76015814 0 1016.63761297 0 12054
0.10750000 0.10749900 16336.21876068 0 54.05686134 0 6778.87585767 0 151.27010167 0 1611.48829876 0 12807
0.10850000 0.10850100 15919.23500801 0 100.52563703 0 6105.26883268 0 232.24090584 0 707.98327186 0 12736
0.10950000 0.10950300 16249.74390385 0 102.98878641 0 6556.55464764 0 395.76807109 0 507.10583330 0 12933
0.11050000 0.11050200 15704.32118328 0 210.70855576 0 6108.69018105 0 453.17586080 0 -572.03505327 0 13428
0.11150000 0.11150900 15524.72807472 0 570.64769097 0 6104.83701201 0 -27.55580550 0 449.96488661 0 13453
0.11250000 0.11250000 15044.29990084 0 570.81599031 0 5742.25159117 0 -64.36685659 0 164.10956953 0 13668
0.11350000 0.11349100 14725.19549957 0 432.19491251 0 5889.66852381 0 426.14277976 0 732.85946403 0 13791
0.11450000 0.11448600 14387.48959260 0 148.78990091 0 5766.48891020 0 748.31421501 0 1262.26717398 0 14205
0.11550000 0.11549300 14493.34101786 0 -74.08359668 0 5587.50477951 0 484.57918846 0 402.91968569 0 14776
0.11650000 0.11649800 14353.49755540 0 100.63414581 0 5309.81087306 0 498.30112060 0 478.75293114 0 14553
0.11750000 0.11747300 14001.61907267 0 202.00238676 0 5605.18728224 0 64.62351308 0 -314.72418958 0 14568
0.11850000 0.11849100 13978.14574405 0 460.64082220 0 4959.54894974 0 -494.76794175 0 -677.60302702 0 16015
0.11950000 0.11950300 13631.02836099 0 144.95998376 0 5156.69169314 0 -285.58404512 0 -862.67029297 0 15270
0.12050000 0.12050700 13531.93105386 0 -59.18201905 0 4696.44836740 0 347.83154802 0 -991.30191932 0 15999
0.12150000 0.12150000 13624.93858234 0 -114.02722991 0 4567.17897514 0 591.81022539 0 -1049.12492122 0 15670
0.12250000 0.12250700 13601.57597697 0 171.74393749 0 4258.41612525 0 241.65348917 0 -1561.52996917 0 16887
0.12350000 0.12352200 13447.55993874 0 392.77632892 0 4292.18671595 0 448.16231213 0 -797.40779602 0 16407
0.12450000 0.12449800 13224.34187040 0 156.53277766 0 4404.05041359 0 5.35569459 0 -774.26774438 0 16306
0.12550000 0.12549900 13079.29441527 0 252.20652195 0 4704.81904496 0 -16.75331324 0 -612.27188166 0 17523
0.12650000 0.12650100 13094.46350028 0 30.18393252 0 4900.40059056 0 -636.99749021 0 -905.80807046 0 17154
0.12750000 0.12750600 13056.92831914 0 70.59537147 0 4790.45240511 0 -401.79030855 0 -721.25345315 0 18007
0.12850000 0.12850300 13112.51138973 0 196.29349608 0 4925.44618930 0 -295.75951163 0 -815.80999987 0 17496
0.12950000 0.12949900 12981.63651037 0 195.47635851 0 4772.38237101 0 79.93210938 0 -508.73014335 0 18405
0.13050000 0.13049000 12834.37459029 0 21.40247170 0 4707.86393429 0 797.87836983 0 -750.77116389 0 18100
0.13150000 0.13148800 12871.90977142 0 -65.77182389 0 4623.64783172 0 799.46946290 0 -1263.55156365 0 19059
0.13250000 0.13249300 12764.06532769 0 331.38139503 0 4291.87669085 0 420.90003396 0 -846.76600560 0 18957
0.13350000 0.13349100 12308.99277764 0 411.48412893 0 4330.55232144 0 441.34618897 0 -149.63029037 0 19468
0.13450000 0.13450700 12109.69093091 0 149.24829516 0 3819.60882036 0 189.29910849 0 374.11281820 0 19953
0.13550000 0.13551000 12025.31981579 0 51.50147949 0 4030.96842883 0 343.65949602 0 184.87128580 0 19956
0.13650000 0.13649900 11956.33923217 0 244.42932100 0 3866.21223553 0 164.99314105 0 122.93823693 0 19723
0.13750000 0.13749600 11676.09869101 0 221.45092530 0 3733.78723069 0 75.28582971 0 166.90754601 0 20946
0.13850000 0.13851100 11548.10261610 0 77.16757131 0 3375.84111396 0 330.64840713 0 58.01355661 0 20955
0.13950000 0.13949800 11561.83229888 0 -99.65358073 0 3033.71734939 0 165.47257272 0 -374.39073356 0 20506
0.14050000 0.14048300 11533.48714734 0 -0.91405917 0 3122.77205790 0 314.98217474 0 -420.05521557 0 21447
0.14150000 0.14148400 11643.98894903 0 207.13662378 0 2986.75961983 0 -217.28773117 0 -999.95383393 0 21771
0.14250000 0.14249400 11338.06061429 0 380.87911590 0 3037.42657820 0 -293.62919633 0 -553.69485444 0 22470
0.14350000 0.14350900 11009.68867715 0 247.26051446 0 3051.18947795 0 -108.96175203 0 -256.78271380 0 22519
0.14450000 0.14449900 10955.11318812 0 -38.18368720 0 3209.67873540 0 448.26528475 0 -651.71593159 0 22218
0.14550000 0.14550500 10981.49853816 0 -153.60968391 0 3167.05028485 0 449.00934498 0 -673.72660610 0 23559
0.14650000 0.14650700 11184.04457607 0 136.80410930 0 2813.65489362 0 439.97875685 0 -465.02546283 0 23044
0.14750000 0.14750500 10802.74692629 0 388.05287515 0 2935.21794780 0 257.92869942 0 150.74970241 0 23649
0.14850000 0.14849900 10459.23912111 0 324.80443409 0 2856.72623716 0 59.69101382 0 544.65651569 0 23640
0.14950000 0.14949500 10378.98691083 0 180.86088975 0 3133.55650228 0 237.56005068 0 549.77192976 0 24457
0.15050000 0.15050000 10192.80576900 0 216.55474327 0 3232.02268689 0 -28.54611423 0 918.91770305 0 24591
0.15150000 0.15149900 9993.11639090 0 173.73584873 0 3454.98609176 0 71.64790667 0 947.27835584 0 25020
0.15250000 0.15250500 10000.61235480 0 137.22264317 0 3621.03774707 0 -282.04090118 0 1197.66015866 0 25297
0.15350000 0.15350100 9916.03086551 0 47.43616471 0 3508.77544573 0 -88.48703042 0 1010.94865247 0 25452
0.15450000 0.15450400 9837.48379325 0 90.32503634 0 3907.84417684 0 -133.57652661 0 916.27584634 0 26061
0.15550000 0.15549900 9788.10122456 0 220.40237614 0 3506.63848704 0 122.15985249 0 685.98034798 0 26128
0.15650000 0.15649500 9661.41168398 0 108.63434339 0 3484.19488463 0 52.82163278 0 694.52486104 0 26331
0.15750000 0.15749700 9448.26943122 0 229.06425585 0 3444.30129831 0 136.68674265 0 686.34905639 0 27345
0.15850000 0.15849900 9439.14583557 0 65.36934488 0 3277.00954263 0 327.67327345 0 499.96861272 0 26980
0.15950000 0.15949700 9228.63879612 0 45.39896767 0 3077.17622430 0 471.51938133 0 934.95153662 0 27777
0.16050000 0.16050000 9304.35135323 0 35.12761483 0 3099.28765696 0 268.89583715 0 787.53238952 0 28224
0.16150000 0.16150500 9077.11403098 0 240.12883004 0 3057.32354590 0 285.25851877 0 812.43515527 0 28075
0.16250000 0.16249700 9081.93049227 0 211.45925939 0 2963.37486981 0 75.17599225 0 1162.37265946 0 28590
0.16350000 0.16349900 8817.22442283 0 84.19019333 0 2963.30843586 0 -52.62775637 0 1054.26801609 0 29163
0.16450000 0.16449100 8756.35985330 0 268.97334342 0 2983.29398216 0 -60.00679652 0 1017.85667593 0 28996
0.16550000 0.16550500 8599.53144457 0 36.64297320 0 2862.89352208 0 215.95019433 0 973.40018455 0 30777
0.16650000 0.16650700 8680.35941575 0 -98.33918505 0 2834.26049010 0 199.79788689 0 924.82368110 0 29211
0.16750000 0.16749900 8613.44935687 0 0.66608006 0 2664.76534178 0 161.59947350 0 715.06955974 0 30922
0.16850000 0.16850800 8653.89655943 0 93.04871752 0 2555.04967515 0 243.40180926 0 621.04227015 0 30867
0.16950000 0.16949900 8567.42170260 0 169.34677917 0 2628.51455032 0 -289.35970788 0 798.89591648 0 30852
0.17050000 0.17049200 8535.65520269 0 175.45759524 0 2732.48368037 0 3.72603660 0 990.21793872 0 31257
0.17150000 0.17149500 8481.17936459 0 3.27097513 0 2933.21385701 0 172.77477094 0 1018.14898530 0 32608
0.17250000 0.17250900 8373.94389872 0 32.29177099 0 2780.90295680 0 38.62381211 0 1125.85613221 0 32361
0.17350000 0.17350400 8474.43631877 0 -34.28390368 0 2839.96273738 0 232.87645728 0 1029.29549470 0 32508
0.17450000 0.17449800 8466.53067885 0 -22.56894112 0 2663.89062812 0 302.65314106 0 1235.18426747 0 32791
0.17550000 0.17549800 8443.20129046 0 106.96574404 0 2591.01258616 0 332.39672722 0 1148.47689181 0 33633
0.17650000 0.17650100 8436.54682324 0 134.58078647 0 2380.92629505 0 -134.22979378 0 1162.83769710 0 33984
0.17750000 0.17750300 8187.20914065 0 243.81923590 0 2592.79523046 0 63.05545044 0 1229.79204528 0 34069
0.17850000 0.17849800 8019.50770895 0 290.81128966 0 2650.18308999 0 -74.09832287 0 1087.16832206 0 34536
