### header ###
fiducial parameters:
Omega_m = 0.31
Omega_nu = 0
Omega_de = 0.69
Omega_k = 0
H_0 = 100
w_de = -1
zeff = 0
beta = 0
fgrowth = 0
b_1 = 2
gamma = 0.55
Lx = 3500 Ly = 3500 Lz = 3500
nx = 700 ny = 700 nz = 700
xoffset = -685.467585 yoffset = -31.7331281 zoffset = 572.489161
bins = 400 dk = 0.001
kx_ny = 0.628318531 ky_ny = 0.628318531 kz_ny = 0.628318531
############################
A(data) = 8.04134151 (not used)
A(ran) = 8.03997839 (used)
Ngal = 477737
weighted Ngal = 0
Nran = 23820508
weighted Nran = 0
SN(data) = 3485.24621
SN(ran) = 70.0311276
SN(data+ran) = 3555.27734
############################
13 columns: k_central k_mean P_0(k) sigma^{lin}_{P_0(k)} P^img_1(k) sigma^{lin}_{P_1(k)} P_2(k) sigma^{lin}_{P_2(k)} P^img_3(k) sigma^{lin}_{P_3(k)} P_4(k) sigma^{lin}_{P_4(k)} N_modes
### header ###
0.00050000 0 0 0 0 0 0 0 0 0 0 0 0
0.00150000 0.00179520 21026.89844685 0 -25715.36366806 0 5768.83624306 0 -29160.51753538 0 -1848.61320707 0 3
0.00250000 0.00253879 33742.57771508 0 -24554.54113407 0 -24201.33397236 0 11722.04883900 0 28455.65333742 0 6
0.00350000 0.00331552 40274.69574184 0 -10217.93994634 0 12646.58796136 0 -58397.87700500 0 -2177.56090511 0 7
0.00450000 0.00420575 51685.05863720 0 -10834.67951106 0 -14768.82045935 0 256.31878339 0 22264.78436157 0 24
0.00550000 0.00557378 68814.72019438 0 -23124.88255349 0 132.15041118 0 -6862.78193514 0 -3547.77217374 0 45
0.00650000 0.00659388 80150.67706696 0 -2741.87301182 0 -38405.90875895 0 -25484.28424909 0 -36458.06537685 0 40
0.00750000 0.00754703 76369.03524840 0 10851.85268686 0 7981.46320087 0 -34976.14542313 0 -28624.06339792 0 57
0.00850000 0.00846663 65169.71086408 0 20446.48717986 0 9876.54695521 0 -55213.47638716 0 -9130.18368383 0 75
0.00950000 0.00948925 54592.20824158 0 5395.10099113 0 16777.89379769 0 -22180.52396971 0 -12316.41123527 0 112
0.01050000 0.01054430 48868.48064983 0 -3506.45025752 0 20513.47474501 0 -4337.81576653 0 -26523.31121007 0 105
0.01150000 0.01145670 65069.83849422 0 -8433.70123576 0 21547.40843657 0 6933.64481398 0 -20429.76796938 0 144
0.01250000 0.01249090 60318.70391454 0 -5428.01901282 0 14514.71060476 0 14407.64122377 0 -16226.15985198 0 169
0.01350000 0.01339930 78537.43934088 0 1104.42011136 0 17702.65436655 0 -3888.37902981 0 -11406.04468868 0 180
0.01450000 0.01448870 75664.50322019 0 -2926.71440234 0 32232.20188657 0 8975.17113637 0 -9018.36427549 0 267
0.01550000 0.01550050 70966.62652289 0 -628.42861803 0 32827.89296181 0 -9340.18139634 0 31866.48299781 0 238
0.01650000 0.01653350 76289.20378646 0 6205.24085346 0 46610.16927982 0 3624.92413308 0 9514.80303106 0 315
0.01750000 0.01747870 84238.91155975 0 -538.45822826 0 50478.83957146 0 9192.28835374 0 8943.57072134 0 297
0.01850000 0.01844180 78154.66907190 0 -1217.86715145 0 48928.27120385 0 4411.65710074 0 18396.99985593 0 388
0.01950000 0.01947590 81098.24662494 0 5219.91466785 0 46294.60802249 0 1585.20259964 0 16200.47205840 0 399
0.02050000 0.02045430 79753.73422221 0 8926.07644812 0 43230.34212893 0 14929.36916922 0 3313.26033408 0 462
0.02150000 0.02154770 72583.62883940 0 2361.32828012 0 36776.28399214 0 8725.80023681 0 5238.68225842 0 571
0.02250000 0.02255340 66214.71688047 0 852.78602860 0 20333.43874346 0 11532.04774512 0 -6604.46459713 0 510
0.02350000 0.02348930 69117.54827817 0 -942.05332576 0 31422.48277258 0 2514.52496631 0 -2139.94821770 0 555
0.02450000 0.02439640 70899.08534149 0 -696.65185464 0 34680.73579696 0 -8328.25948652 0 -14839.90478469 0 592
0.02550000 0.02547300 71480.05022473 0 3560.26175614 0 39223.15705381 0 -7235.33244832 0 -142.10996735 0 837
0.02650000 0.02652900 67809.35310085 0 2311.04885312 0 42005.52155749 0 2067.83416616 0 2890.02071789 0 723
0.02750000 0.02749970 66858.01895243 0 2936.02622751 0 44697.64661390 0 1430.58865587 0 5754.66366729 0 826
0.02850000 0.02848090 66876.62045813 0 228.66454492 0 47952.79938733 0 8150.26079273 0 -2107.98241595 0 831
0.02950000 0.02946900 66218.92436390 0 2443.61779818 0 39860.48007037 0 11476.02178153 0 -11557.51409220 0 996
0.03050000 0.03053250 64390.77281309 0 -300.81513514 0 38562.69287838 0 1678.90768458 0 -7816.23089760 0 1041
0.03150000 0.03150510 63919.86683856 0 138.12282318 0 37530.19858904 0 2943.31181724 0 -9984.56855614 0 1036
0.03250000 0.03246190 62676.22331493 0 4150.80420034 0 32259.43980562 0 3035.59964460 0 -13009.98166191 0 1059
0.03350000 0.03345080 60193.80809059 0 2039.61081019 0 26938.74483727 0 -1462.96413364 0 -6836.69553787 0 1302
0.03450000 0.03451200 60039.34915937 0 -599.41580531 0 26639.90279041 0 3623.63974340 0 -21172.83168796 0 1339
0.03550000 0.03553350 56007.36207666 0 3190.75613229 0 26246.28164311 0 1063.33403566 0 -18626.52914942 0 1365
0.03650000 0.03647120 52356.04152121 0 7154.75914061 0 25107.27158902 0 2414.34257136 0 -16300.01225852 0 1308
0.03750000 0.03744890 49358.20957656 0 5097.64298488 0 22268.10605902 0 2236.15564805 0 -12097.06848061 0 1579
0.03850000 0.03847530 46057.32810163 0 125.18813333 0 19502.35004257 0 2978.26714669 0 -11352.34391331 0 1662
0.03950000 0.03950240 47003.79042712 0 -637.86888217 0 19235.17484470 0 3336.35720365 0 -11000.53186452 0 1683
0.04050000 0.04050350 46834.16241090 0 274.85274790 0 17641.53513355 0 4393.28811387 0 -9742.41681235 0 1822
0.04150000 0.04152450 46437.66245915 0 -841.99715530 0 13033.23354403 0 4081.93433997 0 -4903.06902084 0 1887
0.04250000 0.04250150 45979.04676516 0 930.28455171 0 13241.72542036 0 5231.49631961 0 -1622.72670845 0 1920
0.04350000 0.04349210 45918.70259490 0 1000.84737054 0 14307.76885390 0 5594.07066812 0 1850.32941742 0 2005
0.04450000 0.04448520 42903.04420729 0 1867.80154598 0 13381.01526658 0 5355.99353987 0 8105.52860046 0 2151
0.04550000 0.04548030 42970.80683518 0 1447.36322797 0 11399.95491003 0 6914.64470459 0 12504.30858744 0 2274
0.04650000 0.04648670 42990.73701985 0 -534.26513885 0 11346.91847415 0 2156.57884958 0 14425.02477373 0 2311
0.04750000 0.04749250 40680.05355345 0 1350.35859023 0 10648.47622459 0 738.33140695 0 10732.21621719 0 2568
0.04850000 0.04851840 39967.66017462 0 3080.02181178 0 11822.36410186 0 -1901.49463041 0 10604.89555410 0 2493
0.04950000 0.04949480 37644.13281143 0 2098.28305941 0 9727.83456057 0 -1887.51028416 0 8635.59400651 0 2644
0.05050000 0.05050630 35365.78053349 0 327.39425087 0 10116.83854842 0 -623.65755327 0 4385.23853372 0 2829
0.05150000 0.05149060 35669.27295677 0 -1046.56942865 0 7885.32220447 0 973.68474330 0 -886.62305325 0 2784
0.05250000 0.05249300 36570.11730402 0 -725.94479718 0 5321.69147759 0 1825.89279654 0 -2793.84650451 0 3055
0.05350000 0.05348950 37445.60602743 0 -1391.31511974 0 3839.11825669 0 240.08786244 0 -4487.71289992 0 3009
0.05450000 0.05448610 38032.99285906 0 -400.04198847 0 3155.84509214 0 -316.52565682 0 -5010.32663136 0 3336
0.05550000 0.05550870 37779.76879045 0 1249.98796575 0 3372.35333164 0 -882.30816827 0 -2605.34017448 0 3349
0.05650000 0.05647670 37586.44599912 0 1735.15509465 0 6669.94632610 0 -2749.10323992 0 -6685.70224432 0 3324
0.05750000 0.05747970 35100.81980058 0 2650.38239184 0 8580.64205843 0 -4103.41465012 0 -1950.73325887 0 3639
0.05850000 0.05849280 33814.54782640 0 1896.43457796 0 10106.59664796 0 -575.89486570 0 -2521.20157818 0 3846
0.05950000 0.05951020 32811.83809082 0 264.94301719 0 10299.91943930 0 97.51806144 0 -2908.51150034 0 3787
0.06050000 0.06049470 32401.16556330 0 873.32962007 0 11021.38105216 0 1969.76658524 0 -4773.50067581 0 3930
0.06150000 0.06148310 31138.03474799 0 1503.74350595 0 9424.34213729 0 330.48564395 0 -4067.01991844 0 4083
0.06250000 0.06249100 30160.12702001 0 1029.53022798 0 9180.68455733 0 241.64684577 0 -1474.56793005 0 4303
0.06350000 0.06350600 29345.42535985 0 -134.71919053 0 9713.59555085 0 1027.16850110 0 -677.14352554 0 4470
0.06450000 0.06451750 30581.98259560 0 -1302.78081049 0 9782.53184517 0 437.23614200 0 -835.25410948 0 4479
0.06550000 0.06550280 31453.37455882 0 -686.18961492 0 10373.60576097 0 1301.14210641 0 -1072.87062902 0 4636
0.06650000 0.06648880 31706.15573443 0 1052.77878841 0 10535.83746421 0 -1305.12814335 0 -1604.96669944 0 4653
0.06750000 0.06749660 30552.19804184 0 1249.40113254 0 11438.92949339 0 -704.99263692 0 682.50474522 0 5220
0.06850000 0.06852730 29528.00799611 0 481.47450858 0 11084.72582244 0 1043.20454914 0 1562.52647841 0 5029
0.06950000 0.06949320 30303.73507290 0 -707.36543613 0 11293.32842203 0 2362.47980190 0 640.60153194 0 5040
0.07050000 0.07048030 29906.12788867 0 113.69727463 0 9971.18211543 0 2858.16563939 0 -532.78144732 0 5475
0.07150000 0.07148790 29833.82560760 0 966.58406139 0 8146.83944436 0 1265.77710094 0 -353.17394474 0 5509
0.07250000 0.07249820 28344.48719625 0 1697.29881610 0 8174.89671545 0 -1255.86737023 0 1377.79581113 0 5916
0.07350000 0.07351270 27909.45555412 0 1033.60041459 0 8759.15007916 0 -639.13112720 0 -388.37286534 0 5721
0.07450000 0.07449140 26748.07940389 0 418.28032191 0 9701.74816330 0 -1415.49707714 0 -344.24411477 0 6028
0.07550000 0.07549160 26988.12740596 0 684.59077121 0 10986.28178248 0 -2173.17626448 0 -1860.52702858 0 6183
0.07650000 0.07648840 26243.29211541 0 41.68863162 0 10006.75749507 0 1123.57523330 0 -2594.42286221 0 6330
0.07750000 0.07749960 26745.64349243 0 -713.64344430 0 10657.67732651 0 -128.90843447 0 -3973.99024531 0 6583
0.07850000 0.07848650 26516.88926168 0 264.82786501 0 9521.15854550 0 1330.02980187 0 -6017.42100757 0 6549
0.07950000 0.07947320 26815.50986204 0 881.84091616 0 9294.45269484 0 687.77295736 0 -5079.13005778 0 6828
0.08050000 0.08048110 25213.67663053 0 1285.98409374 0 7586.64624249 0 -33.05852949 0 -3640.64683432 0 7147
0.08150000 0.08149960 24421.45178975 0 1227.23433825 0 8655.16987679 0 1405.90844385 0 -3559.88529709 0 7386
0.08250000 0.08250610 23607.19302259 0 345.31702305 0 7773.73531495 0 639.67256389 0 -3741.08389275 0 7227
0.08350000 0.08350160 22811.53576112 0 238.18895873 0 6935.99214685 0 1836.44472210 0 -3500.41584049 0 7798
0.08450000 0.08449610 22458.10715291 0 216.94891803 0 7243.20487126 0 347.45619620 0 -1768.44957538 0 7371
0.08550000 0.08548940 22658.95912512 0 309.69956857 0 6521.56610121 0 1556.96817135 0 -1006.98586742 0 8256
0.08650000 0.08650700 21905.37669796 0 429.56855706 0 6660.05874004 0 964.01085310 0 761.86452612 0 8037
0.08750000 0.08749060 21568.55657698 0 620.40450424 0 6786.44932784 0 1307.05472787 0 1376.40069821 0 8155
0.08850000 0.08849210 21322.52951951 0 151.12173252 0 5902.98853056 0 1366.01485753 0 2088.98230656 0 8718
0.08950000 0.08949900 21217.89604997 0 -0.79617323 0 6102.99900609 0 556.44854162 0 2222.58097782 0 8571
0.09050000 0.09049190 20890.48740508 0 629.43177066 0 6499.41037925 0 490.26372002 0 3443.47087395 0 8932
0.09150000 0.09150830 20759.94469547 0 485.28781724 0 5975.54547510 0 -630.68294337 0 3455.77222682 0 9285
0.09250000 0.09250820 20307.86167313 0 561.09006018 0 6103.44189908 0 -430.60049773 0 3263.85562074 0 9204
0.09350000 0.09350330 19700.32321033 0 453.34748184 0 6681.80478598 0 -566.60075625 0 2518.33384605 0 9349
0.09450000 0.09448040 19537.22786575 0 370.57853212 0 7063.11350809 0 -148.79322261 0 1212.65208646 0 9564
0.09550000 0.09549270 19130.98426815 0 463.49083861 0 6996.51347430 0 -483.87055967 0 1270.25032017 0 10155
0.09650000 0.09649430 18894.25796353 0 264.78800464 0 6968.00223790 0 231.73711506 0 1635.50417129 0 9913
0.09750000 0.09749140 18716.76859669 0 64.22546300 0 6968.06867184 0 361.93215367 0 1108.27328040 0 10476
0.09850000 0.09850240 18568.17799762 0 53.67995940 0 6984.32284468 0 982.26468780 0 -6.68590155 0 10575
0.09950000 0.09950330 18343.07763406 0 500.21884726 0 6109.47631611 0 770.60280487 0 406.70420631 0 10882
0.10050000 0.10051200 17910.59262664 0 429.26406813 0 6179.33161339 0 -40.78357979 0 -36.65803156 0 10875
0.10150000 0.10150300 17653.71469085 0 288.93342338 0 6470.88807051 0 -264.60974021 0 321.65546491 0 11118
0.10250000 0.10250800 17199.30648029 0 569.45852328 0 6534.60929984 0 -971.11485671 0 -469.70019836 0 11575
0.10350000 0.10349800 16931.79911267 0 424.23501819 0 6616.21233376 0 -281.67551446 0 -109.45480266 0 11364
0.10450000 0.10450100 16556.77947107 0 250.70068578 0 7004.93951349 0 371.93489191 0 263.87121615 0 12093
0.10550000 0.10551000 16436.20185379 0 421.01961507 0 5981.24772238 0 975.28912316 0 963.79937170 0 12067
0.10650000 0.10649700 16199.25410267 0 45.75704665 0 6387.23665651 0 1262.80971789 0 380.91454734 0 12054
0.10750000 0.10749900 15667.00744864 0 454.07825528 0 5960.07743733 0 1095.31423143 0 1343.60447209 0 12807
0.10850000 0.10850100 15762.45088858 0 445.95338333 0 6087.36488345 0 439.67869685 0 788.50453964 0 12736
0.10950000 0.10950300 15282.79777743 0 356.35170196 0 5881.84039016 0 -323.62633873 0 1673.18329264 0 12933
0.11050000 0.11050200 15100.21514117 0 166.15794962 0 5803.95765739 0 180.34934834 0 1771.73805586 0 13428
0.11150000 0.11150900 14892.49832758 0 78.64384438 0 6159.21319919 0 -15.60821340 0 1431.37479093 0 13453
0.11250000 0.11250000 14862.38160407 0 46.10482838 0 5782.24482842 0 233.23409337 0 1462.89769969 0 13668
0.11350000 0.11349100 14865.03896203 0 84.17325267 0 5607.76713393 0 709.10822006 0 998.33173834 0 13791
0.11450000 0.11448600 14571.29018459 0 -41.89679133 0 5003.27356045 0 1001.97674767 0 1149.75020917 0 14205
0.11550000 0.11549300 14669.28025923 0 11.97671231 0 4998.86677517 0 629.53474328 0 878.21030085 0 14776
0.11650000 0.11649800 14685.55657672 0 200.06362268 0 4391.88192862 0 415.32290395 0 1312.66839655 0 14553
0.11750000 0.11747300 14340.21076562 0 279.14880993 0 4291.92098015 0 229.21483947 0 1035.19372213 0 14568
0.11850000 0.11849100 14178.66554652 0 191.56118445 0 4249.82400119 0 -62.82226728 0 1456.64183617 0 16015
0.11950000 0.11950300 14076.91088143 0 213.84866708 0 4495.36387637 0 35.53983748 0 1567.30972273 0 15270
0.12050000 0.12050700 14147.22014403 0 -46.12243337 0 3625.15665190 0 467.37058122 0 1057.71925974 0 15999
0.12150000 0.12150000 13868.08683535 0 -153.99389358 0 3885.84346743 0 534.08244549 0 1448.40402650 0 15670
0.12250000 0.12250700 14298.46810106 0 -10.54072036 0 3084.16286126 0 276.97531257 0 324.70256870 0 16887
0.12350000 0.12352200 13933.52427503 0 212.86212294 0 3298.92167344 0 307.76744789 0 1035.54803652 0 16407
0.12450000 0.12449800 13765.00349129 0 459.17816809 0 2892.78879909 0 -237.83132264 0 333.85495240 0 16306
0.12550000 0.12549900 13423.09010089 0 338.42450085 0 3411.61579545 0 -334.70419971 0 1203.84958823 0 17523
0.12650000 0.12650100 13284.46459416 0 247.36680877 0 3500.21653864 0 -115.80433805 0 746.77294739 0 17154
0.12750000 0.12750600 12881.87486376 0 303.50792453 0 3900.02711552 0 -73.48735199 0 1277.41411433 0 18007
0.12850000 0.12850300 13081.84104998 0 341.14718552 0 4227.54648366 0 30.97294638 0 1580.47471694 0 17496
0.12950000 0.12949900 12654.89220498 0 181.87954363 0 4580.53219888 0 120.87103388 0 1724.25992703 0 18405
0.13050000 0.13049000 12643.26626392 0 185.40386462 0 4268.60266408 0 144.65881652 0 1773.86394222 0 18100
0.13150000 0.13148800 12512.83427755 0 109.61047954 0 4761.34326316 0 90.92737081 0 2166.22284449 0 19059
0.13250000 0.13249300 12713.68624976 0 -23.18112996 0 4716.63321555 0 204.81586450 0 2214.63104860 0 18957
0.13350000 0.13349100 12461.56941364 0 181.24842112 0 4778.01818434 0 12.00627542 0 1887.12275279 0 19468
0.13450000 0.13450700 12441.97139871 0 163.39761905 0 4781.17379691 0 212.06934448 0 2093.66589996 0 19953
0.13550000 0.13551000 12216.20669566 0 13.14738921 0 4585.18257530 0 436.13776737 0 2163.55441421 0 19956
0.13650000 0.13649900 12137.15029646 0 144.74628789 0 4377.25538753 0 472.73512260 0 1331.04845575 0 19723
0.13750000 0.13749600 11991.21705535 0 254.95024404 0 3988.01888086 0 268.33004135 0 1464.33710192 0 20946
0.13850000 0.13851100 11573.12607019 0 403.11455860 0 3717.40018996 0 153.02506516 0 892.98078216 0 20955
0.13950000 0.13949800 11479.56492548 0 262.15722027 0 3598.54985536 0 -160.93513401 0 1342.97334958 0 20506
0.14050000 0.14048300 11131.00814019 0 92.32680195 0 3501.10232463 0 -77.74001051 0 662.38522379 0 21447
0.14150000 0.14148400 11084.39365270 0 180.02603646 0 3399.71304627 0 368.01639616 0 1410.24879518 0 21771
0.14250000 0.14249400 10937.77392745 0 156.51506194 0 3158.29207592 0 380.98983915 0 682.69408197 0 22470
0.14350000 0.14350900 10826.31990583 0 86.11035590 0 3166.20878817 0 687.70763065 0 1174.79580791 0 22519
0.14450000 0.14449900 10781.36626706 0 143.95904559 0 2806.75683525 0 418.22828198 0 1117.70690114 0 22218
0.14550000 0.14550500 10741.08514937 0 23.95143160 0 2583.20659716 0 248.35667461 0 1006.87957310 0 23559
0.14650000 0.14650700 10635.95342522 0 29.23149114 0 2533.60258198 0 67.88951673 0 1294.81980894 0 23044
0.14750000 0.14750500 10681.06207653 0 -0.98072121 0 2325.52038166 0 -64.61808764 0 970.95098630 0 23649
0.14850000 0.14849900 10437.76988329 0 -60.93975061 0 2074.02359573 0 191.24340873 0 675.88903114 0 23640
0.14950000 0.14949500 10623.03202216 0 205.44255808 0 2280.17921153 0 -65.95817111 0 173.24645197 0 24457
0.15050000 0.15050000 10300.03016255 0 335.55233979 0 2084.36514711 0 -108.74993846 0 214.28048775 0 24591
0.15150000 0.15149900 9942.91447017 0 375.00081866 0 2112.04595916 0 13.28479676 0 299.14985749 0 25020
0.15250000 0.15250500 9796.87050581 0 164.86359485 0 2069.79396765 0 -55.65083322 0 671.87642062 0 25297
0.15350000 0.15350100 9754.65173128 0 -47.67255885 0 2387.72470249 0 289.89671563 0 322.27440787 0 25452
0.15450000 0.15450400 9633.32119592 0 233.18648238 0 2109.63219235 0 -25.60552621 0 371.28162475 0 26061
0.15550000 0.15549900 9684.95144655 0 203.16719533 0 2514.21494122 0 -193.70478654 0 564.49701453 0 26128
0.15650000 0.15649500 9448.25835890 0 -20.15539576 0 2319.53025393 0 -314.35215946 0 560.27956601 0 26331
0.15750000 0.15749700 9541.85272059 0 42.45262203 0 2648.69939847 0 -116.12986440 0 620.09337191 0 27345
0.15850000 0.15849900 9551.79566828 0 72.33239779 0 2636.36482862 0 4.53881168 0 -122.28275530 0 26980
0.15950000 0.15949700 9514.74766943 0 128.69695306 0 2904.20436598 0 -57.49304662 0 217.28108778 0 27777
0.16050000 0.16050000 9342.24084876 0 288.98657053 0 2779.00958926 0 148.07573596 0 325.53410030 0 28224
0.16150000 0.16150500 9160.73222801 0 199.21991153 0 2494.97124068 0 492.22684321 0 385.65903853 0 28075
0.16250000 0.16249700 9090.12401264 0 -32.28745279 0 2575.15701702 0 185.42268758 0 382.37498698 0 28590
0.16350000 0.16349900 9097.99643558 0 45.92036344 0 2358.51590962 0 94.33266431 0 -138.26676341 0 29163
0.16450000 0.16449100 8864.65826236 0 121.57523374 0 2264.77760771 0 -122.30379271 0 371.83413376 0 28996
0.16550000 0.16550500 8980.60764786 0 54.93378946 0 2327.49125548 0 -35.58501256 0 530.45515188 0 30777
0.16650000 0.16650700 8922.56652116 0 16.30731999 0 2369.05676285 0 224.53346053 0 439.42292615 0 29211
0.16750000 0.16749900 8847.42972494 0 88.28839292 0 2335.50761865 0 246.02705747 0 -16.93811034 0 30922
0.16850000 0.16850800 8738.46697640 0 300.00242650 0 2198.27722484 0 26.10710252 0 255.94453881 0 30867
0.16950000 0.16949900 8583.95268355 0 223.21031772 0 2426.57749028 0 -4.16525358 0 225.43806947 0 30852
0.17050000 0.17049200 8336.99555080 0 213.59068191 0 2614.45269780 0 -113.36510489 0 810.10885982 0 31257
0.17150000 0.17149500 8239.09405475 0 127.82666833 0 2631.36013780 0 -34.93639578 0 948.55720935 0 32608
0.17250000 0.17250900 8287.71263303 0 -28.75781708 0 2522.58561878 0 192.43921981 0 674.14181828 0 32361
0.17350000 0.17350400 8231.83060967 0 -75.63139697 0 2512.37693530 0 252.16555435 0 604.34520432 0 32508
0.17450000 0.17449800 8297.72201467 0 14.75398354 0 2255.04503419 0 73.30720527 0 35.10004474 0 32791
0.17550000 0.17549800 8201.01632970 0 97.27148076 0 2049.98557855 0 192.12698025 0 360.95336016 0 33633
0.17650000 0.17650100 8154.13610642 0 79.93199865 0 1812.04131820 0 73.50296397 0 130.66782688 0 33984
0.17750000 0.17750300 8076.16479505 0 75.39356343 0 1706.84316009 0 188.66355705 0 61.04316613 0 34069
0.17850000 0.17849800 8020.94711117 0 163.98777396 0 1760.83181591 0 -94.59928589 0 -118.55027460 0 34536
