### header ###
fiducial parameters:
Omega_m = 0.31
Omega_nu = 0
Omega_de = 0.69
Omega_k = 0
H_0 = 100
w_de = -1
zeff = 0
beta = 0
fgrowth = 0
b_1 = 2
gamma = 0.55
Lx = 3500 Ly = 3500 Lz = 3500
nx = 700 ny = 700 nz = 700
xoffset = -685.467585 yoffset = -31.7331281 zoffset = 572.489161
bins = 400 dk = 0.001
kx_ny = 0.628318531 ky_ny = 0.628318531 kz_ny = 0.628318531
############################
A(data) = 8.01067069 (not used)
A(ran) = 8.00757683 (used)
Ngal = 475814
weighted Ngal = 0
Nran = 23820508
weighted Nran = 0
SN(data) = 3491.51164
SN(ran) = 69.7488983
SN(data+ran) = 3561.26054
############################
13 columns: k_central k_mean P_0(k) sigma^{lin}_{P_0(k)} P^img_1(k) sigma^{lin}_{P_1(k)} P_2(k) sigma^{lin}_{P_2(k)} P^img_3(k) sigma^{lin}_{P_3(k)} P_4(k) sigma^{lin}_{P_4(k)} N_modes
### header ###
0.00050000 0 0 0 0 0 0 0 0 0 0 0 0
0.00150000 0.00179520 8207.50471204 0 1055.17373226 0 23052.13737943 0 7794.35198376 0 -20645.89974984 0 3
0.00250000 0.00253879 15956.10584965 0 2493.73114031 0 6646.67229933 0 24452.89719224 0 44748.02569182 0 6
0.00350000 0.00331552 16670.04935396 0 -9344.97571299 0 3681.80266567 0 -1515.45802560 0 6518.32191004 0 7
0.00450000 0.00420575 25953.30792841 0 -25589.02844188 0 -12796.83940915 0 16741.68729554 0 -13813.72172049 0 24
0.00550000 0.00557378 64642.44675622 0 -26993.33139863 0 -8553.13840358 0 -11546.77393713 0 -38322.53415306 0 45
0.00650000 0.00659388 77246.51699028 0 -3205.50446895 0 -407.44051591 0 -38773.39921968 0 -17639.09922209 0 40
0.00750000 0.00754703 75911.19461715 0 20957.58569349 0 256.54908775 0 -51783.82377458 0 -4534.26095346 0 57
0.00850000 0.00846663 69176.67449270 0 7086.35431788 0 21252.55242665 0 -35398.33316846 0 18907.21258357 0 75
0.00950000 0.00948925 66317.13588504 0 -2404.57678087 0 23820.55672184 0 -8188.57103660 0 -25929.05953706 0 112
0.01050000 0.01054430 73176.33038694 0 -5575.42487313 0 40132.52709117 0 11621.95502264 0 -25810.14276851 0 105
0.01150000 0.01145670 78135.29250347 0 1543.23848857 0 36942.81175741 0 3708.63090871 0 -48550.59420429 0 144
0.01250000 0.01249090 73185.29897005 0 5660.30531519 0 27933.26105248 0 98.63570191 0 -22432.75152907 0 169
0.01350000 0.01339930 61532.00926817 0 8562.02948041 0 24635.70127499 0 -972.55979510 0 -27736.72728695 0 180
0.01450000 0.01448870 68045.63651248 0 201.77761857 0 20822.94622369 0 17534.79792230 0 -19065.32538198 0 267
0.01550000 0.01550050 67035.39759603 0 -2532.83859156 0 19972.25950787 0 11568.47569377 0 -5163.84441497 0 238
0.01650000 0.01653350 75343.51652370 0 -13415.67164326 0 3557.33866238 0 10460.52351079 0 -23516.84285207 0 315
0.01750000 0.01747870 77495.97646844 0 -7186.39277262 0 8788.25922111 0 9057.99212601 0 2451.52343810 0 297
0.01850000 0.01844180 84825.85549839 0 -3317.91071051 0 -9178.68046654 0 7208.00595067 0 -3269.21462595 0 388
0.01950000 0.01947590 77897.79113611 0 8170.04703718 0 -4330.16479008 0 5854.43638624 0 4752.92829630 0 399
0.02050000 0.02045430 79960.56524983 0 6163.39853797 0 -6435.41234179 0 -5635.42580132 0 7126.93438834 0 462
0.02150000 0.02154770 68895.99105855 0 5217.56733499 0 8383.10071134 0 -11709.98000495 0 17223.88704139 0 571
0.02250000 0.02255340 69189.18621975 0 7132.94666072 0 21209.59180636 0 -7703.31532910 0 23852.77718707 0 510
0.02350000 0.02348930 63916.98803410 0 5612.05212363 0 23337.91408300 0 6607.67557132 0 22086.85210174 0 555
0.02450000 0.02439640 63568.20980232 0 4566.07174266 0 32227.55151014 0 5853.72775745 0 28831.22659527 0 592
0.02550000 0.02547300 60492.20724445 0 294.26806947 0 26786.16820127 0 10894.21540161 0 24536.71469111 0 837
0.02650000 0.02652900 62305.52188000 0 -3598.72701256 0 35450.59454160 0 8315.71454250 0 24815.51583005 0 723
0.02750000 0.02749970 60958.79501231 0 2796.14954808 0 26053.51246802 0 4795.55674685 0 20634.38453203 0 826
0.02850000 0.02848090 62353.57576971 0 -882.07675668 0 28704.22702960 0 8581.97073741 0 14367.89157767 0 831
0.02950000 0.02946900 58399.53785372 0 1132.00127248 0 14364.45915697 0 5772.97729254 0 10715.77381484 0 996
0.03050000 0.03053250 58122.39756351 0 3663.76584854 0 15925.76767965 0 -180.04264495 0 2951.27281879 0 1041
0.03150000 0.03150510 51975.48571719 0 5839.05692706 0 11595.04927333 0 -5031.77372453 0 -2475.57252760 0 1036
0.03250000 0.03246190 50094.07628401 0 4292.56317499 0 9408.63050837 0 -5807.98798362 0 -11857.35264829 0 1059
0.03350000 0.03345080 45297.65589582 0 -586.63502077 0 12424.69857200 0 -4097.30272682 0 -8577.68574771 0 1302
0.03450000 0.03451200 46898.93551109 0 -769.51107364 0 16993.47196191 0 -412.29573034 0 -16286.39329900 0 1339
0.03550000 0.03553350 50756.86564765 0 -1224.32231682 0 18349.94247545 0 -1481.01202309 0 -17343.35742618 0 1365
0.03650000 0.03647120 49815.82876132 0 865.74507757 0 18340.08810636 0 -3355.31302374 0 -10898.74398246 0 1308
0.03750000 0.03744890 50359.70135641 0 1948.77345738 0 22335.53651717 0 -782.28632202 0 -7140.68621577 0 1579
0.03850000 0.03847530 49820.70058424 0 696.14695663 0 26418.78846379 0 -602.20603117 0 619.67926696 0 1662
0.03950000 0.03950240 49153.59301391 0 1925.87588966 0 27987.29399760 0 4960.88870105 0 -2149.42612774 0 1683
0.04050000 0.04050350 46661.21269724 0 3588.92800509 0 27804.82208458 0 2943.89865046 0 3233.97141606 0 1822
0.04150000 0.04152450 44178.35457990 0 2226.36771291 0 24670.57909817 0 4769.88002560 0 4394.59464820 0 1887
0.04250000 0.04250150 43796.80226665 0 1259.02298280 0 22452.34954400 0 6726.09408526 0 8725.56771798 0 1920
0.04350000 0.04349210 41565.95026219 0 -302.51473700 0 19998.94381069 0 7894.37936617 0 6230.47468173 0 2005
0.04450000 0.04448520 41545.02356828 0 -1285.12045240 0 15438.25321789 0 6566.56402927 0 2186.04230592 0 2151
0.04550000 0.04548030 42109.82285728 0 -165.32309633 0 13392.19831465 0 1312.54660098 0 -241.66677596 0 2274
0.04650000 0.04648670 43652.52987426 0 880.02284042 0 13817.59703418 0 -3927.61934897 0 -623.84467556 0 2311
0.04750000 0.04749250 40330.94315192 0 2095.63677378 0 14650.01441405 0 -4110.35699778 0 3756.31941170 0 2568
0.04850000 0.04851840 40156.99692902 0 2111.75807871 0 18025.41263501 0 -3096.36456321 0 2990.31383610 0 2493
0.04950000 0.04949480 39846.30749461 0 300.44753395 0 17536.56949427 0 1364.33186415 0 2690.12096561 0 2644
0.05050000 0.05050630 38423.73520191 0 2023.75524105 0 19858.32528549 0 1436.22446920 0 -534.39911398 0 2829
0.05150000 0.05149060 36848.25410346 0 2131.99828848 0 17483.64378164 0 3339.68997342 0 3146.04608467 0 2784
0.05250000 0.05249300 35652.00013006 0 -44.60486053 0 15171.74235950 0 3662.60325444 0 -2827.67245684 0 3055
0.05350000 0.05348950 35610.58963523 0 -1745.91739438 0 13550.64328280 0 1320.95049551 0 -421.97626393 0 3009
0.05450000 0.05448610 36851.13290792 0 -688.76946660 0 15669.77552984 0 -1141.86671390 0 -6955.73410200 0 3336
0.05550000 0.05550870 35918.17881870 0 2583.35053739 0 14704.26880566 0 -3175.39881777 0 -5700.54214358 0 3349
0.05650000 0.05647670 33828.38823242 0 2025.32751118 0 14445.06568165 0 -2380.58305298 0 -3572.77348318 0 3324
0.05750000 0.05747970 33313.19295861 0 524.75179736 0 14219.52242510 0 1288.42000520 0 -4951.99762422 0 3639
0.05850000 0.05849280 33358.58949037 0 -249.38750805 0 15366.06166007 0 3175.69777054 0 -1947.84338210 0 3846
0.05950000 0.05951020 35131.82231008 0 -1126.71977355 0 13861.11127072 0 4433.00454299 0 -5376.84272751 0 3787
0.06050000 0.06049470 34237.95352747 0 -629.73183067 0 14106.03109571 0 2924.57744365 0 479.44938037 0 3930
0.06150000 0.06148310 36030.23074586 0 483.79526786 0 13316.90650588 0 -1185.48060136 0 -1691.12045885 0 4083
0.06250000 0.06249100 34973.04517218 0 1721.53613513 0 15657.15307955 0 -1118.68126573 0 1786.14315044 0 4303
0.06350000 0.06350600 34351.99847310 0 1120.64106722 0 15284.90151915 0 -1152.30791620 0 2313.57334318 0 4470
0.06450000 0.06451750 33208.89165882 0 574.97807720 0 16789.07684576 0 819.29556772 0 3087.80565612 0 4479
0.06550000 0.06550280 32785.59668100 0 301.83046732 0 13928.43100562 0 3453.04843492 0 1185.50274601 0 4636
0.06650000 0.06648880 32079.62525057 0 -370.54420792 0 14161.72488955 0 3862.94589970 0 2257.93491097 0 4653
0.06750000 0.06749660 32209.83579043 0 590.64763129 0 11434.50056346 0 3207.05459442 0 917.39858008 0 5220
0.06850000 0.06852730 30934.96831082 0 785.26699186 0 10051.27931317 0 3093.07608274 0 2494.01902075 0 5029
0.06950000 0.06949320 29933.03363798 0 700.04884389 0 9548.79506825 0 1631.23025391 0 1916.14331614 0 5040
0.07050000 0.07048030 28801.33131826 0 894.50101236 0 7345.04811495 0 328.82036630 0 2324.28028128 0 5475
0.07150000 0.07148790 29004.72992518 0 657.54993954 0 9945.99257647 0 -769.11136272 0 2157.14353814 0 5509
0.07250000 0.07249820 27416.40492995 0 1174.06503447 0 9377.35119076 0 -718.29714243 0 2971.40230531 0 5916
0.07350000 0.07351270 27530.67132207 0 1355.65116150 0 9781.10351527 0 754.54682665 0 4028.03426275 0 5721
0.07450000 0.07449140 26212.84322216 0 387.37081994 0 9317.30597327 0 -150.00453495 0 4351.20220723 0 6028
0.07550000 0.07549160 26266.32255103 0 -72.36572549 0 8441.49615244 0 1491.09891100 0 2780.18325569 0 6183
0.07650000 0.07648840 26585.53767556 0 -236.25683805 0 9968.29223865 0 298.16220611 0 3480.36386025 0 6330
0.07750000 0.07749960 26578.00849468 0 517.05210268 0 8388.84724792 0 1432.44880644 0 2654.77810479 0 6583
0.07850000 0.07848650 25851.33181683 0 290.42818723 0 9020.23549838 0 -1061.20039866 0 1876.44903167 0 6549
0.07950000 0.07947320 25284.42878612 0 1224.86486074 0 8399.96386204 0 816.39240416 0 2052.47685163 0 6828
0.08050000 0.08048110 24551.10871338 0 678.98817485 0 8568.17462069 0 -337.98935848 0 2741.20867233 0 7147
0.08150000 0.08149960 23914.00714331 0 877.77958742 0 8789.38859824 0 674.80505054 0 2666.84693884 0 7386
0.08250000 0.08250610 23610.07182704 0 -164.35980407 0 8641.73914678 0 1435.99195038 0 2700.40715537 0 7227
0.08350000 0.08350160 23533.45133930 0 -233.12226289 0 8468.14723828 0 41.16324981 0 2043.33111133 0 7798
0.08450000 0.08449610 23953.53534291 0 219.30067982 0 9074.00270770 0 481.71588526 0 1425.80541155 0 7371
0.08550000 0.08548940 23466.90666714 0 685.91834296 0 7626.68376903 0 404.82855448 0 2734.81994091 0 8256
0.08650000 0.08650700 22757.05992301 0 624.82125461 0 8323.27694035 0 619.96825464 0 3247.82289440 0 8037
0.08750000 0.08749060 22260.68760139 0 235.70100734 0 7774.96434300 0 1069.12818323 0 3418.67993868 0 8155
0.08850000 0.08849210 22687.08283016 0 242.97995368 0 7816.89523709 0 2055.35565609 0 2560.24259549 0 8718
0.08950000 0.08949900 21317.87914308 0 134.07699569 0 7019.95358595 0 915.96914295 0 2251.72333674 0 8571
0.09050000 0.09049190 21766.86191448 0 122.29272039 0 6348.32850710 0 416.57296942 0 2152.22742592 0 8932
0.09150000 0.09150830 21305.14596954 0 310.14135433 0 6161.60482135 0 -305.42675842 0 2115.52266915 0 9285
0.09250000 0.09250820 21055.13287514 0 555.73769837 0 5522.57666677 0 -839.39515897 0 2326.52796322 0 9204
0.09350000 0.09350330 20717.09479842 0 485.95547843 0 5894.16388768 0 -186.32729651 0 1316.49942094 0 9349
0.09450000 0.09448040 20095.16231336 0 693.29251129 0 5098.20767345 0 609.64552621 0 610.62431973 0 9564
0.09550000 0.09549270 19203.84016546 0 732.73434676 0 4957.69987150 0 21.92907147 0 -371.62154512 0 10155
0.09650000 0.09649430 18772.01949753 0 818.41753237 0 4458.47089007 0 375.23665917 0 -1226.51463714 0 9913
0.09750000 0.09749140 18033.38470888 0 354.01544143 0 4899.66981712 0 325.36026480 0 -101.15797750 0 10476
0.09850000 0.09850240 18152.19075419 0 -54.93068921 0 4161.99832073 0 722.71389280 0 -734.09845717 0 10575
0.09950000 0.09950330 17721.69876524 0 -191.88892527 0 4025.47655572 0 733.84379370 0 -443.59940707 0 10882
0.10050000 0.10051200 17932.07293679 0 405.53275434 0 3832.90668247 0 59.27624453 0 -371.08564460 0 10875
0.10150000 0.10150300 17781.26787276 0 424.62476403 0 3951.65736615 0 -284.37605448 0 3.73994344 0 11118
0.10250000 0.10250800 17334.27811983 0 350.69152952 0 4870.67139842 0 -280.39001754 0 80.28797389 0 11575
0.10350000 0.10349800 17195.76333635 0 382.24101185 0 5059.75348935 0 -408.96074611 0 622.46063496 0 11364
0.10450000 0.10450100 17094.56228751 0 252.26188358 0 5466.68357109 0 -743.63726500 0 336.64517825 0 12093
0.10550000 0.10551000 16890.38861785 0 289.38628146 0 6204.15576563 0 -520.03830869 0 1410.29308448 0 12067
0.10650000 0.10649700 16789.29829226 0 219.82107909 0 6602.33871076 0 451.35224891 0 1034.83608604 0 12054
0.10750000 0.10749900 16802.91725178 0 261.06327457 0 6596.24893211 0 321.88798373 0 920.60069642 0 12807
0.10850000 0.10850100 16274.87808118 0 484.34224070 0 6610.34400160 0 276.23014511 0 299.53628162 0 12736
0.10950000 0.10950300 16081.33384335 0 499.99297184 0 6661.48706994 0 -83.68673472 0 1031.25529619 0 12933
0.11050000 0.11050200 15603.78447393 0 342.56444310 0 6448.69913158 0 346.49954734 0 1099.90813900 0 13428
0.11150000 0.11150900 15180.26804961 0 262.26130012 0 6011.16514404 0 552.15026513 0 1269.77421020 0 13453
0.11250000 0.11250000 15300.40277389 0 -14.71334811 0 6059.63978210 0 944.08731182 0 1061.68647372 0 13668
0.11350000 0.11349100 14876.77562633 0 57.98753665 0 5102.50373548 0 1209.85078828 0 -130.58256998 0 13791
0.11450000 0.11448600 14731.72817121 0 397.33480505 0 4600.41809425 0 369.44472606 0 835.80108233 0 14205
0.11550000 0.11549300 14267.68703806 0 525.05960799 0 4471.81304148 0 179.60307365 0 -75.08387051 0 14776
0.11650000 0.11649800 14016.67743442 0 296.01860403 0 4538.75631733 0 -301.24917027 0 547.84423800 0 14553
0.11750000 0.11747300 13785.48729221 0 131.54475501 0 4403.48572503 0 72.06466898 0 36.99994495 0 14568
0.11850000 0.11849100 13970.28439343 0 -30.48343890 0 4396.16691832 0 -128.60283830 0 -195.57158050 0 16015
0.11950000 0.11950300 13862.55067295 0 -128.64602037 0 4398.42567258 0 84.11246561 0 355.06066889 0 15270
0.12050000 0.12050700 13899.20006809 0 347.05205635 0 4663.26460992 0 287.82065473 0 265.34826428 0 15999
0.12150000 0.12150000 13771.64688618 0 217.44274372 0 4465.39109309 0 460.43376972 0 123.46970852 0 15670
0.12250000 0.12250700 13507.01832302 0 76.60996904 0 4050.90968583 0 392.03891209 0 552.49018550 0 16887
0.12350000 0.12352200 13412.68211556 0 -57.10739755 0 4113.54582732 0 535.84515960 0 736.59969535 0 16407
0.12450000 0.12449800 13750.60946903 0 -172.15250628 0 3899.39599301 0 579.26860307 0 73.91751181 0 16306
0.12550000 0.12549900 13484.65222688 0 105.39236668 0 3918.83899539 0 -0.30279376 0 -1.47746888 0 17523
0.12650000 0.12650100 13440.14148111 0 258.29187167 0 3497.52596371 0 -422.62399493 0 111.83380237 0 17154
0.12750000 0.12750600 13299.41223267 0 12.22262864 0 3366.20819136 0 163.07209270 0 468.85095105 0 18007
0.12850000 0.12850300 13221.24161945 0 -92.57028237 0 3269.04854108 0 709.83788626 0 241.68116998 0 17496
0.12950000 0.12949900 13349.68058735 0 146.65847839 0 3327.03430616 0 274.38549580 0 267.19402083 0 18405
0.13050000 0.13049000 12992.04449570 0 425.30349754 0 3069.68026040 0 360.71530517 0 -29.34653259 0 18100
0.13150000 0.13148800 12626.87922318 0 597.91329083 0 3181.27822224 0 -65.29737477 0 253.06905605 0 19059
0.13250000 0.13249300 12296.81322034 0 276.34308282 0 2942.37066963 0 -360.63779890 0 455.27960252 0 18957
0.13350000 0.13349100 11926.66540165 0 206.42910222 0 3524.07739863 0 -180.14008140 0 14.87478261 0 19468
0.13450000 0.13450700 12114.89492357 0 120.53222074 0 3450.87825925 0 -233.51865212 0 361.32206857 0 19953
0.13550000 0.13551000 12003.83950564 0 -10.18528766 0 3467.82998855 0 -98.32069426 0 -150.02114343 0 19956
0.13650000 0.13649900 11906.62449373 0 83.13378282 0 3278.58181275 0 -0.16329022 0 -396.20542792 0 19723
0.13750000 0.13749600 11871.30377756 0 221.04457098 0 3371.96580027 0 71.33998532 0 -336.24989626 0 20946
0.13850000 0.13851100 11671.00542159 0 279.99473555 0 3417.61699550 0 252.95390388 0 -594.36903966 0 20955
0.13950000 0.13949800 11356.21922700 0 206.87753138 0 3274.69542674 0 56.98947729 0 -515.34253573 0 20506
0.14050000 0.14048300 11193.34532891 0 198.94531788 0 3355.37945769 0 84.14413246 0 -597.77267231 0 21447
0.14150000 0.14148400 11138.64804431 0 173.87536002 0 3518.65195947 0 -31.56077611 0 -145.17921579 0 21771
0.14250000 0.14249400 11024.50344775 0 163.17727978 0 3755.11252829 0 -96.94495791 0 -107.75376139 0 22470
0.14350000 0.14350900 10879.58886053 0 177.24023953 0 3536.97665704 0 95.78225308 0 7.54771595 0 22519
0.14450000 0.14449900 10788.02073428 0 80.29074198 0 3646.42658788 0 193.45898093 0 102.48621358 0 22218
0.14550000 0.14550500 10561.23737734 0 245.38818433 0 3307.77953330 0 197.02980568 0 -272.78886656 0 23559
0.14650000 0.14650700 10532.15038004 0 28.83078370 0 3070.72105893 0 453.21572117 0 63.14602206 0 23044
0.14750000 0.14750500 10419.93236801 0 34.29298298 0 3017.29709168 0 184.31434786 0 -439.32548969 0 23649
0.14850000 0.14849900 10346.04674449 0 198.96967699 0 2790.09298640 0 34.22156649 0 -537.52593851 0 23640
0.14950000 0.14949500 10092.62337404 0 373.30343126 0 2860.91157594 0 -141.69918410 0 -402.70156089 0 24457
0.15050000 0.15050000 9888.88152505 0 226.41797022 0 2748.92608273 0 -166.77246365 0 -321.68978912 0 24591
0.15150000 0.15149900 9777.39428646 0 164.44727544 0 3422.66597562 0 -165.78259781 0 -686.31473219 0 25020
0.15250000 0.15250500 9651.42444699 0 63.94655114 0 3015.24871159 0 -92.32957003 0 21.92021361 0 25297
0.15350000 0.15350100 9746.29212604 0 -11.00161695 0 3320.64557474 0 150.60133325 0 -215.42758060 0 25452
0.15450000 0.15450400 9750.51068180 0 -50.90844577 0 3109.13095373 0 259.23523375 0 -74.86386341 0 26061
0.15550000 0.15549900 9820.70922115 0 -27.17259234 0 3263.39058310 0 187.22969099 0 -513.47242007 0 26128
0.15650000 0.15649500 9703.33150574 0 201.84405251 0 3002.08371738 0 -69.99336917 0 -568.97134099 0 26331
0.15750000 0.15749700 9623.42253753 0 171.25232627 0 3220.10886538 0 -150.19387170 0 -8.12926766 0 27345
0.15850000 0.15849900 9422.98024134 0 83.62406536 0 2957.32938046 0 21.99661265 0 -131.44288962 0 26980
0.15950000 0.15949700 9550.24554280 0 130.87820105 0 2948.26114644 0 467.26428690 0 127.16786501 0 27777
0.16050000 0.16050000 9483.02545883 0 -36.20661288 0 2938.12996923 0 381.49030823 0 155.36796909 0 28224
0.16150000 0.16150500 9258.20190338 0 258.67054518 0 2938.88288731 0 321.35319044 0 350.48226258 0 28075
0.16250000 0.16249700 9063.05217846 0 379.97229250 0 2652.29790403 0 266.60940208 0 428.40707019 0 28590
0.16350000 0.16349900 8816.75938519 0 227.98359695 0 2739.30423246 0 163.65338975 0 717.43793002 0 29163
0.16450000 0.16449100 8625.28567210 0 -5.54186466 0 2453.56074586 0 365.16748698 0 785.88372035 0 28996
0.16550000 0.16550500 8664.14953221 0 -42.78811348 0 2599.91473532 0 189.39986665 0 242.87365936 0 30777
0.16650000 0.16650700 8706.67833184 0 95.93626911 0 2476.95656820 0 -153.90531498 0 746.54707197 0 29211
0.16750000 0.16749900 8707.87414292 0 188.00696819 0 2757.17496472 0 -136.35568014 0 529.57490205 0 30922
0.16850000 0.16850800 8495.07513223 0 81.04886406 0 2687.31966743 0 -181.75553360 0 607.28933549 0 30867
0.16950000 0.16949900 8510.18885561 0 88.71279513 0 2914.65664061 0 75.78330927 0 641.89699394 0 30852
0.17050000 0.17049200 8399.62061997 0 161.23408678 0 2853.63705854 0 231.29975823 0 500.73260313 0 31257
0.17150000 0.17149500 8353.28294061 0 63.46734092 0 2902.13384124 0 73.51470063 0 550.41633906 0 32608
0.17250000 0.17250900 8191.53841966 0 63.38285908 0 2557.92847960 0 268.59134822 0 496.97133439 0 32361
0.17350000 0.17350400 8248.36159063 0 3.43221032 0 2566.76419481 0 230.19474021 0 664.39706521 0 32508
0.17450000 0.17449800 8259.51142172 0 2.95607821 0 2409.54825471 0 185.85229378 0 408.92420743 0 32791
0.17550000 0.17549800 8239.23799497 0 36.95631999 0 2379.98514744 0 134.83877164 0 594.32585759 0 33633
0.17650000 0.17650100 8211.71219548 0 78.75534269 0 2175.34644014 0 51.77264073 0 583.37532835 0 33984
0.17750000 0.17750300 8142.69839488 0 124.31784860 0 2135.84038519 0 -7.92169479 0 546.05716478 0 34069
0.17850000 0.17849800 8054.09765168 0 246.73457903 0 2203.21548171 0 -63.69974902 0 229.13511873 0 34536
