### header ###
fiducial parameters:
Omega_m = 0.31
Omega_nu = 0
Omega_de = 0.69
Omega_k = 0
H_0 = 100
w_de = -1
zeff = 0
beta = 0
fgrowth = 0
b_1 = 2
gamma = 0.55
Lx = 3500 Ly = 3500 Lz = 3500
nx = 700 ny = 700 nz = 700
xoffset = -685.467585 yoffset = -31.7331281 zoffset = 572.489161
bins = 400 dk = 0.001
kx_ny = 0.628318531 ky_ny = 0.628318531 kz_ny = 0.628318531
############################
A(data) = 8.01674014 (not used)
A(ran) = 8.00305862 (used)
Ngal = 475368
weighted Ngal = 0
Nran = 23820508
weighted Nran = 0
SN(data) = 3507.02207
SN(ran) = 69.709543
SN(data+ran) = 3576.73162
############################
13 columns: k_central k_mean P_0(k) sigma^{lin}_{P_0(k)} P^img_1(k) sigma^{lin}_{P_1(k)} P_2(k) sigma^{lin}_{P_2(k)} P^img_3(k) sigma^{lin}_{P_3(k)} P_4(k) sigma^{lin}_{P_4(k)} N_modes
### header ###
0.00050000 0 0 0 0 0 0 0 0 0 0 0 0
0.00150000 0.00179520 13450.66018969 0 -11540.57343523 0 3047.07057312 0 -39471.73074599 0 -54699.05617608 0 3
0.00250000 0.00253879 21397.93205152 0 -14857.62050440 0 -19241.92896284 0 37884.84515298 0 40866.73294989 0 6
0.00350000 0.00331552 33786.64556786 0 -17464.37793645 0 12723.42989560 0 -45262.11373315 0 -31857.18224496 0 7
0.00450000 0.00420575 44179.90470538 0 -13596.59343080 0 -8740.02817420 0 -800.34749826 0 3595.64890626 0 24
0.00550000 0.00557378 64549.88212074 0 -4766.96800417 0 10152.34749411 0 -14084.55078556 0 -5528.88789192 0 45
0.00650000 0.00659388 41283.27380957 0 8236.33704587 0 -29994.92793371 0 3221.47076134 0 8856.90763498 0 40
0.00750000 0.00754703 63433.90250227 0 -3550.28559147 0 22923.80913478 0 6164.64971068 0 9091.07623257 0 57
0.00850000 0.00846663 54070.81246587 0 -5490.42263550 0 -9237.28628180 0 -11585.19490425 0 -10865.03982572 0 75
0.00950000 0.00948925 74915.01755322 0 -3968.59802312 0 14161.06055006 0 -2677.64245554 0 -14013.35573698 0 112
0.01050000 0.01054430 66674.77197668 0 1124.95927390 0 12181.88248872 0 -29709.48339989 0 -7336.46706321 0 105
0.01150000 0.01145670 71920.17513627 0 8903.15673575 0 27580.16461401 0 -30836.20317343 0 -5333.52779282 0 144
0.01250000 0.01249090 66809.74361622 0 8230.56836464 0 39803.90049055 0 -10382.79579057 0 333.06771010 0 169
0.01350000 0.01339930 67629.98143879 0 184.38410351 0 51596.03714566 0 13636.45380015 0 -14708.03339610 0 180
0.01450000 0.01448870 71922.72177098 0 -10862.80321610 0 31695.96919560 0 30359.31814349 0 -14378.74245599 0 267
0.01550000 0.01550050 86344.53557051 0 -8851.59291907 0 27042.60324407 0 23947.55628751 0 -22731.92574567 0 238
0.01650000 0.01653350 83581.10474227 0 -1128.83458759 0 17718.59851429 0 3927.89615709 0 -14532.64777097 0 315
0.01750000 0.01747870 86973.55434346 0 4077.69363956 0 20009.90541226 0 -5194.42617612 0 -6078.35201104 0 297
0.01850000 0.01844180 73856.50330055 0 5149.36181411 0 15887.23598928 0 -2124.63519248 0 8400.58391223 0 388
0.01950000 0.01947590 77350.37539708 0 2395.54176381 0 21325.07615422 0 -278.10358247 0 12240.01219402 0 399
0.02050000 0.02045430 76779.15415968 0 2166.61037586 0 31026.64716031 0 -2955.20349410 0 -229.83046073 0 462
0.02150000 0.02154770 75312.84618395 0 125.60445274 0 28786.82657275 0 9.16250380 0 -1262.28931862 0 571
0.02250000 0.02255340 79167.23317657 0 -2015.36241884 0 43872.42624516 0 -3024.23943934 0 -3764.15861767 0 510
0.02350000 0.02348930 74385.42825714 0 3566.94944033 0 31288.39691903 0 -1865.18847733 0 -10642.03213154 0 555
0.02450000 0.02439640 72717.93613945 0 5806.92504044 0 41306.19352195 0 -2459.42907802 0 -3945.30185170 0 592
0.02550000 0.02547300 67044.03400939 0 5798.45471195 0 38948.78484481 0 456.21078504 0 -10888.83425175 0 837
0.02650000 0.02652900 60773.55501809 0 5199.23156509 0 31506.74316445 0 6254.87808563 0 -10003.44686995 0 723
0.02750000 0.02749970 59722.34849981 0 762.45246657 0 26412.92013163 0 10947.73901979 0 -10310.63744972 0 826
0.02850000 0.02848090 58905.32165144 0 -3390.77768014 0 20792.05443745 0 14941.88089627 0 -13866.42598663 0 831
0.02950000 0.02946900 60023.40501163 0 -1245.41509560 0 12793.62843495 0 9775.83308866 0 -10874.07484277 0 996
0.03050000 0.03053250 58283.94278262 0 2803.80052453 0 11926.33323191 0 5212.62907812 0 -7268.10652978 0 1041
0.03150000 0.03150510 55808.28167642 0 3330.32278663 0 8034.31140723 0 4009.99744562 0 2861.73092798 0 1036
0.03250000 0.03246190 53586.39825506 0 3264.77462370 0 8017.31538863 0 2809.40312088 0 6317.75781827 0 1059
0.03350000 0.03345080 53484.31142023 0 719.51731262 0 11435.05417971 0 8870.05048454 0 11323.66659203 0 1302
0.03450000 0.03451200 52561.65459309 0 -1749.44946600 0 10969.67329525 0 4113.93335869 0 11488.86567832 0 1339
0.03550000 0.03553350 54176.55316789 0 284.41370038 0 10134.46568953 0 -615.69765896 0 11954.12476720 0 1365
0.03650000 0.03647120 53496.26953103 0 2294.51787217 0 12425.36291148 0 -5820.14539627 0 14564.20389670 0 1308
0.03750000 0.03744890 52796.27715600 0 3624.31515521 0 16186.41020588 0 -6145.08491272 0 15585.73658447 0 1579
0.03850000 0.03847530 50810.12353003 0 2664.70998015 0 20565.62539491 0 -3926.08029582 0 11120.04653861 0 1662
0.03950000 0.03950240 47417.56320560 0 1801.05757198 0 24706.34270733 0 -17.45496646 0 8921.92432632 0 1683
0.04050000 0.04050350 47665.58328154 0 1763.02413622 0 24511.13762078 0 2419.83444447 0 3279.46759874 0 1822
0.04150000 0.04152450 43967.98040835 0 905.86786102 0 21046.71790828 0 3494.56965299 0 4206.40941558 0 1887
0.04250000 0.04250150 47054.61239804 0 -756.30289737 0 23841.15124601 0 2354.03161807 0 4902.16109021 0 1920
0.04350000 0.04349210 46194.73565263 0 475.51649059 0 21314.00382940 0 2359.09167051 0 4602.59934224 0 2005
0.04450000 0.04448520 47127.35757210 0 -711.52420133 0 23961.50741678 0 2472.35048108 0 3602.86806204 0 2151
0.04550000 0.04548030 45846.17886734 0 847.44031018 0 19592.03587360 0 2285.77073556 0 4971.46277125 0 2274
0.04650000 0.04648670 45617.53535983 0 1964.97226859 0 19107.95383253 0 3176.50605025 0 4843.49991332 0 2311
0.04750000 0.04749250 44282.21298670 0 1619.81468702 0 17636.55258738 0 4067.65104095 0 7489.44230291 0 2568
0.04850000 0.04851840 41375.94916830 0 462.49322214 0 15542.11162469 0 4816.57201936 0 4887.36846425 0 2493
0.04950000 0.04949480 41145.97698182 0 848.73687942 0 11631.36649874 0 4948.08909356 0 3646.09441813 0 2644
0.05050000 0.05050630 40577.19165589 0 -596.47167414 0 11335.95687258 0 1150.75779073 0 -1633.24541702 0 2829
0.05150000 0.05149060 38927.41525791 0 931.09836758 0 9655.69836437 0 -2151.58523108 0 -1963.59930031 0 2784
0.05250000 0.05249300 38817.02417947 0 1185.36987811 0 8995.25633359 0 -2993.46944867 0 -2043.80722130 0 3055
0.05350000 0.05348950 38172.61487502 0 617.52237809 0 9429.86722737 0 -804.57712634 0 -577.89784926 0 3009
0.05450000 0.05448610 36933.84317431 0 770.22856029 0 9285.63912429 0 214.82856783 0 -3856.57931293 0 3336
0.05550000 0.05550870 37220.06277087 0 648.12849835 0 10036.17666212 0 361.09065699 0 -3644.93182402 0 3349
0.05650000 0.05647670 35164.37494504 0 1802.82914395 0 11353.56186904 0 -1036.84460576 0 -2935.09615223 0 3324
0.05750000 0.05747970 34698.45151667 0 2060.60393805 0 12390.81725805 0 -2663.14878236 0 -825.05982002 0 3639
0.05850000 0.05849280 33481.16012611 0 1938.15509788 0 14724.19899033 0 579.13905687 0 1249.15754139 0 3846
0.05950000 0.05951020 32284.68470621 0 1443.52113126 0 14430.56093614 0 -94.07999386 0 2124.39160133 0 3787
0.06050000 0.06049470 32143.29111827 0 873.12921099 0 15092.79668354 0 1180.30982567 0 2953.99661069 0 3930
0.06150000 0.06148310 30632.69384327 0 73.96534425 0 14192.17378280 0 2617.40900853 0 4993.88422901 0 4083
0.06250000 0.06249100 31220.08067490 0 -711.70135853 0 14314.63369529 0 4396.05619507 0 4775.48262196 0 4303
0.06350000 0.06350600 31564.20853026 0 -549.03894185 0 10968.24496535 0 3912.64956581 0 4985.86786584 0 4470
0.06450000 0.06451750 31673.04948323 0 -278.90300432 0 10731.59616700 0 4174.59862637 0 6592.47326935 0 4479
0.06550000 0.06550280 31040.15539659 0 367.69419151 0 9049.80967797 0 1974.49446793 0 5561.20800806 0 4636
0.06650000 0.06648880 31470.42593905 0 769.25973187 0 8831.89525322 0 -773.76284637 0 5543.71373485 0 4653
0.06750000 0.06749660 30224.01433421 0 1157.23510075 0 7966.57092399 0 -1165.68328458 0 5019.19556354 0 5220
0.06850000 0.06852730 29298.14653288 0 1301.93931380 0 9510.81699412 0 -1545.39759191 0 5174.38526820 0 5029
0.06950000 0.06949320 28523.41596531 0 358.36243615 0 9800.18113093 0 -685.64374930 0 4803.75026722 0 5040
0.07050000 0.07048030 28152.71453039 0 641.64233047 0 9995.80696583 0 300.69666126 0 2942.99071982 0 5475
0.07150000 0.07148790 27937.68998241 0 1025.96604663 0 10353.55378072 0 -412.12521654 0 2651.50069665 0 5509
0.07250000 0.07249820 26753.17267331 0 1272.33191724 0 9613.31350497 0 -39.34971373 0 2699.65423728 0 5916
0.07350000 0.07351270 26226.68362818 0 719.52395601 0 10556.00016770 0 1159.34991479 0 2552.28159395 0 5721
0.07450000 0.07449140 25611.94815425 0 -6.11766984 0 10004.79769358 0 167.16110225 0 3282.96645338 0 6028
0.07550000 0.07549160 25855.98219325 0 10.11838867 0 11012.80000042 0 501.29175554 0 1730.06182524 0 6183
0.07650000 0.07648840 25769.50733642 0 114.56423767 0 10343.48903746 0 592.04495868 0 1971.89247160 0 6330
0.07750000 0.07749960 25417.62885368 0 515.19527381 0 10193.45903617 0 267.92700873 0 1425.51753110 0 6583
0.07850000 0.07848650 25469.00444084 0 394.44824997 0 10172.39947436 0 -344.03484784 0 1787.78185452 0 6549
0.07950000 0.07947320 25241.68961232 0 -276.37187087 0 9541.09980250 0 -556.69324000 0 -443.35470869 0 6828
0.08050000 0.08048110 25354.40587897 0 103.79540527 0 9498.60421985 0 1209.88400526 0 353.68216445 0 7147
0.08150000 0.08149960 25068.62917540 0 193.29400329 0 8790.42939677 0 1612.67303751 0 -1095.13153807 0 7386
0.08250000 0.08250610 24358.45026153 0 694.32113026 0 8470.70494531 0 1006.31709900 0 -506.90099529 0 7227
0.08350000 0.08350160 23879.35076663 0 984.65852442 0 7884.96789008 0 476.34912942 0 539.13474730 0 7798
0.08450000 0.08449610 22764.14621090 0 991.23548537 0 7797.12006497 0 817.09992571 0 1864.24732972 0 7371
0.08550000 0.08548940 22310.40233983 0 23.15732447 0 7823.26182386 0 887.56198639 0 3109.06451978 0 8256
0.08650000 0.08650700 22353.58440662 0 -236.07303746 0 7878.99990700 0 1988.35701861 0 2300.26440875 0 8037
0.08750000 0.08749060 22442.27372842 0 87.53115662 0 7395.75936261 0 1345.73035846 0 1994.38036331 0 8155
0.08850000 0.08849210 22170.78032386 0 215.16738097 0 7082.33506397 0 -56.44372240 0 1080.24479735 0 8718
0.08950000 0.08949900 22075.89050017 0 548.23730554 0 7202.13761851 0 -1064.64278445 0 1813.31463555 0 8571
0.09050000 0.09049190 21644.18055549 0 693.47299018 0 7603.48724854 0 -1621.82985014 0 546.23321474 0 8932
0.09150000 0.09150830 21202.50551847 0 604.29759332 0 8543.56084261 0 -1003.96976614 0 -667.31240833 0 9285
0.09250000 0.09250820 20773.23148526 0 650.35625011 0 8184.83966314 0 -892.34412348 0 -843.20403870 0 9204
0.09350000 0.09350330 20424.89614646 0 356.81673961 0 8185.45971333 0 -485.15937828 0 -1512.50171488 0 9349
0.09450000 0.09448040 20295.90356232 0 167.09577554 0 8635.46113861 0 712.80969824 0 -986.33265994 0 9564
0.09550000 0.09549270 20025.73883675 0 -23.88621561 0 8520.14287562 0 1484.14549102 0 -1139.82940613 0 10155
0.09650000 0.09649430 20081.98624683 0 836.59607525 0 7813.65104592 0 878.12282948 0 -385.05781129 0 9913
0.09750000 0.09749140 19100.31392841 0 1035.37641549 0 7390.12354928 0 1275.72004863 0 -673.52951872 0 10476
0.09850000 0.09850240 18118.64160998 0 897.93232582 0 6500.89407077 0 419.84373417 0 753.15392819 0 10575
0.09950000 0.09950330 17544.87373788 0 256.12058877 0 6715.99612502 0 1019.04141468 0 197.89455425 0 10882
0.10050000 0.10051200 16993.80413166 0 118.70085822 0 6389.80543587 0 821.70601284 0 -316.46697350 0 10875
0.10150000 0.10150300 16976.86347469 0 175.88830867 0 5671.79838835 0 317.57088429 0 -477.82617755 0 11118
0.10250000 0.10250800 16665.39897754 0 78.75301751 0 5473.21624273 0 45.72493691 0 -295.20478815 0 11575
0.10350000 0.10349800 16990.81460396 0 -200.06030099 0 5147.22485542 0 -82.08468004 0 75.08973884 0 11364
0.10450000 0.10450100 16988.93230874 0 -33.25838495 0 5663.40556614 0 475.53088461 0 -562.91920824 0 12093
0.10550000 0.10551000 17084.81864167 0 174.08794866 0 5643.49752612 0 -575.72767360 0 -176.17065296 0 12067
0.10650000 0.10649700 16788.96612251 0 664.70044691 0 6097.78394110 0 -90.25926673 0 -455.35600156 0 12054
0.10750000 0.10749900 16249.30101085 0 566.84766909 0 6258.86412256 0 -157.58464852 0 1050.39934580 0 12807
0.10850000 0.10850100 15863.65193742 0 263.29213356 0 6103.97337067 0 253.81533075 0 303.49795944 0 12736
0.10950000 0.10950300 15935.17915575 0 138.09292791 0 6859.91420302 0 343.83997492 0 1022.38636401 0 12933
0.11050000 0.11050200 15643.64484327 0 336.08048969 0 6521.34465471 0 -49.21748033 0 480.96185994 0 13428
0.11150000 0.11150900 15320.77585156 0 255.82827940 0 5775.42427633 0 456.50087995 0 679.52628984 0 13453
0.11250000 0.11250000 15163.77028563 0 282.62994886 0 5837.06390859 0 344.82651906 0 1135.38940388 0 13668
0.11350000 0.11349100 14969.89387806 0 114.69156940 0 5598.00134344 0 540.63726178 0 864.44297217 0 13791
0.11450000 0.11448600 14707.70122635 0 233.48543515 0 5348.26505715 0 530.69099240 0 982.89359585 0 14205
0.11550000 0.11549300 14632.29869434 0 314.25140131 0 4552.77388056 0 883.79407426 0 1147.96756487 0 14776
0.11650000 0.11649800 14246.53889766 0 85.39408721 0 4307.62153675 0 326.36009573 0 1456.54218524 0 14553
0.11750000 0.11747300 14333.34592423 0 -12.57738593 0 4600.61739610 0 511.07194005 0 832.66650717 0 14568
0.11850000 0.11849100 14234.80223335 0 170.52155283 0 4497.26831624 0 54.21840656 0 1113.59906864 0 16015
0.11950000 0.11950300 14182.20869046 0 298.90737357 0 4349.66315408 0 110.20008084 0 1129.07817873 0 15270
0.12050000 0.12050700 13901.63597956 0 254.78969533 0 4508.39600268 0 -135.17094139 0 1354.02352975 0 15999
0.12150000 0.12150000 13885.02749233 0 33.08122775 0 4643.06868945 0 88.05011649 0 1587.64958342 0 15670
0.12250000 0.12250700 13881.48434839 0 -175.12099656 0 4451.19637267 0 433.34421982 0 672.49536358 0 16887
0.12350000 0.12352200 13968.84499120 0 -177.07415466 0 4210.50617576 0 407.21242602 0 1445.07125673 0 16407
0.12450000 0.12449800 14277.20923740 0 -89.20905672 0 4206.55335580 0 410.45661719 0 595.76083089 0 16306
0.12550000 0.12549900 13925.22003142 0 87.26431359 0 3895.23279887 0 193.32722026 0 654.28249649 0 17523
0.12650000 0.12650100 13967.84848197 0 460.47141563 0 3651.84095471 0 142.01695982 0 564.59112929 0 17154
0.12750000 0.12750600 13453.87116389 0 200.96269546 0 3776.92500819 0 226.18102247 0 839.56788723 0 18007
0.12850000 0.12850300 13169.64458579 0 288.21372226 0 3577.61208913 0 437.65689034 0 644.97510024 0 17496
0.12950000 0.12949900 13275.82818081 0 78.38187318 0 2990.14775122 0 658.55641387 0 430.54070718 0 18405
0.13050000 0.13049000 12888.07536566 0 28.78162258 0 3047.30309194 0 158.10836948 0 920.93840233 0 18100
0.13150000 0.13148800 13201.86505102 0 190.90127390 0 3124.62113615 0 -277.03178143 0 347.86697945 0 19059
0.13250000 0.13249300 12770.15510634 0 129.47423027 0 2996.60291659 0 -286.34471383 0 922.08660241 0 18957
0.13350000 0.13349100 12819.20550528 0 208.37893862 0 3396.01488978 0 -594.92929930 0 535.61817694 0 19468
0.13450000 0.13450700 12649.90965881 0 261.17178336 0 3836.33910316 0 -504.59684450 0 -288.08749776 0 19953
0.13550000 0.13551000 12470.98088974 0 407.81586772 0 4007.12971349 0 -417.81971319 0 -472.72183581 0 19956
0.13650000 0.13649900 11958.11080414 0 529.03567983 0 3932.75690769 0 -403.28396517 0 -678.69032932 0 19723
0.13750000 0.13749600 11684.95655086 0 314.13514189 0 4216.56273744 0 -83.37416299 0 -392.57370538 0 20946
0.13850000 0.13851100 11436.38285868 0 156.84280275 0 3827.06049497 0 362.35068755 0 -879.91211718 0 20955
0.13950000 0.13949800 11301.30049590 0 130.82726836 0 3568.34455325 0 750.38363252 0 -698.85967621 0 20506
0.14050000 0.14048300 11169.87200030 0 184.00100107 0 3443.94698392 0 500.30964033 0 -784.76541554 0 21447
0.14150000 0.14148400 11099.45201445 0 148.22189065 0 3019.97659429 0 245.06376521 0 -528.11667687 0 21771
0.14250000 0.14249400 10916.06109848 0 158.66420019 0 3026.30996408 0 179.49456487 0 -739.12197094 0 22470
0.14350000 0.14350900 10850.73438205 0 113.33853131 0 3104.10411826 0 -166.56098225 0 -586.65827266 0 22519
0.14450000 0.14449900 10643.02864078 0 127.52993003 0 3069.11557183 0 -89.95544214 0 -685.78326060 0 22218
0.14550000 0.14550500 10532.95865976 0 192.35507014 0 3085.59119116 0 61.78910865 0 -809.75343819 0 23559
0.14650000 0.14650700 10561.94600613 0 151.55244596 0 2945.59271615 0 366.75858006 0 -489.32700134 0 23044
0.14750000 0.14750500 10370.33942514 0 -130.73093913 0 2476.11507152 0 647.40879724 0 -820.49470050 0 23649
0.14850000 0.14849900 10646.31712125 0 -77.96965052 0 2440.94936789 0 697.18886239 0 -359.94134967 0 23640
0.14950000 0.14949500 10442.97387595 0 41.79249003 0 2403.95673068 0 299.92492022 0 -358.22292486 0 24457
0.15050000 0.15050000 10489.20083207 0 186.07816920 0 2396.77079187 0 138.31658887 0 251.24655139 0 24591
0.15150000 0.15149900 10326.07227052 0 276.66418024 0 2523.59320034 0 -177.45504264 0 781.32856592 0 25020
0.15250000 0.15250500 10184.24686192 0 336.68060969 0 2776.57367780 0 -143.54494065 0 1044.32174671 0 25297
0.15350000 0.15350100 9817.19929418 0 425.63345282 0 3184.07952042 0 -129.70010569 0 1432.18307064 0 25452
0.15450000 0.15450400 9640.35212218 0 215.27810422 0 3116.25045858 0 160.67604161 0 1504.59607496 0 26061
0.15550000 0.15549900 9324.45869510 0 191.20133390 0 3171.46814245 0 624.18238147 0 1725.96506506 0 26128
0.15650000 0.15649500 9259.36449749 0 -3.91708957 0 2756.59920382 0 409.95504088 0 1720.24067312 0 26331
0.15750000 0.15749700 9259.12090634 0 -103.06330315 0 2610.43344389 0 472.39188053 0 1287.52314689 0 27345
0.15850000 0.15849900 9279.28360984 0 59.38951442 0 2574.19372476 0 -43.95746170 0 1176.24628246 0 26980
0.15950000 0.15949700 9151.77471723 0 236.90567628 0 2344.91909474 0 -143.85828744 0 1167.83131560 0 27777
0.16050000 0.16050000 9042.15870152 0 109.56342216 0 2446.14228823 0 -151.68752832 0 846.88890840 0 28224
0.16150000 0.16150500 8999.02092403 0 -102.77420475 0 2350.23381066 0 -1.53519998 0 794.03405865 0 28075
0.16250000 0.16249700 9116.49829036 0 125.00543997 0 2630.09789277 0 -254.95910190 0 295.89016506 0 28590
0.16350000 0.16349900 8942.29740398 0 155.47979957 0 2603.61289181 0 -338.80538882 0 208.13424024 0 29163
0.16450000 0.16449100 8842.50254039 0 231.03623690 0 2594.81039357 0 138.75173123 0 483.41327265 0 28996
0.16550000 0.16550500 8727.28392833 0 59.66853700 0 2640.55016740 0 66.50503324 0 502.21629466 0 30777
0.16650000 0.16650700 8735.72103984 0 -115.92281192 0 2449.65221520 0 400.21250227 0 -60.16967042 0 29211
0.16750000 0.16749900 8829.80258383 0 57.69113051 0 2554.11959987 0 205.34290716 0 -15.75658256 0 30922
0.16850000 0.16850800 8746.59406281 0 40.64716875 0 2392.14256009 0 -160.20214610 0 -265.80444406 0 30867
0.16950000 0.16949900 8678.29996333 0 163.76079130 0 2574.88020890 0 -266.73009042 0 -20.96101811 0 30852
0.17050000 0.17049200 8575.40484879 0 306.42548212 0 2472.51656595 0 -235.76633406 0 314.99878323 0 31257
0.17150000 0.17149500 8404.24885175 0 193.95612831 0 2556.25655856 0 65.27500867 0 281.88256693 0 32608
0.17250000 0.17250900 8201.20455922 0 108.17960301 0 2687.90650065 0 312.39567967 0 176.40206455 0 32361
0.17350000 0.17350400 8306.14805385 0 111.18164243 0 2657.12543765 0 165.11161493 0 262.91124559 0 32508
0.17450000 0.17449800 8139.14417861 0 30.02316236 0 2518.53314790 0 79.57192665 0 468.93399349 0 32791
0.17550000 0.17549800 8137.72692104 0 12.75631470 0 2542.72617763 0 275.64995529 0 560.41243391 0 33633
0.17650000 0.17650100 8146.07545395 0 40.88334144 0 2342.57176188 0 234.97466284 0 736.37603439 0 33984
0.17750000 0.17750300 8089.24121066 0 105.55789794 0 2352.86902396 0 196.83825446 0 502.53628485 0 34069
