### header ###
fiducial parameters:
Omega_m = 0.31
Omega_nu = 0
Omega_de = 0.69
Omega_k = 0
H_0 = 100
w_de = -1
zeff = 0
beta = 0
fgrowth = 0
b_1 = 2
gamma = 0.55
Lx = 3500 Ly = 3500 Lz = 3500
nx = 700 ny = 700 nz = 700
xoffset = -685.467585 yoffset = -31.7331281 zoffset = 572.489161
bins = 400 dk = 0.001
kx_ny = 0.628318531 ky_ny = 0.628318531 kz_ny = 0.628318531
############################
A(data) = 7.99483791 (not used)
A(ran) = 7.99918843 (used)
Ngal = 475045
weighted Ngal = 0
Nran = 23820508
weighted Nran = 0
SN(data) = 3482.77127
SN(ran) = 69.6758323
SN(data+ran) = 3552.4471
############################
13 columns: k_central k_mean P_0(k) sigma^{lin}_{P_0(k)} P^img_1(k) sigma^{lin}_{P_1(k)} P_2(k) sigma^{lin}_{P_2(k)} P^img_3(k) sigma^{lin}_{P_3(k)} P_4(k) sigma^{lin}_{P_4(k)} N_modes
### header ###
0.00050000 0 0 0 0 0 0 0 0 0 0 0 0
0.00150000 0.00179520 17653.38252111 0 -17083.48996269 0 26998.86756104 0 -58299.66548386 0 35978.41226571 0 3
0.00250000 0.00253879 26163.90354646 0 -11659.93309677 0 -10263.35862275 0 -665.28063673 0 -29207.57491586 0 6
0.00350000 0.00331552 38536.56219181 0 -3817.28363215 0 14477.50759337 0 17046.95129079 0 46538.19916850 0 7
0.00450000 0.00420575 48147.34013439 0 -3297.21653542 0 17396.17241557 0 -8870.06155687 0 -1563.94373598 0 24
0.00550000 0.00557378 52214.98010302 0 3885.04626004 0 43549.66797670 0 17683.49924461 0 8492.32919568 0 45
0.00650000 0.00659388 63900.71171662 0 -1351.97514966 0 3810.68452656 0 -11013.20967644 0 -52506.73586199 0 40
0.00750000 0.00754703 64124.26195471 0 387.41178754 0 39694.83809109 0 4299.62731823 0 -12988.83352151 0 57
0.00850000 0.00846663 65492.02623956 0 -2007.09139220 0 38891.65164874 0 -15619.17500542 0 -21752.91078521 0 75
0.00950000 0.00948925 64119.27940854 0 -2551.31830169 0 43701.02665697 0 5047.76216157 0 -6252.75219926 0 112
0.01050000 0.01054430 70898.42100200 0 4147.79252799 0 39968.21379086 0 10459.26126576 0 -16251.29402932 0 105
0.01150000 0.01145670 64656.39788549 0 2468.23157625 0 26752.95122681 0 17022.14928319 0 -9628.17256488 0 144
0.01250000 0.01249090 62463.63467841 0 -278.75242070 0 17498.14852715 0 16487.35599445 0 -29274.78392751 0 169
0.01350000 0.01339930 59124.22151310 0 5079.73903565 0 8094.31233542 0 8634.55320797 0 -25713.37064959 0 180
0.01450000 0.01448870 57200.07290612 0 407.98195259 0 9302.91195100 0 -13421.09708243 0 -22524.54110182 0 267
0.01550000 0.01550050 57747.37792191 0 1954.95181463 0 19053.36727117 0 -16843.33123737 0 -6133.56969491 0 238
0.01650000 0.01653350 61417.29998305 0 1331.77922919 0 22648.99403278 0 -12750.55709141 0 -22575.80596573 0 315
0.01750000 0.01747870 56183.52276452 0 -1037.61966850 0 22961.78720891 0 11763.90222682 0 -16518.13705745 0 297
0.01850000 0.01844180 57054.13966501 0 -388.86669103 0 18387.69910308 0 -4358.47672464 0 -26459.64534237 0 388
0.01950000 0.01947590 60775.32659006 0 -945.66401088 0 19548.52163706 0 16317.61725498 0 -19013.83907157 0 399
0.02050000 0.02045430 59283.55226724 0 -806.13168075 0 14812.55614239 0 5390.14058961 0 -15518.52757282 0 462
0.02150000 0.02154770 56798.47968495 0 1810.31403552 0 11751.61194627 0 2938.09675225 0 -7304.29088729 0 571
0.02250000 0.02255340 59346.88596521 0 2754.76119790 0 24217.16739685 0 -2045.68951652 0 5511.29396778 0 510
0.02350000 0.02348930 53862.65275928 0 5964.18526984 0 25952.53286567 0 4063.82001656 0 7031.28057423 0 555
0.02450000 0.02439640 59187.55521107 0 -558.35076702 0 33071.37338457 0 -941.90827830 0 19025.79718238 0 592
0.02550000 0.02547300 61711.60237673 0 -7612.48904861 0 33266.68919437 0 6229.74390829 0 21774.05892561 0 837
0.02650000 0.02652900 69095.07145879 0 -7073.88688014 0 33018.89056493 0 8576.87746799 0 18981.28643661 0 723
0.02750000 0.02749970 70919.56914241 0 3442.76224516 0 41951.82078212 0 5810.84464342 0 13445.34547378 0 826
0.02850000 0.02848090 70419.87512334 0 5500.02234112 0 35865.03165957 0 1916.17653311 0 20532.29769720 0 831
0.02950000 0.02946900 64147.40311358 0 4387.32013079 0 29259.50411926 0 -602.22485412 0 15115.05205643 0 996
0.03050000 0.03053250 61720.68168308 0 2599.59363790 0 22260.57687814 0 7806.32116689 0 11852.48082537 0 1041
0.03150000 0.03150510 60250.16622391 0 -2700.09713028 0 22538.04933810 0 6901.28040854 0 15500.36896012 0 1036
0.03250000 0.03246190 63436.22769048 0 1498.81632140 0 17871.28587354 0 6199.46109991 0 10141.55197742 0 1059
0.03350000 0.03345080 59444.98676310 0 3058.41970606 0 18797.70729111 0 1760.55500779 0 15527.38543268 0 1302
0.03450000 0.03451200 57908.81241776 0 2949.98842911 0 21722.12972221 0 3065.05202862 0 9225.59390679 0 1339
0.03550000 0.03553350 54001.83188225 0 2681.60634783 0 25600.32221319 0 2725.45275411 0 22372.29663556 0 1365
0.03650000 0.03647120 55650.61177100 0 1297.54360085 0 26037.34687378 0 4792.16861546 0 20679.33817079 0 1308
0.03750000 0.03744890 51637.89053347 0 505.47709432 0 27986.40821161 0 2077.99856034 0 20411.60935668 0 1579
0.03850000 0.03847530 52920.06574747 0 2236.50996244 0 29452.38401760 0 4314.69675230 0 17572.55454993 0 1662
0.03950000 0.03950240 48908.67318892 0 4156.07462695 0 27315.97894384 0 -547.81877166 0 19885.56320454 0 1683
0.04050000 0.04050350 49966.85527184 0 -990.37184403 0 24934.32187535 0 -3438.47725546 0 17107.84907729 0 1822
0.04150000 0.04152450 48985.18295342 0 -2742.78094245 0 25517.50122355 0 3425.47834612 0 8382.03776816 0 1887
0.04250000 0.04250150 48600.64111247 0 1686.60295033 0 22496.08522704 0 6198.88533902 0 7657.26553018 0 1920
0.04350000 0.04349210 48400.56420300 0 1665.89770291 0 17565.35753880 0 4741.40200617 0 79.57923438 0 2005
0.04450000 0.04448520 45833.88858679 0 443.25837946 0 12967.79610435 0 8363.89022778 0 409.81663682 0 2151
0.04550000 0.04548030 43866.00429677 0 1783.61866039 0 11108.86349055 0 4453.47727158 0 896.95463954 0 2274
0.04650000 0.04648670 42883.88908535 0 2218.62815786 0 10171.03757841 0 1762.47051998 0 1968.44897858 0 2311
0.04750000 0.04749250 41434.74321309 0 1728.48955511 0 9976.00964905 0 1181.36169653 0 7154.71485131 0 2568
0.04850000 0.04851840 39966.66366539 0 1222.79433600 0 10267.25608108 0 -2896.83019765 0 3637.92304241 0 2493
0.04950000 0.04949480 38216.35055805 0 1602.44220938 0 12973.77515975 0 -1756.87899595 0 7830.04915898 0 2644
0.05050000 0.05050630 37668.71337252 0 683.46250131 0 11826.68230854 0 -500.61412926 0 2202.97189057 0 2829
0.05150000 0.05149060 37281.84634336 0 -96.63891885 0 12806.25088525 0 1409.06405642 0 5284.08986250 0 2784
0.05250000 0.05249300 38327.84886898 0 160.30290426 0 11035.74185745 0 1908.75807549 0 544.93885997 0 3055
0.05350000 0.05348950 37875.98729313 0 613.57952322 0 10412.29246388 0 1760.33356129 0 1760.62144174 0 3009
0.05450000 0.05448610 36632.12232300 0 968.87160370 0 10013.82163831 0 -715.09502609 0 2703.13094728 0 3336
0.05550000 0.05550870 36695.78819071 0 -279.58173783 0 11636.57049140 0 3049.81650967 0 -94.60515422 0 3349
0.05650000 0.05647670 35884.74039774 0 191.92657117 0 10203.61235802 0 1067.97223252 0 3340.94114613 0 3324
0.05750000 0.05747970 36594.14424887 0 1217.13637801 0 12816.54814733 0 -1293.51327461 0 3339.01456161 0 3639
0.05850000 0.05849280 35308.64733743 0 1052.20856368 0 14893.60556006 0 -2856.71516483 0 6185.31066879 0 3846
0.05950000 0.05951020 35400.65835667 0 1088.71069691 0 15796.22147927 0 -1994.65717143 0 3103.74980386 0 3787
0.06050000 0.06049470 34392.52318193 0 212.98502575 0 17160.11045043 0 -887.85540300 0 3194.33249321 0 3930
0.06150000 0.06148310 34090.58088413 0 -94.61821957 0 15405.03624343 0 680.97787162 0 929.20832173 0 4083
0.06250000 0.06249100 33429.12019946 0 676.29206376 0 15723.80847496 0 2853.85850503 0 817.08885339 0 4303
0.06350000 0.06350600 33871.23812947 0 1335.47738568 0 14493.23029462 0 1039.13879146 0 -3357.37247616 0 4470
0.06450000 0.06451750 31433.44437415 0 1263.80622713 0 12330.80525753 0 1594.08260414 0 -1845.49081147 0 4479
0.06550000 0.06550280 29930.48700327 0 1794.21487524 0 10362.87667822 0 1054.56475440 0 -1940.98961303 0 4636
0.06650000 0.06648880 29264.70811192 0 485.67424138 0 11237.52390494 0 -686.58711138 0 -704.51320526 0 4653
0.06750000 0.06749660 29176.12951337 0 797.16199041 0 11648.86077195 0 370.09134983 0 -3110.33783713 0 5220
0.06850000 0.06852730 27981.31494219 0 1186.11172387 0 12406.65068254 0 -617.16252753 0 -1266.26428323 0 5029
0.06950000 0.06949320 27501.55110780 0 648.32447850 0 12189.19022310 0 749.42698365 0 -1647.97160903 0 5040
0.07050000 0.07048030 27461.80146170 0 -342.83128613 0 11703.11516356 0 942.89703691 0 -922.37780455 0 5475
0.07150000 0.07148790 27829.51336893 0 -406.31113878 0 11353.11897605 0 1196.33147968 0 -1392.10125480 0 5509
0.07250000 0.07249820 28128.13396929 0 -340.24811275 0 10125.18708133 0 1409.24121362 0 -638.42471288 0 5916
0.07350000 0.07351270 28145.62824250 0 515.12773263 0 10439.50823829 0 482.39683323 0 -312.38571457 0 5721
0.07450000 0.07449140 27732.63052677 0 686.98903677 0 9909.28781970 0 459.00322536 0 331.65709592 0 6028
0.07550000 0.07549160 27204.81280266 0 325.17978590 0 9290.99812950 0 1536.08576674 0 257.29979137 0 6183
0.07650000 0.07648840 26941.40219523 0 318.21418636 0 9585.03478738 0 2167.28578768 0 1945.48497691 0 6330
0.07750000 0.07749960 26787.71832674 0 141.13117384 0 9133.56074290 0 1423.17019824 0 1794.66884056 0 6583
0.07850000 0.07848650 26924.46153825 0 201.66135915 0 9326.39635194 0 646.43996882 0 2236.44352849 0 6549
0.07950000 0.07947320 26076.65362689 0 721.60555308 0 8045.23979183 0 126.59764028 0 1045.79215145 0 6828
0.08050000 0.08048110 25941.90343385 0 946.66052011 0 8950.81202177 0 -518.08847229 0 2524.54542028 0 7147
0.08150000 0.08149960 24927.01414097 0 592.90970725 0 9151.22110099 0 -430.47648769 0 1502.28195907 0 7386
0.08250000 0.08250610 24619.53568076 0 82.14004167 0 8242.21645035 0 -635.16502045 0 553.25196145 0 7227
0.08350000 0.08350160 24319.25423167 0 492.98640469 0 8884.62166400 0 883.33789447 0 -685.61939019 0 7798
0.08450000 0.08449610 23731.20306056 0 1055.95100947 0 8818.74133133 0 -811.17401747 0 -718.51637446 0 7371
0.08550000 0.08548940 22831.79811554 0 1081.68198511 0 8499.98017213 0 489.97473234 0 -345.35245449 0 8256
0.08650000 0.08650700 21690.68431973 0 861.39365392 0 8343.89360916 0 351.06023793 0 -266.65258414 0 8037
0.08750000 0.08749060 21325.62977046 0 158.10836948 0 7750.23984168 0 1824.20980317 0 -117.34782013 0 8155
0.08850000 0.08849210 20860.37068158 0 354.17045397 0 6983.75815611 0 1261.44782194 0 -1182.77895410 0 8718
0.08950000 0.08949900 20823.94273292 0 216.78836932 0 6935.68212175 0 1651.55904227 0 -481.88197013 0 8571
0.09050000 0.09049190 19788.12674614 0 372.29806417 0 5523.18564464 0 660.79523794 0 -251.09928947 0 8932
0.09150000 0.09150830 19697.11223613 0 425.22931296 0 5758.71613818 0 66.19534031 0 -486.92984301 0 9285
0.09250000 0.09250820 19234.06761222 0 511.08633407 0 6108.70125337 0 -324.11684272 0 164.97763980 0 9204
0.09350000 0.09350330 19069.53286541 0 425.74417607 0 6460.19220474 0 -611.51785634 0 -272.32161445 0 9349
0.09450000 0.09448040 18962.90637741 0 216.58353131 0 6870.46612857 0 103.39181903 0 184.18701613 0 9564
0.09550000 0.09549270 18916.40261317 0 -230.89118944 0 7183.51396817 0 -26.51921445 0 114.14016763 0 10155
0.09650000 0.09649430 19017.27149227 0 281.82388361 0 7792.45861622 0 698.84085325 0 969.44736459 0 9913
0.09750000 0.09749140 18775.34119498 0 571.45264898 0 7512.22914738 0 233.50425810 0 480.94303699 0 10476
0.09850000 0.09850240 18349.49958245 0 384.74889343 0 6845.08836008 0 777.75552670 0 1174.54114444 0 10575
0.09950000 0.09950330 17881.36168912 0 453.26554664 0 6411.29681834 0 533.58197641 0 693.68336435 0 10882
0.10050000 0.10051200 17391.85420889 0 403.48105255 0 5480.31360294 0 235.18282254 0 -431.85167044 0 10875
0.10150000 0.10150300 17163.21070138 0 154.63498118 0 4965.30655865 0 61.21799814 0 -775.05498668 0 11118
0.10250000 0.10250800 16646.13313235 0 189.22603115 0 5480.25824131 0 -446.87127905 0 -1179.82264338 0 11575
0.10350000 0.10349800 16560.10116851 0 386.76073485 0 4787.31893719 0 -30.35156752 0 -722.91762357 0 11364
0.10450000 0.10450100 17002.88343801 0 -155.51744547 0 5373.48781309 0 -416.21976226 0 -1026.50305438 0 12093
0.10550000 0.10551000 16688.20796666 0 -212.87540973 0 5682.95929177 0 151.82593238 0 484.72645038 0 12067
0.10650000 0.10649700 17285.22772089 0 143.63905541 0 6451.86581647 0 772.79623241 0 -427.01638619 0 12054
0.10750000 0.10749900 17114.60319543 0 65.36569101 0 6221.49502630 0 224.03188422 0 799.68094431 0 12807
0.10850000 0.10850100 16779.77609291 0 463.58495337 0 6015.97053301 0 739.54825545 0 1027.32683535 0 12736
0.10950000 0.10950300 16599.62936811 0 275.70531691 0 5753.44571156 0 397.52414180 0 2055.67675351 0 12933
0.11050000 0.11050200 15992.20162856 0 97.89529554 0 4718.43800449 0 1338.76586615 0 1065.60164778 0 13428
0.11150000 0.11150900 15856.67637278 0 92.74821463 0 4919.07960253 0 1065.07792682 0 370.13231743 0 13453
0.11250000 0.11250000 15638.55157386 0 409.90964434 0 3884.71409030 0 5.97906647 0 -195.01796426 0 13668
0.11350000 0.11349100 15071.09492690 0 673.00690499 0 4052.18300318 0 -480.42817388 0 -40.08890213 0 13791
0.11450000 0.11448600 14590.33458327 0 359.92031225 0 4244.08853694 0 -691.89407666 0 853.49133569 0 14205
0.11550000 0.11549300 14588.34156481 0 124.51272152 0 4537.19511954 0 310.70493567 0 223.46387395 0 14776
0.11650000 0.11649800 14557.44977856 0 164.03870665 0 4733.47422160 0 454.85331801 0 1239.14815975 0 14553
0.11750000 0.11747300 14538.73754962 0 -20.27829857 0 4583.67673912 0 -79.52719446 0 791.24383280 0 14568
0.11850000 0.11849100 14443.40483293 0 161.15547327 0 4248.72784104 0 725.87614876 0 1698.98180947 0 16015
0.11950000 0.11950300 14178.11193028 0 231.23332428 0 4349.47492456 0 427.22122420 0 1454.41629888 0 15270
0.12050000 0.12050700 13965.52329376 0 303.96188985 0 3957.43711971 0 711.04366244 0 1675.13202181 0 15999
0.12150000 0.12150000 13856.01800130 0 178.87340745 0 3959.90624814 0 599.07034878 0 1588.60180336 0 15670
0.12250000 0.12250700 13662.58448672 0 140.73921354 0 3183.84700160 0 67.85530325 0 709.79359696 0 16887
0.12350000 0.12352200 13489.74549630 0 222.24702546 0 3148.05017546 0 -372.24159531 0 734.47380899 0 16407
0.12450000 0.12449800 13305.05911833 0 204.46708626 0 3581.71992163 0 -630.68737230 0 176.23265798 0 16306
0.12550000 0.12549900 13037.99464370 0 421.43704171 0 3550.71741214 0 -571.43714773 0 506.58875573 0 17523
0.12650000 0.12650100 12944.76566873 0 252.06811789 0 3651.61950822 0 74.07584606 0 -11.06761908 0 17154
0.12750000 0.12750600 12620.78944453 0 2.51880996 0 3264.04385026 0 901.98147500 0 -28.19490009 0 18007
0.12850000 0.12850300 12712.57901728 0 -42.85543321 0 2777.78056120 0 496.66130930 0 -549.69442348 0 17496
0.12950000 0.12949900 12611.26724519 0 -16.29370103 0 2768.81197810 0 726.08984463 0 -761.83463084 0 18405
0.13050000 0.13049000 12481.27815182 0 304.62844381 0 2764.43840980 0 178.68185623 0 -140.60634564 0 18100
0.13150000 0.13148800 12338.88805465 0 65.12785748 0 2703.13094728 0 -345.54068401 0 173.41364408 0 19059
0.13250000 0.13249300 12497.00085306 0 76.65791220 0 3275.04974113 0 -466.02197206 0 -98.20598498 0 18957
0.13350000 0.13349100 12477.07066839 0 207.34146179 0 3869.77752412 0 -712.33912444 0 22.32125322 0 19468
0.13450000 0.13450700 12222.40719756 0 288.38534330 0 4324.11930073 0 -619.43124689 0 -268.99991700 0 19953
0.13550000 0.13551000 12170.81016390 0 280.20178802 0 4518.71540941 0 -22.88129141 0 -137.19164067 0 19956
0.13650000 0.13649900 11948.92077454 0 70.07707595 0 4353.29487662 0 -79.75395567 0 -575.28478060 0 19723
0.13750000 0.13749600 11969.29385220 0 101.87181028 0 4135.82334486 0 377.64488982 0 -146.98179027 0 20946
0.13850000 0.13851100 11779.29275832 0 214.19633808 0 3815.56742180 0 826.87900299 0 -297.10590632 0 20955
0.13950000 0.13949800 11514.33202541 0 160.33501400 0 3580.36909801 0 556.26141933 0 -45.47658466 0 20506
0.14050000 0.14048300 11300.41470991 0 181.68356348 0 2947.60787927 0 809.36258513 0 183.69983383 0 21447
0.14150000 0.14148400 11089.70836861 0 183.35437730 0 3192.51663193 0 266.33259396 0 95.78623911 0 21771
0.14250000 0.14249400 11078.63604379 0 218.63191140 0 2959.35561590 0 -40.40424194 0 281.88810309 0 22470
0.14350000 0.14350900 10785.85055861 0 156.94023921 0 2663.01591446 0 -38.65082858 0 43.15538249 0 22519
0.14450000 0.14449900 10830.06235161 0 162.33024693 0 2875.73741887 0 -99.72411143 0 456.75000726 0 22218
0.14550000 0.14550500 10693.51844195 0 -26.08506859 0 2955.74603801 0 -285.72909257 0 -356.92192669 0 23559
0.14650000 0.14650700 10770.59289501 0 121.00611625 0 2892.87737769 0 -27.71015371 0 -656.99632330 0 23044
0.14750000 0.14750500 10461.94076837 0 181.61823677 0 3151.60439173 0 -383.34049371 0 -962.83718667 0 23649
0.14850000 0.14849900 10277.27653504 0 371.28162475 0 2963.06484472 0 -81.08363116 0 -871.29674123 0 23640
0.14950000 0.14949500 10085.61459243 0 337.44460010 0 3140.05595694 0 116.86838846 0 -676.73495675 0 24457
0.15050000 0.15050000 9799.81574421 0 62.25004953 0 2955.79032731 0 325.22518243 0 -356.91749776 0 24591
0.15150000 0.15149900 9822.49186544 0 82.79386245 0 3042.07695462 0 415.93963244 0 -405.12307832 0 25020
0.15250000 0.15250500 9680.38964872 0 142.75769835 0 2792.46246391 0 382.63740108 0 -10.71556344 0 25297
0.15350000 0.15350100 9632.26932506 0 147.75353131 0 2877.55328014 0 405.66562224 0 164.44948990 0 25452
0.15450000 0.15450400 9499.44571653 0 103.12519745 0 2749.52398827 0 104.15857752 0 366.42530308 0 26061
0.15550000 0.15549900 9478.79583075 0 -12.35394642 0 2667.34519346 0 440.94426358 0 722.56552364 0 26128
0.15650000 0.15649500 9468.35462844 0 -61.51019679 0 2489.47936757 0 223.18263690 0 539.79465786 0 26331
0.15750000 0.15749700 9625.14982020 0 62.54036589 0 2463.48154890 0 136.13201918 0 492.72841952 0 27345
0.15850000 0.15849900 9324.58049067 0 357.00607636 0 2577.86973660 0 -50.13648329 0 467.32629192 0 26980
0.15950000 0.15949700 9125.69939228 0 289.07182744 0 2328.18881194 0 -133.59313510 0 703.30742909 0 27777
0.16050000 0.16050000 8988.30291361 0 69.09872533 0 2573.77297642 0 -9.36223747 0 407.68410706 0 28224
0.16150000 0.16150500 8942.69600768 0 110.09699749 0 2714.26970604 0 -227.29932727 0 122.91387781 0 28075
0.16250000 0.16249700 8870.77018566 0 173.83328519 0 2685.61452941 0 -406.06754763 0 226.93504779 0 28590
0.16350000 0.16349900 8751.83127245 0 187.83645439 0 2884.75029128 0 -220.30272522 0 -2.48986690 0 29163
0.16450000 0.16449100 8644.69545751 0 138.53139197 0 2787.34704985 0 -263.61987437 0 74.27791598 0 28996
0.16550000 0.16550500 8611.32347051 0 159.24992617 0 2950.51990070 0 349.36285054 0 -91.98522073 0 30777
0.16650000 0.16650700 8510.55424233 0 -122.90612718 0 2758.55900532 0 302.44608858 0 34.96020128 0 29211
0.16750000 0.16749900 8573.94330192 0 -137.81501255 0 2580.06205692 0 592.78680444 0 -231.18239159 0 30922
0.16850000 0.16850800 8674.69038544 0 -11.42132450 0 2432.98836635 0 178.47591098 0 153.66172383 0 30867
0.16950000 0.16949900 8503.74476257 0 155.10776945 0 2554.63999913 0 394.35302797 0 -99.55769439 0 30852
0.17050000 0.17049200 8508.87124896 0 109.23911377 0 2298.98001907 0 20.81685645 0 461.77794996 0 31257
0.17150000 0.17149500 8439.69136349 0 144.05205312 0 2185.65477455 0 -15.67464735 0 429.89961957 0 32608
0.17250000 0.17250900 8426.44886301 0 14.46211706 0 2378.47931127 0 -97.39659803 0 188.73774163 0 32361
0.17350000 0.17350400 8336.84053825 0 72.18491442 0 2322.04367167 0 -121.23420614 0 338.59058572 0 32508
0.17450000 0.17449800 8426.37135673 0 171.14935365 0 2182.01197969 0 -32.99353494 0 314.75851378 0 32791
0.17550000 0.17549800 8171.96254938 0 -17.84271928 0 2205.97249059 0 272.94941527 0 644.65843175 0 33633
0.17650000 0.17650100 8361.11107425 0 -53.03521793 0 2254.69071980 0 395.24877905 0 300.76752414 0 33984
0.17750000 0.17750300 8353.55974873 0 131.46281980 0 2409.14965102 0 -28.67942502 0 255.26359083 0 34069
0.17850000 0.17849800 8118.37249725 0 355.00087834 0 2284.82958795 0 -19.11348999 0 312.36799885 0 34536
