### header ###
fiducial parameters:
Omega_m = 0.31
Omega_nu = 0
Omega_de = 0.69
Omega_k = 0
H_0 = 100
w_de = -1
zeff = 0
beta = 0
fgrowth = 0
b_1 = 2
gamma = 0.55
Lx = 3500 Ly = 3500 Lz = 3500
nx = 700 ny = 700 nz = 700
xoffset = -685.467585 yoffset = -31.7331281 zoffset = 572.489161
bins = 400 dk = 0.001
kx_ny = 0.628318531 ky_ny = 0.628318531 kz_ny = 0.628318531
############################
A(data) = 8.02403971 (not used)
A(ran) = 8.01421915 (used)
Ngal = 476311
weighted Ngal = 0
Nran = 23820508
weighted Nran = 0
SN(data) = 3501.36154
SN(ran) = 69.8067553
SN(data+ran) = 3571.1683
############################
13 columns: k_central k_mean P_0(k) sigma^{lin}_{P_0(k)} P^img_1(k) sigma^{lin}_{P_1(k)} P_2(k) sigma^{lin}_{P_2(k)} P^img_3(k) sigma^{lin}_{P_3(k)} P_4(k) sigma^{lin}_{P_4(k)} N_modes
### header ###
0.00050000 0 0 0 0 0 0 0 0 0 0 0 0
0.00150000 0.00179520 41116.74604430 0 -32458.74165236 0 48275.22548605 0 -43377.82549551 0 5893.86493491 0 3
0.00250000 0.00253879 85813.17470247 0 -48045.58546931 0 -10485.46945861 0 -27968.80321515 0 -44016.36646781 0 6
0.00350000 0.00331552 95537.00108145 0 -40638.42161213 0 -61859.19646656 0 45041.99591576 0 84544.28627825 0 7
0.00450000 0.00420575 106572.12288870 0 -18417.81582658 0 -55885.89867339 0 -77536.72262378 0 -11370.50252601 0 24
0.00550000 0.00557378 99698.97725753 0 13467.37940017 0 -29400.01192121 0 -75053.08944370 0 1341.53394735 0 45
0.00650000 0.00659388 81899.32932557 0 18078.55979414 0 -39784.74536862 0 -58667.70956083 0 27684.46591381 0 40
0.00750000 0.00754703 56942.86280058 0 21163.75238161 0 -1198.29128117 0 -61185.66694784 0 -7269.74523385 0 57
0.00850000 0.00846663 55127.22297682 0 12644.26277315 0 -7569.15196927 0 1405.32161063 0 39978.40032969 0 75
0.00950000 0.00948925 44842.69406902 0 8293.81348401 0 9825.71391196 0 12956.72377953 0 12911.10580128 0 112
0.01050000 0.01054430 50628.75884950 0 -7346.54287880 0 17303.71850333 0 19214.02670429 0 12892.06140259 0 105
0.01150000 0.01145670 60009.23243586 0 -10432.68768620 0 35071.47813981 0 19658.13765277 0 23872.81809499 0 144
0.01250000 0.01249090 65090.98663462 0 -429.34378887 0 40920.32300202 0 12903.46589715 0 26480.23986653 0 169
0.01350000 0.01339930 69751.21742754 0 1888.19676830 0 54482.70294913 0 9543.94538998 0 51175.28880255 0 180
0.01450000 0.01448870 73392.68361390 0 -1396.18694266 0 66071.66244381 0 17231.96983851 0 47623.39772398 0 267
0.01550000 0.01550050 72588.83283207 0 4342.75402340 0 55975.14161143 0 27247.55197646 0 61693.55448727 0 238
0.01650000 0.01653350 76221.99477481 0 -498.44395359 0 54320.82556028 0 22001.81664713 0 36354.76058630 0 315
0.01750000 0.01747870 70504.13551521 0 -710.16784154 0 35322.04485046 0 20647.67132181 0 49646.09002185 0 297
0.01850000 0.01844180 73987.26745666 0 -1949.39350757 0 30127.24221530 0 16166.81219095 0 18144.21868032 0 388
0.01950000 0.01947590 75493.10363200 0 2311.22601032 0 20292.91403462 0 14409.63424223 0 26022.50995853 0 399
0.02050000 0.02045430 70571.56597336 0 4225.53132054 0 15699.11719061 0 -2794.43333773 0 15585.18296823 0 462
0.02150000 0.02154770 67012.47788365 0 3777.06894841 0 20657.74713740 0 3746.80828468 0 21734.53072601 0 571
0.02250000 0.02255340 67828.72966928 0 1118.42660226 0 21914.23455782 0 912.28316602 0 17299.40029665 0 510
0.02350000 0.02348930 68389.32147485 0 1632.48142661 0 33242.10863328 0 9945.69362370 0 22972.41664073 0 555
0.02450000 0.02439640 62679.76645887 0 2027.55304847 0 22200.78632412 0 6337.54406272 0 22348.60186045 0 592
0.02550000 0.02547300 64209.29740932 0 2956.52110075 0 24136.78231866 0 8213.29553792 0 24736.45943084 0 837
0.02650000 0.02652900 57657.80281412 0 1822.82576257 0 12858.29081189 0 5419.92514338 0 12896.04743953 0 723
0.02750000 0.02749970 63531.44968392 0 1021.02889699 0 21591.36556610 0 -391.90272249 0 4289.73973216 0 826
0.02850000 0.02848090 58650.10456437 0 -662.22246061 0 19920.21958123 0 -11960.65743885 0 -4435.65082862 0 831
0.02950000 0.02946900 61265.05551679 0 3534.17535886 0 23559.80347236 0 -11985.79161618 0 -3687.22810483 0 996
0.03050000 0.03053250 57698.65969270 0 3679.11209074 0 29013.47706179 0 -13435.82327443 0 -11667.13010790 0 1041
0.03150000 0.03150510 56510.70996291 0 3392.20601004 0 39350.82095897 0 -5923.94844145 0 -16069.15428605 0 1036
0.03250000 0.03246190 55192.43897000 0 2163.99730721 0 34752.92735478 0 3866.27866947 0 -17142.83762372 0 1059
0.03350000 0.03345080 53581.52643214 0 -1362.63779846 0 33192.06172510 0 11471.92502135 0 -13601.02236073 0 1302
0.03450000 0.03451200 54670.37885480 0 -2913.70442068 0 25596.22545301 0 12374.98383356 0 -19159.77231268 0 1339
0.03550000 0.03553350 58684.87166430 0 -2800.52311638 0 20883.40111720 0 8216.76117559 0 -23435.79343439 0 1365
0.03650000 0.03647120 55408.01713422 0 1048.10737457 0 11641.11014458 0 4445.79307816 0 -20983.82710331 0 1308
0.03750000 0.03744890 52747.78037329 0 3721.37515457 0 10959.16565900 0 -1120.28675283 0 -17619.39048391 0 1579
0.03850000 0.03847530 50464.55627244 0 2317.37115059 0 10736.93302756 0 -1479.24045112 0 -18522.00640313 0 1662
0.03950000 0.03950240 49395.52331120 0 -1412.52969409 0 11737.21792401 0 -1179.21366551 0 -20702.92222266 0 1683
0.04050000 0.04050350 48838.91754257 0 2579.37557278 0 13908.94371394 0 -300.40324465 0 -13050.94926374 0 1822
0.04150000 0.04152450 47711.09053654 0 4395.91225485 0 15744.84589212 0 1150.55848888 0 -8442.92448234 0 1887
0.04250000 0.04250150 47418.78116133 0 860.73263612 0 16952.50436008 0 4057.96275673 0 -1335.68775985 0 1920
0.04350000 0.04349210 44383.74620529 0 657.85775017 0 16091.40965894 0 5139.87283174 0 2853.38239506 0 2005
0.04450000 0.04448520 46120.55107634 0 -81.02096180 0 15660.25333050 0 4065.89054130 0 2880.96355619 0 2151
0.04550000 0.04548030 43888.48111615 0 2204.17877397 0 15986.55474291 0 1398.70036039 0 5356.49179449 0 2274
0.04650000 0.04648670 43030.92955895 0 1813.31463555 0 16013.46049222 0 -2092.92405419 0 6508.60040885 0 2311
0.04750000 0.04749250 40631.77821724 0 1984.22704145 0 14884.19408396 0 -2384.61337922 0 5444.12924543 0 2568
0.04850000 0.04851840 38487.06889987 0 2639.13290982 0 17544.76301463 0 -3100.21773225 0 1205.94225762 0 2493
0.04950000 0.04949480 38205.94257272 0 1937.46861374 0 19588.60345291 0 -1216.04021786 0 2109.75398792 0 2644
0.05050000 0.05050630 35804.79821255 0 298.37700921 0 16864.81154752 0 1463.05271224 0 2080.67806295 0 2829
0.05150000 0.05149060 36566.24199033 0 -612.91961266 0 17896.64149737 0 4178.01997474 0 2143.10383027 0 2784
0.05250000 0.05249300 36056.58287893 0 251.05942910 0 16230.69950516 0 3441.64394035 0 -30.89920470 0 3055
0.05350000 0.05348950 36115.93053996 0 1208.57747093 0 15740.30623894 0 4687.40227803 0 2784.37966679 0 3009
0.05450000 0.05448610 34686.71485237 0 774.84682697 0 12648.02736359 0 3469.38011403 0 7349.17809210 0 3336
0.05550000 0.05550870 34573.33424622 0 -1236.07005345 0 10562.11209100 0 3513.65834097 0 4695.02003750 0 3349
0.05650000 0.05647670 36505.67637357 0 -895.60049421 0 11876.17560048 0 1230.21279363 0 4167.91094218 0 3324
0.05750000 0.05747970 35989.37386728 0 516.53059618 0 11528.17243143 0 -780.49924879 0 2699.93104540 0 3639
0.05850000 0.05849280 34168.08715786 0 1931.81065576 0 12003.95022889 0 -2245.33460532 0 647.58152551 0 3846
0.05950000 0.05951020 33390.69923234 0 2425.99065706 0 11923.56515070 0 -2368.56958056 0 -2084.45372571 0 3787
0.06050000 0.06049470 31032.07259948 0 1825.84850724 0 13325.76436574 0 -804.75317631 0 -2442.66557824 0 3930
0.06150000 0.06148310 29988.61670857 0 835.47666321 0 11438.92949339 0 -958.39829165 0 -2267.39067636 0 4083
0.06250000 0.06249100 29986.40224360 0 -414.66077892 0 11383.01425306 0 3341.40618377 0 -1068.63546478 0 4303
0.06350000 0.06350600 31101.27462959 0 -796.85085808 0 11053.13647974 0 2638.54607661 0 -914.41680301 0 4470
0.06450000 0.06451750 31229.15998125 0 -191.37959833 0 10307.32682460 0 1684.82030603 0 827.59981134 0 4479
0.06550000 0.06550280 31298.91562760 0 1009.82148981 0 10927.84205209 0 1066.00468040 0 2629.87644628 0 4636
0.06650000 0.06648880 30646.31280279 0 575.22056112 0 11400.61924952 0 -227.88173156 0 5587.02866954 0 4653
0.06750000 0.06749660 29627.76964273 0 1063.92197610 0 13025.48291666 0 331.42014817 0 5112.23630899 0 5220
0.06850000 0.06852730 28816.61112651 0 1602.77437912 0 12350.18182597 0 1227.88760541 0 5309.71122213 0 5029
0.06950000 0.06949320 27597.76961048 0 1421.22146907 0 12010.15073079 0 1710.51917193 0 6303.05377091 0 5040
0.07050000 0.07048030 26315.59439648 0 352.53728606 0 9561.68325434 0 1555.40697355 0 4352.69697108 0 5475
0.07150000 0.07148790 26325.33804232 0 -135.13993888 0 10562.15638030 0 -15.54388320 0 3449.15097658 0 5509
0.07250000 0.07249820 26428.19993988 0 55.78857294 0 9564.46240787 0 -307.76523343 0 552.38942734 0 5916
0.07350000 0.07351270 26036.12891805 0 -65.75277949 0 10367.34989744 0 176.81395503 0 2118.72257102 0 5721
0.07450000 0.07449140 26183.28011489 0 2.15974553 0 8764.46479507 0 -174.59284667 0 486.82465593 0 6028
0.07550000 0.07549160 26574.79752048 0 9.00082571 0 10266.37029510 0 1346.74901234 0 42.10340091 0 6183
0.07650000 0.07648840 26643.88882735 0 11.40349805 0 9976.38610810 0 714.10516025 0 -39.30619949 0 6330
0.07750000 0.07749960 25842.36323373 0 1079.61256760 0 8785.63508013 0 143.91697076 0 -156.63907198 0 6583
0.07850000 0.07848650 25164.62623158 0 766.81274808 0 8765.84883567 0 -24.08274937 0 1372.81326496 0 6549
0.07950000 0.07947320 25016.58924875 0 566.29848178 0 9212.18532144 0 -40.41365342 0 159.34625540 0 6828
0.08050000 0.08048110 24060.71544716 0 1027.03674044 0 8883.96839684 0 211.69842160 0 -170.87365276 0 7147
0.08150000 0.08149960 23657.68282376 0 71.70348974 0 7863.48757993 0 479.18032287 0 -996.99198704 0 7386
0.08250000 0.08250610 22861.36122280 0 -190.55249566 0 7494.20340258 0 905.83132234 0 -1046.31476518 0 7227
0.08350000 0.08350160 23804.05895786 0 -368.03521911 0 6592.72793282 0 733.49501547 0 -2749.98902591 0 7798
0.08450000 0.08449610 23664.76911164 0 -403.48105255 0 6676.86652911 0 626.13332510 0 -2278.92803882 0 7371
0.08550000 0.08548940 23872.92881824 0 288.32776721 0 5713.68499314 0 641.37438021 0 -2152.41565545 0 8256
0.08650000 0.08650700 23427.82136053 0 694.28459159 0 7116.54854766 0 -1252.96642113 0 -1559.86912045 0 8037
0.08750000 0.08749060 23310.23327095 0 960.20972399 0 8260.30862910 0 -730.91294932 0 -235.67221930 0 8155
0.08850000 0.08849210 22246.62574887 0 1051.13011924 0 8091.53318189 0 28.23099587 0 639.97262389 0 8718
0.08950000 0.08949900 22273.53149818 0 277.52117818 0 8926.32003927 0 46.96304427 0 1953.26882126 0 8571
0.09050000 0.09049190 21520.61341051 0 529.68230360 0 8732.21111288 0 1033.22395554 0 1773.12209646 0 8932
0.09150000 0.09150830 21604.98452563 0 401.60097180 0 8785.83438197 0 1082.66410032 0 630.63533237 0 9285
0.09250000 0.09250820 20480.81138679 0 215.71878274 0 8226.43838748 0 529.88381992 0 1303.31228208 0 9204
0.09350000 0.09350330 20428.10712066 0 450.52957517 0 7627.04915575 0 782.69489080 0 406.98655059 0 9349
0.09450000 0.09448040 20298.33947378 0 171.18589232 0 7109.00829446 0 -29.31353706 0 51.55351942 0 9564
0.09550000 0.09549270 19688.03292978 0 510.62793982 0 6927.22286559 0 859.13711412 0 -526.24102505 0 10155
0.09650000 0.09649430 19273.48508857 0 562.00574145 0 6697.32818538 0 -705.48535538 0 -395.75035537 0 9913
0.09750000 0.09749140 18824.28087068 0 944.90334216 0 7283.00987899 0 -362.04509139 0 -1334.00476648 0 10476
0.09850000 0.09850240 17980.79116599 0 743.61069143 0 7351.60293124 0 24.55985585 0 -582.54822568 0 10575
0.09950000 0.09950330 17151.03114408 0 860.91532948 0 7633.27180230 0 -155.88172496 0 -1242.41449558 0 10882
0.10050000 0.10051200 16538.73158161 0 370.11460171 0 7274.45097190 0 138.68640452 0 -341.83477689 0 10875
0.10150000 0.10150300 16673.81394440 0 -293.14644297 0 6533.55742899 0 901.03922016 0 -1554.00078830 0 11118
0.10250000 0.10250800 16530.75950774 0 -47.87307865 0 6302.56658862 0 232.72033750 0 -1978.07082885 0 11575
0.10350000 0.10349800 16376.07913003 0 264.52891224 0 5632.83487731 0 577.43724055 0 -2213.15842940 0 11364
0.10450000 0.10450100 16417.93251784 0 -104.76401225 0 4981.32821266 0 424.63362189 0 -1961.60628185 0 12093
0.10550000 0.10551000 16318.17087122 0 8.23696817 0 5535.95203515 0 783.67700601 0 -925.26878856 0 12067
0.10650000 0.10649700 16545.59642300 0 238.60417091 0 4984.46168058 0 754.97975455 0 -1152.77295384 0 12054
0.10750000 0.10749900 16080.66950386 0 112.96317950 0 5137.72480072 0 919.42481552 0 96.34871321 0 12807
0.10850000 0.10850100 16185.41369665 0 118.58792051 0 5138.06804279 0 159.04840986 0 157.60014977 0 12736
0.10950000 0.10950300 16020.76822660 0 215.48515669 0 5241.79358169 0 575.40657618 0 570.35538159 0 12933
0.11050000 0.11050200 15625.04333758 0 504.81939822 0 5127.74863606 0 -44.25785387 0 582.77520834 0 13428
0.11150000 0.11150900 15408.46866412 0 431.01349545 0 4667.47209335 0 -262.81048743 0 558.79587448 0 13453
0.11250000 0.11250000 15250.79875871 0 291.65167912 0 5102.60338640 0 11.10476673 0 222.46515026 0 13668
0.11350000 0.11349100 14805.69130100 0 361.41729057 0 4549.86185913 0 176.20719163 0 -384.51194567 0 13791
0.11450000 0.11448600 14631.74507810 0 255.25030404 0 4901.10921935 0 -136.35678737 0 -561.93487857 0 14205
0.11550000 0.11549300 14448.71954884 0 149.28815553 0 4344.74704186 0 -156.31133116 0 -1140.15050355 0 14776
0.11650000 0.11649800 14539.95550535 0 -183.67215302 0 4676.86142480 0 -165.87892704 0 -782.98277125 0 14553
0.11750000 0.11747300 14618.45828831 0 -143.10094042 0 4694.84288030 0 -37.25416553 0 -1073.49289368 0 14568
0.11850000 0.11849100 14864.26389929 0 2.90084945 0 4939.84021157 0 -103.88830208 0 -938.38949347 0 16015
0.11950000 0.11950300 14718.88427442 0 148.38133213 0 4943.50515108 0 187.21418973 0 -801.12588270 0 15270
0.12050000 0.12050700 14462.44923162 0 357.95608183 0 5225.26260074 0 169.44421563 0 12.75886134 0 15999
0.12150000 0.12150000 14346.96488376 0 185.68953060 0 5114.10753189 0 661.40089411 0 -942.62797941 0 15670
0.12250000 0.12250700 13983.68190646 0 262.83152485 0 5040.18869140 0 523.96234060 0 179.01181151 0 16887
0.12350000 0.12352200 13811.17508579 0 461.02946080 0 4797.78228414 0 957.47043083 0 497.96341470 0 16407
0.12450000 0.12449800 13330.52546541 0 234.99791472 0 4265.02630317 0 777.74556161 0 930.33659163 0 16306
0.12550000 0.12549900 13329.30750968 0 -31.05200278 0 4238.40843430 0 675.39188375 0 949.80727483 0 17523
0.12650000 0.12650100 13140.52437152 0 249.26792694 0 3994.11973183 0 -3.84414509 0 612.28738291 0 17154
0.12750000 0.12750600 13037.44102746 0 287.34011583 0 4012.15654896 0 -286.13323243 0 731.88067051 0 18007
0.12850000 0.12850300 12849.43295204 0 148.71018017 0 4324.60648302 0 -379.06768356 0 1393.36349983 0 17496
0.12950000 0.12949900 12657.99245592 0 183.60350461 0 4374.62017422 0 -129.34579130 0 1292.14030634 0 18405
0.13050000 0.13049000 13020.72181698 0 -146.52893219 0 4789.26766636 0 151.61112928 0 791.34791265 0 18100
0.13150000 0.13148800 12905.34819237 0 -43.95867966 0 4713.54403692 0 -219.80114890 0 379.69437715 0 19059
0.13250000 0.13249300 13018.17518228 0 257.42490864 0 5160.88810424 0 -225.16790474 0 687.78845862 0 18957
0.13350000 0.13349100 12852.09031000 0 147.51547633 0 4838.00804021 0 -16.21409102 0 497.61574370 0 19468
0.13450000 0.13450700 12699.18150425 0 109.48779818 0 4599.91983963 0 452.10848869 0 645.19211781 0 19953
0.13550000 0.13551000 12630.97598337 0 190.21589699 0 4249.61362702 0 580.81097792 0 239.33715881 0 19956
0.13650000 0.13649900 12536.63977591 0 68.51443875 0 3994.70656505 0 485.24020625 0 -453.62539719 0 19723
0.13750000 0.13749600 12219.19622336 0 254.52838847 0 3915.72767211 0 -519.59541569 0 -611.83009590 0 20946
0.13850000 0.13851100 11939.28785195 0 538.44715593 0 4072.13533250 0 -336.38608585 0 -481.75906732 0 20955
0.13950000 0.13949800 11685.73161360 0 185.29314138 0 3890.12845713 0 -217.56564652 0 -415.65285923 0 20506
0.14050000 0.14048300 11539.02330975 0 -97.36227383 0 3866.89871966 0 312.54515605 0 -467.25875074 0 21447
0.14150000 0.14148400 11749.50820455 0 125.82147031 0 4219.30867399 0 450.26494661 0 -920.25302542 0 21771
0.14250000 0.14249400 11433.94694722 0 389.87759428 0 3799.39075524 0 571.56337223 0 -48.13648926 0 22470
0.14350000 0.14350900 11075.09289985 0 396.32943795 0 3634.44633242 0 572.33511327 0 441.22771509 0 22519
0.14450000 0.14449900 10728.96095370 0 272.12009814 0 3413.35415044 0 435.59079453 0 483.43984623 0 22218
0.14550000 0.14550500 10714.34548493 0 35.63428441 0 3550.35202542 0 358.01255069 0 733.51937459 0 23559
0.14650000 0.14650700 10448.53218301 0 97.90149605 0 3108.15658914 0 -54.34197370 0 308.77502945 0 23044
0.14750000 0.14750500 10400.50043795 0 130.90588187 0 3196.18157145 0 -190.45063028 0 343.38711683 0 23649
0.14850000 0.14849900 10535.61601771 0 -97.38375414 0 3219.28951335 0 -195.00467747 0 210.71077023 0 23640
0.14950000 0.14949500 10462.49438461 0 69.74202740 0 3003.00272034 0 -100.47160408 0 17.36893450 0 24457
0.15050000 0.15050000 10548.43776985 0 137.17060325 0 3101.94501492 0 67.05953526 0 -142.84184802 0 24591
0.15150000 0.15149900 10262.69428326 0 224.01306127 0 3148.52628543 0 119.17918265 0 -278.71477480 0 25020
0.15250000 0.15250500 10179.48576225 0 212.73368397 0 2987.98864788 0 184.97647289 0 -253.02033783 0 25297
0.15350000 0.15350100 9883.40072427 0 291.73361432 0 3264.38709233 0 91.63921058 0 140.12469951 0 25452
0.15450000 0.15450400 9658.28928838 0 316.63084391 0 3264.34280303 0 125.71406876 0 -26.13445116 0 26061
0.15550000 0.15549900 9517.75934178 0 191.28105464 0 3328.14153864 0 94.94374592 0 719.83176664 0 26128
0.15650000 0.15649500 9463.62674575 0 47.44956222 0 3345.11541259 0 84.36292160 0 587.87290669 0 26331
0.15750000 0.15749700 9412.07400139 0 -52.42956176 0 3376.19542835 0 344.44341662 0 945.31301818 0 27345
0.15850000 0.15849900 9544.93082689 0 0.05076694 0 3180.94605250 0 206.13679285 0 351.67585919 0 26980
0.15950000 0.15949700 9415.58392836 0 60.55764468 0 3043.66029707 0 349.02182293 0 842.17541973 0 27777
0.16050000 0.16050000 9441.55960238 0 -72.41267214 0 2641.17021759 0 304.29627406 0 416.82763289 0 28224
0.16150000 0.16150500 9458.72170585 0 48.50054730 0 2818.09489587 0 104.07564581 0 192.66620247 0 28075
0.16250000 0.16249700 9363.99796703 0 248.62573211 0 2579.16519861 0 -107.83569660 0 -123.12646645 0 28590
0.16350000 0.16349900 9009.47319866 0 253.86626344 0 2442.89809706 0 -134.90520559 0 34.26596651 0 29163
0.16450000 0.16449100 8882.62864554 0 229.40860515 0 2427.65150579 0 -87.97726059 0 219.99270012 0 28996
0.16550000 0.16550500 8802.01104853 0 -68.72824534 0 2532.47320485 0 352.43652791 0 -137.95120215 0 30777
0.16650000 0.16650700 8790.49583072 0 93.06466167 0 2497.79468351 0 153.92967409 0 -296.31755680 0 29211
0.16750000 0.16749900 8599.80825269 0 352.96689227 0 2523.65963429 0 -156.78744113 0 -65.03042102 0 30922
0.16850000 0.16850800 8440.73216202 0 193.85094123 0 2535.26343070 0 -7.01958820 0 294.85711715 0 30867
0.16950000 0.16949900 8266.24339521 0 152.10938389 0 2499.76555733 0 87.99021521 0 468.37262662 0 30852
0.17050000 0.17049200 8253.36628144 0 11.19943511 0 2688.74799734 0 279.68471045 0 672.28498941 0 31257
0.17150000 0.17149500 8277.04998423 0 -5.73393628 0 2482.83597268 0 467.90648174 0 282.82814347 0 32608
0.17250000 0.17250900 8267.98175020 0 48.63020422 0 2381.42454967 0 262.08082122 0 519.47804905 0 32361
0.17350000 0.17350400 8231.73095875 0 36.73476277 0 2286.19148390 0 -63.28807998 0 762.06936413 0 32508
0.17450000 0.17449800 8111.89518724 0 216.64110740 0 2257.64703052 0 0.99227075 0 757.13332173 0 32791
0.17550000 0.17549800 8122.22566629 0 68.41866314 0 2343.13645045 0 118.37311740 0 1227.69937589 0 33633
0.17650000 0.17650100 7940.01948908 0 -11.86001001 0 2281.75148165 0 173.02500548 0 777.12994035 0 33984
0.17750000 0.17750300 7973.19217423 0 164.08299595 0 2250.02927105 0 286.28713774 0 889.54725423 0 34069
