### header ###
fiducial parameters:
Omega_m = 0.31
Omega_nu = 0
Omega_de = 0.69
Omega_k = 0
H_0 = 100
w_de = -1
zeff = 0
beta = 0
fgrowth = 0
b_1 = 2
gamma = 0.55
Lx = 3500 Ly = 3500 Lz = 3500
nx = 700 ny = 700 nz = 700
xoffset = -685.467585 yoffset = -31.7331281 zoffset = 572.489161
bins = 400 dk = 0.001
kx_ny = 0.628318531 ky_ny = 0.628318531 kz_ny = 0.628318531
############################
A(data) = 8.04626214 (not used)
A(ran) = 8.04876281 (used)
Ngal = 478670
weighted Ngal = 0
Nran = 23820508
weighted Nran = 0
SN(data) = 3480.43709
SN(ran) = 70.1076431
SN(data+ran) = 3550.54474
############################
13 columns: k_central k_mean P_0(k) sigma^{lin}_{P_0(k)} P^img_1(k) sigma^{lin}_{P_1(k)} P_2(k) sigma^{lin}_{P_2(k)} P^img_3(k) sigma^{lin}_{P_3(k)} P_4(k) sigma^{lin}_{P_4(k)} N_modes
### header ###
0.00050000 0 0 0 0 0 0 0 0 0 0 0 0
0.00150000 0.00179520 66463.51201914 0 -49271.07038024 0 40365.71025185 0 29105.26663453 0 -74552.06674566 0 3
0.00250000 0.00253879 102728.69749766 0 -26585.42695231 0 21817.35171565 0 -3444.48952783 0 139792.52976534 0 6
0.00350000 0.00331552 92612.57865035 0 15228.10049283 0 18758.73270775 0 -67539.40982177 0 -13998.40809847 0 7
0.00450000 0.00420575 64443.25563273 0 39461.54420716 0 12001.18214768 0 -14856.95616491 0 70132.43757105 0 24
0.00550000 0.00557378 54699.16689933 0 -11428.52150806 0 2637.35026553 0 24449.13260180 0 -12910.44146179 0 45
0.00650000 0.00659388 69321.50050133 0 -29785.32882490 0 -2345.24019216 0 -7401.86021359 0 -68678.30915262 0 40
0.00750000 0.00754703 76528.36600254 0 -13433.94097922 0 -6988.80713623 0 -5583.34158538 0 -45946.93702318 0 57
0.00850000 0.00846663 81163.35189487 0 8683.08320765 0 -8727.74896597 0 -72082.38469486 0 -66033.24147669 0 75
0.00950000 0.00948925 79954.80764092 0 -507.69820268 0 -24406.50415125 0 -43306.96261667 0 -34885.57380611 0 112
0.01050000 0.01054430 77433.41783322 0 -15583.18994976 0 -9856.20709452 0 -12369.55839440 0 -28823.91886089 0 105
0.01150000 0.01145670 96341.95909576 0 -20367.65222715 0 -9866.86974332 0 -16316.51002250 0 -48909.33752841 0 144
0.01250000 0.01249090 100775.87156939 0 3121.16657080 0 -21582.95059924 0 -3227.69340788 0 -45822.81626197 0 169
0.01350000 0.01339930 94730.27149516 0 17322.09856253 0 -3745.22494223 0 -45358.88585207 0 -42092.88220031 0 180
0.01450000 0.01448870 86183.21179790 0 12717.11867046 0 6262.78372555 0 -19104.74285833 0 -15495.49713720 0 267
0.01550000 0.01550050 84799.83553506 0 6837.52596223 0 10914.10129699 0 -4385.52641417 0 -4886.52696756 0 238
0.01650000 0.01653350 72917.90232568 0 2330.91260385 0 24204.98783955 0 13429.84421903 0 -15225.88602787 0 315
0.01750000 0.01747870 81635.14365540 0 -4150.53846454 0 24930.55728491 0 12224.17876953 0 -27536.53965423 0 297
0.01850000 0.01844180 81071.11942914 0 -4390.77469613 0 30928.21419268 0 2409.60361633 0 -35535.74071946 0 388
0.01950000 0.01947590 74112.27400386 0 7194.40913579 0 22187.05664135 0 -3437.84613294 0 -6181.11425768 0 399
0.02050000 0.02045430 74738.41397236 0 6018.21821495 0 18223.27507952 0 3041.91086975 0 -5560.55474090 0 462
0.02150000 0.02154770 70931.30580672 0 -2049.87485530 0 12853.86188197 0 9091.40840232 0 -6660.68986255 0 571
0.02250000 0.02255340 75813.64743550 0 -560.65713228 0 13395.96290509 0 6147.72012603 0 -17573.55105916 0 510
0.02350000 0.02348930 73336.98982006 0 2930.37934185 0 11089.59764536 0 -9190.98181941 0 -9083.14844800 0 555
0.02450000 0.02439640 68508.12752015 0 6103.74085185 0 18589.43686127 0 -7557.16064150 0 -318.04035086 0 592
0.02550000 0.02547300 68148.05551705 0 4110.41235940 0 27953.74485340 0 -6154.29708697 0 -6867.89734921 0 837
0.02650000 0.02652900 67244.88598160 0 -1083.59196114 0 31576.60953406 0 -2603.83433830 0 -8535.98737244 0 723
0.02750000 0.02749970 62961.00350926 0 -490.62357057 0 25824.97968376 0 531.59892303 0 -5068.38990271 0 826
0.02850000 0.02848090 67128.62657100 0 1561.13136548 0 37093.83826794 0 675.21140486 0 -6547.32032874 0 831
0.02950000 0.02946900 67540.40633101 0 -447.21784282 0 31522.24441920 0 8096.70395758 0 -9151.35396888 0 996
0.03050000 0.03053250 62949.04539846 0 3669.70061464 0 23011.72339384 0 3402.38147655 0 -7988.80415223 0 1041
0.03150000 0.03150510 61379.54335541 0 6681.52797786 0 21718.03296203 0 1414.04660259 0 -9267.81268133 0 1036
0.03250000 0.03246190 55757.34898225 0 3061.42030608 0 27317.97196231 0 -3050.56942776 0 -8154.44613151 0 1059
0.03350000 0.03345080 53130.21847253 0 5932.07552786 0 24780.97017661 0 -406.91125878 0 512.90773150 0 1302
0.03450000 0.03451200 47995.42783788 0 2600.18047111 0 22839.32729641 0 3536.23481128 0 -9346.13830709 0 1339
0.03550000 0.03553350 48016.24380854 0 -840.59872067 0 22399.20238487 0 7549.29929087 0 -3050.51406614 0 1365
0.03650000 0.03647120 45632.37227509 0 889.65797748 0 17349.11503509 0 7778.54070392 0 -12414.95492616 0 1308
0.03750000 0.03744890 47647.42466883 0 -1068.11949444 0 16112.66852259 0 5946.51383943 0 -2646.15276376 0 1579
0.03850000 0.03847530 46746.80176808 0 -469.02257209 0 13937.84248171 0 3355.46803629 0 -815.21209433 0 1662
0.03950000 0.03950240 45893.23624781 0 2419.35833450 0 8896.85658293 0 6601.46399710 0 1629.69120076 0 1683
0.04050000 0.04050350 45966.42431487 0 -986.32933824 0 7161.30288458 0 3177.24789601 0 5033.13562049 0 1822
0.04150000 0.04152450 46349.08386060 0 -1688.02020790 0 7126.85688207 0 7261.09774817 0 4101.64307814 0 1887
0.04250000 0.04250150 48386.94524347 0 -187.84974118 0 5095.11849482 0 1535.75359700 0 4960.93299034 0 1920
0.04350000 0.04349210 46847.44920069 0 1120.15388493 0 5747.63274103 0 -2780.64829333 0 261.59142447 0 2005
0.04450000 0.04448520 45812.51899989 0 3020.00981126 0 7163.66128977 0 -7071.00807568 0 1448.91335344 0 2151
0.04550000 0.04548030 42880.23521816 0 2311.02670847 0 9386.67408826 0 -2717.58033116 0 1826.05888142 0 2274
0.04650000 0.04648670 41782.63565889 0 137.14181520 0 8673.58315296 0 726.75086242 0 -126.58324626 0 2311
0.04750000 0.04749250 41636.92386428 0 -80.66299354 0 8603.69463871 0 1862.92972306 0 -4121.41825027 0 2568
0.04850000 0.04851840 41705.68300140 0 487.49342435 0 6226.40006619 0 1926.90561586 0 -6536.03762975 0 2493
0.04950000 0.04949480 39967.88162112 0 1590.80519599 0 6476.95570451 0 -1913.24236704 0 -3241.30129509 0 2644
0.05050000 0.05050630 39777.32691099 0 1079.54945535 0 8034.48856443 0 -2431.58218110 0 -5380.43016075 0 2829
0.05150000 0.05149060 39499.63300454 0 692.29157312 0 10399.47071174 0 -2679.14829172 0 -2907.18282136 0 2784
0.05250000 0.05249300 38480.31478173 0 1329.01114798 0 13030.35473958 0 -2143.63530186 0 186.57088766 0 3055
0.05350000 0.05348950 39252.83088433 0 1413.58156495 0 14524.67569710 0 1349.81604632 0 1515.55767653 0 3009
0.05450000 0.05448610 37488.78809422 0 -248.61465978 0 14172.57576787 0 2228.13928488 0 289.31874028 0 3336
0.05550000 0.05550870 37902.33942620 0 693.24932922 0 15284.56934940 0 2866.37023208 0 1199.95212990 0 3349
0.05650000 0.05647670 36898.52245814 0 978.04502481 0 13964.41606128 0 1349.48387657 0 2725.87350245 0 3324
0.05750000 0.05747970 36609.42405712 0 326.05449956 0 13648.41191095 0 2571.91282585 0 4166.50475693 0 3639
0.05850000 0.05849280 35485.58308803 0 -137.84712229 0 12212.77427497 0 876.03458902 0 2904.41474015 0 3846
0.05950000 0.05951020 35656.65050648 0 883.68335101 0 11783.27879525 0 113.10490525 0 -2049.07764791 0 3787
0.06050000 0.06049470 34099.43874399 0 1793.70554830 0 12678.14408709 0 -1634.76232552 0 3087.87209007 0 3930
0.06150000 0.06148310 33562.65243678 0 1169.31500712 0 12509.29113361 0 -1599.22016286 0 852.97647259 0 4083
0.06250000 0.06249100 32445.89775557 0 898.19141822 0 13068.22209046 0 -1061.01438361 0 3233.65031864 0 4303
0.06350000 0.06350600 33089.08910428 0 -9.99399110 0 13818.81498991 0 2650.52633206 0 1462.17799858 0 4470
0.06450000 0.06451750 32661.14375004 0 59.56235341 0 15019.05500025 0 1593.94973624 0 2023.17948016 0 4479
0.06550000 0.06550280 32685.50286464 0 651.48230554 0 13318.78880110 0 2148.61784803 0 4583.44422030 0 4636
0.06650000 0.06648880 31720.99264969 0 101.54406947 0 12675.04383615 0 2532.88288086 0 5600.73620767 0 4653
0.06750000 0.06749660 32497.27334273 0 -458.59133487 0 12052.88990459 0 2443.56243655 0 4746.40669698 0 5220
0.06850000 0.06852730 32347.68623443 0 -22.16624067 0 12638.28371775 0 2732.52796967 0 3182.66226285 0 5029
0.06950000 0.06949320 31798.27747693 0 1893.05751889 0 11446.01578128 0 -730.61731825 0 3149.05775702 0 5040
0.07050000 0.07048030 29905.46354918 0 2151.70702666 0 10360.00894609 0 -958.19123918 0 1785.34594306 0 5475
0.07150000 0.07148790 28040.10898698 0 1514.89333704 0 11416.23122751 0 -1313.85313531 0 3772.48500594 0 5509
0.07250000 0.07249820 27445.63586747 0 662.29996689 0 9955.08295515 0 135.75113121 0 513.49567195 0 5916
0.07350000 0.07351270 26114.18880803 0 562.74315828 0 9246.85277045 0 2472.76015710 0 2312.69862952 0 5721
0.07450000 0.07449140 26440.82239018 0 282.31328037 0 8436.59111254 0 908.91275034 0 -359.27147402 0 6028
0.07550000 0.07549160 25502.77503154 0 218.92422078 0 8388.69223538 0 2187.90245649 0 -59.42948551 0 6183
0.07650000 0.07648840 25428.70117850 0 566.21654658 0 7884.45856314 0 -6.71279622 0 -9.96111737 0 6330
0.07750000 0.07749960 24790.04948296 0 269.63768291 0 7917.38765715 0 -847.62300354 0 182.04230681 0 6583
0.07850000 0.07848650 25383.96898624 0 -523.03337255 0 8939.58468440 0 -420.55014849 0 626.47545994 0 6549
0.07950000 0.07947320 25528.79499486 0 -219.66495931 0 9821.75001968 0 758.01689325 0 1377.08718234 0 6828
0.08050000 0.08048110 26044.65460816 0 296.05071377 0 9567.27477837 0 1110.04485237 0 2097.36405645 0 7147
0.08150000 0.08149960 25834.61260635 0 162.74878081 0 8786.95268678 0 1599.35303075 0 2874.84056056 0 7386
0.08250000 0.08250610 24937.53284955 0 617.36293661 0 8744.41281483 0 1554.48797059 0 4655.81293532 0 7227
0.08350000 0.08350160 24974.07152145 0 589.55036390 0 7324.11034871 0 1799.83961625 0 4244.95217827 0 7798
0.08450000 0.08449610 23526.14360492 0 994.67233499 0 7669.17935169 0 1483.45900688 0 3566.58405361 0 7371
0.08550000 0.08548940 23304.47566205 0 813.89448768 0 6349.46895655 0 -63.01802598 0 3818.94448087 0 8256
0.08650000 0.08650700 22300.32652424 0 694.12515011 0 7372.76214397 0 -997.32747848 0 3718.33026525 0 8037
0.08750000 0.08749060 22238.98584475 0 334.81049403 0 6975.01101951 0 -684.08033704 0 3667.23148621 0 8155
0.08850000 0.08849210 21434.69216992 0 59.23350536 0 6650.39260047 0 -216.36872821 0 2374.68150386 0 8718
0.08950000 0.08949900 21503.34058380 0 304.73141643 0 6738.16291931 0 818.79731311 0 2019.82456574 0 8571
0.09050000 0.09049190 21088.79274259 0 508.66260217 0 6075.69465309 0 1253.37609715 0 730.03712843 0 8932
0.09150000 0.09150830 20397.65822741 0 485.84364795 0 5924.91173371 0 1167.15590378 0 969.43186333 0 9285
0.09250000 0.09250820 19720.91773449 0 574.91939388 0 5428.42868884 0 452.45948139 0 978.18675057 0 9204
0.09350000 0.09350330 19261.08408477 0 849.35471514 0 5249.42241349 0 39.57149239 0 980.78985413 0 9349
0.09450000 0.09448040 18504.62285316 0 806.83255891 0 4592.36851411 0 4.04400056 0 864.82496738 0 9564
0.09550000 0.09549270 17944.36321734 0 491.92899767 0 4440.69980874 0 110.00775456 0 728.01975085 0 10155
0.09650000 0.09649430 17702.98653629 0 133.38386816 0 4544.01567162 0 -901.01818274 0 144.25024774 0 9913
0.09750000 0.09749140 17917.78963777 0 -150.02778683 0 4306.01604965 0 132.54680040 0 -1017.44146375 0 10476
0.09850000 0.09850240 17621.71567212 0 108.97979992 0 4983.69769017 0 -592.15346746 0 -521.29833925 0 10575
0.09950000 0.09950330 17957.31783738 0 274.39103196 0 4725.35820750 0 547.62168428 0 -1060.05884197 0 10882
0.10050000 0.10051200 17561.15005537 0 -92.25162086 0 4174.79792822 0 564.86683018 0 -1162.26193621 0 10875
0.10150000 0.10150300 17598.35306676 0 64.46396088 0 4139.78723714 0 652.53860533 0 -1532.08865748 0 11118
0.10250000 0.10250800 17623.15507435 0 390.54746993 0 4814.43506067 0 -25.06054638 0 -189.56595152 0 11575
0.10350000 0.10349800 16921.16968085 0 539.53777993 0 4569.62595893 0 328.64320910 0 6.17284323 0 11364
0.10450000 0.10450100 16760.73169423 0 459.55019820 0 4417.89081961 0 -20.34816494 0 -425.76521348 0 12093
0.10550000 0.10551000 16424.13301974 0 245.70485282 0 4670.15159596 0 -492.96204558 0 -227.57170646 0 12067
0.10650000 0.10649700 16403.31704908 0 143.46300544 0 5522.88669187 0 -766.31560070 0 -704.83983884 0 12054
0.10750000 0.10749900 16137.02763719 0 405.38327796 0 5566.87703837 0 -387.10508415 0 155.02251255 0 12807
0.10850000 0.10850100 15993.97320053 0 211.24999245 0 5336.52839284 0 362.14031338 0 -560.75235428 0 12736
0.10950000 0.10950300 15589.16900516 0 300.25155380 0 5897.79561022 0 333.45967040 0 -159.07166174 0 12933
0.11050000 0.11050200 15589.50117491 0 428.35724472 0 5492.78104068 0 867.41367692 0 -1247.97280263 0 13428
0.11150000 0.11150900 15091.02511157 0 387.45164791 0 5297.11091649 0 225.09372017 0 -470.72549564 0 13453
0.11250000 0.11250000 14933.68737590 0 166.49344107 0 5267.83568967 0 227.47980617 0 237.54233496 0 13668
0.11350000 0.11349100 14924.94023929 0 132.50804727 0 5346.62635308 0 -296.58329259 0 -119.48588605 0 13791
0.11450000 0.11448600 14785.76111632 0 50.89704128 0 5216.41581321 0 238.20113829 0 757.07574564 0 14205
0.11550000 0.11549300 14664.51915956 0 10.52958160 0 5031.43048247 0 713.21715980 0 218.01629014 0 14776
0.11650000 0.11649800 14695.52166905 0 84.86494080 0 4704.48687522 0 596.32994839 0 14.22151544 0 14553
0.11750000 0.11747300 14590.11313678 0 201.62703495 0 4939.09836580 0 635.23920503 0 114.82333007 0 14568
0.11850000 0.11849100 14124.30043166 0 400.60889150 0 4539.02205313 0 -33.73073033 0 71.38781776 0 16015
0.11950000 0.11950300 13943.60009062 0 154.15997845 0 4473.16386511 0 -208.71664453 0 -123.43649154 0 15270
0.12050000 0.12050700 13984.23552270 0 112.11725388 0 4629.97012919 0 -2.53829725 0 478.69756951 0 15999
0.12150000 0.12150000 13842.95265802 0 171.46380768 0 4658.55887187 0 -104.23165487 0 363.02056320 0 15670
0.12250000 0.12250700 13795.78455429 0 -90.28805478 0 4449.65731952 0 473.59433500 0 482.33372098 0 16887
0.12350000 0.12352200 14086.54380403 0 -329.15807221 0 4397.19664453 0 438.90363411 0 211.09387267 0 16407
0.12450000 0.12449800 14439.08662625 0 -198.02852938 0 4552.54136173 0 252.87418314 0 518.68859229 0 16306
0.12550000 0.12549900 14667.50868726 0 26.03535386 0 4548.36709528 0 113.53229699 0 682.73062064 0 17523
0.12650000 0.12650100 14548.14902572 0 227.48312786 0 4713.88727899 0 -316.98515830 0 558.25997396 0 17154
0.12750000 0.12750600 14240.33839576 0 502.00481326 0 4748.39971545 0 -15.88003898 0 422.84654866 0 18007
0.12850000 0.12850300 13910.49383941 0 561.21739192 0 4815.08832783 0 -496.67348885 0 745.12870716 0 17496
0.12950000 0.12949900 13433.49808622 0 469.13108087 0 5038.73821685 0 297.43253991 0 841.26084570 0 18405
0.13050000 0.13049000 13233.08900701 0 -20.85727043 0 4416.36283879 0 777.35027961 0 1157.34582399 0 18100
0.13150000 0.13148800 12997.46993486 0 -60.58698634 0 4122.34832556 0 997.22893479 0 1214.78904515 0 19059
0.13250000 0.13249300 13226.88850511 0 -13.19311791 0 3724.27610368 0 736.82778524 0 1004.31190098 0 18957
0.13350000 0.13349100 13000.57018581 0 157.65440416 0 3755.50005966 0 369.92194326 0 1048.95994358 0 19468
0.13450000 0.13450700 12748.01045670 0 434.43816551 0 3666.34570022 0 -466.98747878 0 853.33189422 0 19953
0.13550000 0.13551000 12310.98579611 0 554.84305452 0 4007.68332973 0 -576.28239707 0 1226.62536038 0 19956
0.13650000 0.13649900 12115.44853981 0 295.81265878 0 4557.18066583 0 -230.66088509 0 1078.62602346 0 19723
0.13750000 0.13749600 11648.08570922 0 78.68160101 0 3811.80283137 0 507.19551913 0 1127.02979864 0 20946
0.13850000 0.13851100 11853.80950435 0 -119.14042951 0 3809.13440109 0 687.11415404 0 282.92336546 0 20955
0.13950000 0.13949800 11752.49773226 0 13.96674125 0 3218.90198198 0 577.55128549 0 -288.53924861 0 20506
0.14050000 0.14048300 11570.91160523 0 313.40990462 0 2884.71707430 0 -11.47768263 0 269.47934867 0 21447
0.14150000 0.14148400 11486.20832037 0 225.49453833 0 2951.69356713 0 -160.14124832 0 442.30837400 0 21771
0.14250000 0.14249400 11200.21017030 0 96.95403721 0 2868.02000847 0 -96.28316505 0 394.68851942 0 22470
0.14350000 0.14350900 11359.43020119 0 137.91577071 0 3112.37514490 0 191.70844638 0 497.93905558 0 22519
0.14450000 0.14449900 11141.08395577 0 64.61221931 0 2919.01913659 0 9.00333913 0 546.97948944 0 22218
0.14550000 0.14550500 11126.35776376 0 185.56330610 0 3203.74396930 0 249.74514414 0 508.55741508 0 23559
0.14650000 0.14650700 10908.39904971 0 311.00610290 0 3433.17361187 0 50.02144183 0 943.52040879 0 23044
0.14750000 0.14750500 10657.86555603 0 407.24564299 0 3479.23448311 0 162.75874590 0 1010.60983933 0 23649
0.14850000 0.14849900 10368.57892550 0 204.56120102 0 3380.30326086 0 249.99537869 0 1850.68373181 0 23640
0.14950000 0.14949500 10249.03103443 0 130.99667493 0 3507.14781398 0 240.02585742 0 1421.33219232 0 24457
0.15050000 0.15050000 10229.30015160 0 68.00001853 0 3484.50490973 0 -55.57443418 0 1343.83699091 0 24591
0.15150000 0.15149900 10088.98057918 0 87.53514266 0 3417.52841690 0 -264.26539091 0 1094.62996176 0 25020
0.15250000 0.15250500 10204.80816911 0 188.65469919 0 3649.17252443 0 -266.96925263 0 977.04408665 0 25297
0.15350000 0.15350100 9796.05115378 0 131.16165257 0 3412.23584564 0 15.73908828 0 902.29925073 0 25452
0.15450000 0.15450400 9837.86025229 0 209.49392173 0 3332.49296229 0 196.93458369 0 277.67951243 0 26061
0.15550000 0.15549900 9669.18445600 0 174.53416335 0 3113.59310063 0 127.95842900 0 -105.79030603 0 26128
0.15650000 0.15649500 9397.18172451 0 237.37403562 0 3023.06577291 0 277.22554711 0 -66.24948398 0 26331
0.15750000 0.15749700 9246.47631140 0 111.51159771 0 2853.22738252 0 21.72190828 0 183.69097597 0 27345
0.15850000 0.15849900 9185.23528283 0 64.98613172 0 2596.70376112 0 273.05570959 0 -99.77305111 0 26980
0.15950000 0.15949700 9204.75579149 0 -53.69712150 0 2487.78530188 0 524.79165773 0 60.68475497 0 27777
0.16050000 0.16050000 9097.52032562 0 135.11447253 0 2449.39755173 0 47.57545456 0 -73.24121421 0 28224
0.16150000 0.16150500 8954.91985428 0 338.53633133 0 2368.38135103 0 72.79909628 0 93.83341318 0 28075
0.16250000 0.16249700 8749.51715657 0 240.52300480 0 2527.15848893 0 -124.75741989 0 629.33211974 0 28590
0.16350000 0.16349900 8606.03089924 0 137.04105705 0 2507.09543636 0 61.16883701 0 625.38151424 0 29163
0.16450000 0.16449100 8511.92721061 0 -30.32576900 0 2470.29102866 0 269.47934867 0 527.40915532 0 28996
0.16550000 0.16550500 8509.49129915 0 46.18798153 0 2549.34742787 0 110.70043920 0 740.98765768 0 30777
0.16650000 0.16650700 8486.05118751 0 169.34345747 0 2558.07241983 0 110.45596227 0 510.21383488 0 29211
0.16750000 0.16749900 8277.34893700 0 114.01283589 0 2475.14070693 0 113.96190320 0 806.36752127 0 30922
0.16850000 0.16850800 8340.04044012 0 79.10323514 0 2509.17703343 0 139.22230504 0 713.63680091 0 30867
0.16950000 0.16949900 8145.97580303 0 8.96548285 0 2267.16922987 0 168.78984123 0 613.46437104 0 30852
0.17050000 0.17049200 8336.08762016 0 -27.53786833 0 2412.79244588 0 249.04205152 0 622.90574241 0 31257
0.17150000 0.17149500 8181.23008525 0 80.55747428 0 2031.27334960 0 58.18119161 0 639.70024470 0 32608
0.17250000 0.17250900 8229.26183031 0 90.13093849 0 2321.61185100 0 135.80427837 0 489.08894635 0 32361
0.17350000 0.17350400 8135.73390257 0 43.53948144 0 2288.82669721 0 -33.08133848 0 654.05994276 0 32508
0.17450000 0.17449800 8123.41040505 0 112.09843093 0 2291.58370609 0 -97.28033862 0 396.86312401 0 32791
0.17550000 0.17549800 8072.64379575 0 122.98695516 0 2352.85795164 0 -244.22448299 0 718.51969615 0 33633
0.17650000 0.17650100 8069.60997875 0 153.53992826 0 2440.32931770 0 -3.83774529 0 532.14146695 0 33984
0.17750000 0.17750300 7922.39234796 0 121.11905396 0 2453.29501007 0 -104.17740048 0 619.38252866 0 34069
0.17850000 0.17849800 7805.31358533 0 219.76350300 0 2520.44866009 0 -66.49761478 0 438.61686090 0 34536
