### header ###
fiducial parameters:
Omega_m = 0.31
Omega_nu = 0
Omega_de = 0.69
Omega_k = 0
H_0 = 100
w_de = -1
zeff = 0
beta = 0
fgrowth = 0
b_1 = 2
gamma = 0.55
Lx = 3500 Ly = 3500 Lz = 3500
nx = 700 ny = 700 nz = 700
xoffset = -685.467585 yoffset = -31.7331281 zoffset = 572.489161
bins = 400 dk = 0.001
kx_ny = 0.628318531 ky_ny = 0.628318531 kz_ny = 0.628318531
############################
A(data) = 8.02870711 (not used)
A(ran) = 8.02444364 (used)
Ngal = 476954
weighted Ngal = 0
Nran = 23820508
weighted Nran = 0
SN(data) = 3494.32943
SN(ran) = 69.8958143
SN(data+ran) = 3564.22524
############################
13 columns: k_central k_mean P_0(k) sigma^{lin}_{P_0(k)} P^img_1(k) sigma^{lin}_{P_1(k)} P_2(k) sigma^{lin}_{P_2(k)} P^img_3(k) sigma^{lin}_{P_3(k)} P_4(k) sigma^{lin}_{P_4(k)} N_modes
### header ###
0.00050000 0 0 0 0 0 0 0 0 0 0 0 0
0.00150000 0.00179520 57219.44947455 0 -39564.84899772 0 55665.11651651 0 269.96320926 0 -168990.25031211 0 3
0.00250000 0.00253879 100015.86719384 0 -32178.27966470 0 9034.55201437 0 22503.61440791 0 125842.50772632 0 6
0.00350000 0.00331552 89893.88001438 0 -3879.48795298 0 5742.04121700 0 -40299.05485644 0 71927.70431715 0 7
0.00450000 0.00420575 70488.30209072 0 24079.42767610 0 -24654.96712018 0 -8660.72818385 0 28479.23738929 0 24
0.00550000 0.00557378 68477.90007340 0 1110.94171068 0 2128.08975782 0 4316.64548147 0 -6310.99262781 0 45
0.00650000 0.00659388 40889.98483201 0 4618.68743020 0 -15338.60229452 0 -18009.46848727 0 8579.63447687 0 40
0.00750000 0.00754703 51626.70748541 0 12988.61207501 0 20938.54129480 0 -6304.67033034 0 43060.60338946 0 57
0.00850000 0.00846663 41465.41355284 0 3667.90689802 0 24824.81658289 0 1081.50150622 0 32747.06499064 0 75
0.00950000 0.00948925 58473.05809052 0 -4603.03116291 0 43172.43387013 0 32459.18454535 0 22608.91221694 0 112
0.01050000 0.01054430 54177.10678413 0 -10024.70573361 0 28370.95005256 0 28752.39164256 0 27586.36511591 0 105
0.01150000 0.01145670 71129.05752798 0 -11783.05734876 0 14489.35498093 0 9949.13711672 0 5272.28676425 0 144
0.01250000 0.01249090 85035.56533045 0 -9177.48465546 0 33078.90256545 0 5763.35544228 0 48.07260194 0 169
0.01350000 0.01339930 78217.22770713 0 6192.34159505 0 45328.65840531 0 -912.93311148 0 13693.25482647 0 180
0.01450000 0.01448870 77928.68292236 0 15647.29871046 0 32523.29330605 0 -7826.01883274 0 10776.41693787 0 267
0.01550000 0.01550050 69277.76481830 0 3589.22695786 0 36457.40103736 0 759.72756743 0 29231.71258396 0 238
0.01650000 0.01653350 74279.57683187 0 -5185.54617162 0 49819.92552150 0 13909.82949992 0 3425.77729889 0 315
0.01750000 0.01747870 76251.66860532 0 -3456.93482093 0 48795.95692227 0 13474.90858104 0 20927.24752348 0 297
0.01850000 0.01844180 83494.51916219 0 -636.40069190 0 42731.53389585 0 18154.62666565 0 -1857.53750088 0 388
0.01950000 0.01947590 79550.33561529 0 1405.85308222 0 42319.64341260 0 2448.61141667 0 20300.11104575 0 399
0.02050000 0.02045430 80757.10829728 0 2970.14006028 0 37766.59272392 0 20262.02224838 0 15406.58636891 0 462
0.02150000 0.02154770 75539.93956598 0 -226.11680298 0 29062.08456774 0 8705.68182261 0 18816.75168980 0 571
0.02250000 0.02255340 78337.91604765 0 4114.40946866 0 24359.11460102 0 12522.57792339 0 3879.69832715 0 510
0.02350000 0.02348930 69321.05760834 0 1501.26330519 0 20477.37896610 0 2806.67932898 0 1984.94674256 0 555
0.02450000 0.02439640 68522.96443541 0 1037.92637189 0 9992.44097908 0 5158.66256696 0 521.00935157 0 592
0.02550000 0.02547300 67139.14527958 0 -1539.34103024 0 11840.07982157 0 -9429.04787534 0 -9868.85168946 0 837
0.02650000 0.02652900 71969.66842821 0 -569.62792985 0 23493.14807696 0 -6588.87476378 0 -4236.57042838 0 723
0.02750000 0.02749970 66055.71829607 0 3106.42930647 0 20083.64709555 0 -4893.85684659 0 -5407.05910194 0 826
0.02850000 0.02848090 67779.67927034 0 3437.94578386 0 21311.34647144 0 379.72205796 0 2902.99748258 0 831
0.02950000 0.02946900 65189.08743252 0 1106.40537920 0 22693.72622505 0 4029.29650778 0 -1021.96672290 0 996
0.03050000 0.03053250 63329.49047923 0 1897.30929162 0 21666.10375863 0 11385.11799477 0 7296.52918759 0 1041
0.03150000 0.03150510 61014.15663640 0 5732.77368113 0 22826.48339962 0 2508.01443932 0 9136.93780197 0 1036
0.03250000 0.03246190 54930.35704155 0 9088.96141853 0 22059.06056644 0 10317.09261509 0 11198.88149132 0 1059
0.03350000 0.03345080 51465.05154305 0 2881.63896800 0 18867.13076773 0 3395.91523885 0 14131.60816604 0 1302
0.03450000 0.03451200 47407.81955976 0 476.28380270 0 19686.92569730 0 7341.18387358 0 13107.52884356 0 1339
0.03550000 0.03553350 49838.30558070 0 -1183.18863012 0 15407.25070839 0 4800.00782143 0 14645.47476087 0 1365
0.03650000 0.03647120 48845.67166071 0 -1418.75234064 0 19148.03564837 0 6836.28586185 0 13188.79970773 0 1308
0.03750000 0.03744890 48812.67613275 0 361.95983448 0 9434.18543405 0 4729.25566584 0 19425.06521534 0 1579
0.03850000 0.03847530 48584.58624148 0 -84.29936645 0 11264.20820775 0 3103.89374409 0 12495.56145084 0 1662
0.03950000 0.03950240 48741.81325391 0 2921.54362665 0 7454.58662438 0 -1426.25937686 0 11454.32002489 0 1683
0.04050000 0.04050350 45934.42529614 0 1130.10790494 0 8595.21323789 0 -922.04674204 0 10067.54455833 0 1822
0.04150000 0.04152450 46347.53373512 0 -309.96862607 0 7274.32917633 0 -4790.79564718 0 10216.14622972 0 1887
0.04250000 0.04250150 44995.71359801 0 1284.60005313 0 8909.06935720 0 796.84975085 0 8679.08609840 0 1920
0.04350000 0.04349210 46515.94379562 0 -50.40255125 0 12686.78050045 0 -2566.95242433 0 3535.81406294 0 2005
0.04450000 0.04448520 43755.72394157 0 903.66668284 0 11569.91509600 0 1064.59738792 0 1001.80955557 0 2151
0.04550000 0.04548030 43305.41249120 0 2471.88544344 0 11802.54464044 0 2310.67239408 0 -444.22942235 0 2274
0.04650000 0.04648670 41908.52799208 0 665.36367916 0 10601.23061459 0 4777.20990463 0 972.98165067 0 2311
0.04750000 0.04749250 41411.60205422 0 -1044.11137254 0 8129.31195417 0 1089.85225360 0 -489.02694134 0 2568
0.04850000 0.04851840 42296.83442347 0 671.31394652 0 7691.02504855 0 416.76673510 0 -5154.06755216 0 2493
0.04950000 0.04949480 40950.21827903 0 1239.53569112 0 6638.09124760 0 -2924.30063553 0 -2134.75529736 0 2644
0.05050000 0.05050630 39531.96419301 0 2603.18107114 0 5885.77106547 0 -3954.01577134 0 -3479.71059308 0 2829
0.05150000 0.05149060 38101.97344268 0 1353.44776886 0 9630.91850143 0 -3005.36112553 0 -1975.61277274 0 2784
0.05250000 0.05249300 37703.81264220 0 436.03258029 0 10078.11862853 0 1279.89431509 0 -3773.24899635 0 3055
0.05350000 0.05348950 37491.77762192 0 1008.38098035 0 13363.96388636 0 -871.29231230 0 -2695.08136713 0 3009
0.05450000 0.05448610 36478.77062426 0 2520.08327337 0 13082.17321973 0 -1017.77252626 0 -1936.61604473 0 3336
0.05550000 0.05550870 35226.49068728 0 1088.81699123 0 16199.80771891 0 -1007.76093016 0 883.11091182 0 3349
0.05650000 0.05647670 34844.38475778 0 807.55779618 0 17409.01631236 0 -377.08352295 0 1835.88003353 0 3324
0.05750000 0.05747970 34475.01200183 0 413.46939677 0 15973.15722988 0 2823.77499850 0 3414.08492388 0 3639
0.05850000 0.05849280 33805.35779680 0 -422.44240881 0 14963.80409941 0 3721.16478040 0 1269.69670393 0 3846
0.05950000 0.05951020 33049.22873494 0 981.30250277 0 12248.09499114 0 1443.76472240 0 -1375.34882735 0 3787
0.06050000 0.06049470 32601.35319602 0 703.31185802 0 11027.07222711 0 3385.54047050 0 -3200.21189768 0 3930
0.06150000 0.06148310 31239.01435034 0 136.05562014 0 8512.72441800 0 1442.95644269 0 -2654.95526199 0 4083
0.06250000 0.06249100 30873.07401508 0 -336.78136785 0 6272.47200976 0 1673.88084911 0 -1998.05637515 0 4303
0.06350000 0.06350600 31500.98555555 0 -880.06602249 0 6604.84105617 0 711.70800193 0 -2884.26310898 0 4470
0.06450000 0.06451750 31975.32395078 0 238.84333313 0 6493.58633639 0 -585.33955877 0 -4569.52630801 0 4479
0.06550000 0.06550280 32056.70553819 0 891.24796332 0 8660.69496687 0 -1072.89277367 0 -1643.37659423 0 4636
0.06650000 0.06648880 31833.48746985 0 876.52730748 0 9143.62548616 0 -689.68736233 0 1353.66921535 0 4653
0.06750000 0.06749660 31174.13052690 0 359.29694037 0 10769.19778209 0 1269.60812533 0 3436.00812702 0 5220
0.06850000 0.06852730 31260.27321399 0 -455.49662009 0 10790.57844131 0 1397.68170651 0 1451.47106048 0 5029
0.06950000 0.06949320 31671.72080425 0 29.32472011 0 9166.97701920 0 3366.03103417 0 3311.20088167 0 5040
0.07050000 0.07048030 30854.58323263 0 535.79644137 0 9735.96164698 0 909.99451648 0 2788.88610300 0 5475
0.07150000 0.07148790 30971.06408972 0 1085.42221644 0 7368.08962289 0 371.44106623 0 3144.40738060 0 5509
0.07250000 0.07249820 30034.34541007 0 515.09894459 0 8740.78109228 0 -1691.28654372 0 3100.04057505 0 5916
0.07350000 0.07351270 29752.33329694 0 1164.60926907 0 9888.26147487 0 -458.00228719 0 624.36507483 0 5721
0.07450000 0.07449140 28340.27971281 0 1487.72185193 0 9981.70082401 0 -1663.15176636 0 1917.37234420 0 6028
0.07550000 0.07549160 27444.08574199 0 1411.38924463 0 10054.87781874 0 471.96891772 0 483.34462424 0 6183
0.07650000 0.07648840 26528.07230975 0 615.87481616 0 10339.07117986 0 1028.65108539 0 2893.80745298 0 6330
0.07750000 0.07749960 25656.79106977 0 252.57523037 0 9515.38986427 0 2282.59297834 0 1346.88188024 0 6583
0.07850000 0.07848650 26020.18477032 0 241.44311500 0 8898.90496302 0 2327.56876175 0 2348.65046821 0 6549
0.07950000 0.07947320 24280.72254131 0 695.04415307 0 7216.90809982 0 1107.58679626 0 1429.38177246 0 6828
0.08050000 0.08048110 24536.49324462 0 969.38757403 0 7910.73318993 0 -781.02961315 0 2239.07874180 0 7147
0.08150000 0.08149960 23848.56970363 0 336.14581640 0 7917.00012578 0 -672.27502432 0 1846.62018860 0 7386
0.08250000 0.08250610 23374.89564789 0 -89.48198953 0 7981.37462227 0 -353.39428400 0 931.37185400 0 7227
0.08350000 0.08350160 23431.69667421 0 662.37968763 0 8470.81566856 0 -448.08259139 0 -91.14173102 0 7798
0.08450000 0.08449610 22920.81960708 0 543.23040025 0 7911.39752942 0 894.29728158 0 -1365.50553058 0 7371
0.08550000 0.08548940 22266.33448705 0 400.91338043 0 7815.38940092 0 792.64780358 0 902.90158520 0 8256
0.08650000 0.08650700 22489.66327864 0 26.90486352 0 7543.36452477 0 1063.22774134 0 -699.93701341 0 8037
0.08750000 0.08749060 22183.73494390 0 -157.32555612 0 7056.60298109 0 1363.95540511 0 352.94585485 0 8155
0.08850000 0.08849210 22435.18744053 0 284.73479780 0 6229.65532969 0 -44.39038960 0 -661.86150282 0 8718
0.08950000 0.08949900 21580.18251804 0 467.96295060 0 6625.78989473 0 -293.31252784 0 118.90901792 0 8571
0.09050000 0.09049190 21283.88710589 0 1463.01949526 0 7858.74862491 0 -1483.70259802 0 84.86626948 0 8932
0.09150000 0.09150830 20031.82861540 0 1666.56204240 0 8540.37201307 0 -859.83356335 0 575.13751868 0 9285
0.09250000 0.09250820 18695.84190278 0 866.35959160 0 8599.16605785 0 -8.49662526 0 2226.05768781 0 9204
0.09350000 0.09350330 18161.15933729 0 374.32208514 0 8377.83028473 0 1210.69228497 0 423.24293789 0 9349
0.09450000 0.09448040 18097.82563933 0 -270.40499502 0 8301.68590695 0 1781.33776147 0 2080.08015741 0 9564
0.09550000 0.09549270 18223.38580277 0 28.41811816 0 6792.05192420 0 1957.88598071 0 427.71726435 0 10155
0.09650000 0.09649430 17911.47841263 0 222.63012790 0 5936.42695152 0 804.76535586 0 1063.18013034 0 9913
0.09750000 0.09749140 17748.27234480 0 271.18559392 0 5392.36612690 0 430.58167478 0 588.46306160 0 10476
0.09850000 0.09850240 17318.88758833 0 -38.00586566 0 5086.38243054 0 603.36419634 0 2212.39443899 0 10575
0.09950000 0.09950330 17206.83566117 0 191.11607700 0 4368.18715350 0 748.00529715 0 488.59733513 0 10882
0.10050000 0.10051200 16981.62457436 0 332.31368478 0 4613.26199104 0 309.93098016 0 492.12940675 0 10875
0.10150000 0.10150300 16728.62195225 0 473.58769161 0 4709.83480811 0 -248.47293402 0 379.35002784 0 11118
0.10250000 0.10250800 16421.03276879 0 574.28605690 0 5011.51137012 0 -1075.48923384 0 506.11707469 0 11575
0.10350000 0.10349800 16064.61463288 0 200.35371759 0 4895.65056321 0 -670.84447995 0 791.38445132 0 11364
0.10450000 0.10450100 16275.54242067 0 -1.60628431 0 5918.32370044 0 -710.59634051 0 395.53444503 0 12093
0.10550000 0.10551000 16058.52485423 0 168.66472396 0 5525.21188008 0 500.67724151 0 -129.11991587 0 12067
0.10650000 0.10649700 16144.11392508 0 152.24114456 0 5620.16813772 0 752.63352892 0 -554.46438101 0 12054
0.10750000 0.10749900 15746.39601759 0 -143.00793289 0 4693.19310391 0 1334.48087644 0 216.52927692 0 12807
0.10850000 0.10850100 15975.48241809 0 -102.80199629 0 4635.36235138 0 888.42341326 0 -270.94421724 0 12736
0.10950000 0.10950300 15830.76713271 0 219.94951806 0 4114.66413213 0 781.85228688 0 466.02418652 0 12933
0.11050000 0.11050200 15675.42241550 0 478.35764914 0 4390.32073082 0 43.69881219 0 242.98659708 0 13428
0.11150000 0.11150900 15066.66599697 0 460.80801430 0 4044.06698909 0 -786.72743150 0 1219.84909760 0 13453
0.11250000 0.11250000 15030.57021806 0 8.48698126 0 4765.91613331 0 -95.63576622 0 965.05608057 0 13668
0.11350000 0.11349100 15068.88046194 0 68.28479873 0 4765.24072150 0 -679.85956682 0 20.19481324 0 13791
0.11450000 0.11448600 14968.78664558 0 551.15818482 0 5076.48377215 0 -21.75778261 0 -360.80941994 0 14205
0.11550000 0.11549300 14333.67809398 0 498.63771928 0 4768.25239385 0 -318.80212681 0 7.65946892 0 14776
0.11650000 0.11649800 14054.54478530 0 257.45812561 0 4342.85367432 0 606.86194375 0 618.34837352 0 14553
0.11750000 0.11747300 14335.33894270 0 -394.70512790 0 4665.39049629 0 723.18668106 0 107.01058695 0 14568
0.11850000 0.11849100 14312.86212332 0 -47.06014856 0 4675.72097534 0 831.89144444 0 177.21477319 0 16015
0.11950000 0.11950300 14185.97328090 0 573.49881461 0 4335.40199972 0 587.73007370 0 676.09719084 0 15270
0.12050000 0.12050700 13879.15916017 0 516.23385788 0 4256.98779535 0 -142.28823178 0 2024.03204917 0 15999
0.12150000 0.12150000 13445.01330403 0 79.01055978 0 4364.56650329 0 212.10809762 0 2378.21357547 0 15670
0.12250000 0.12250700 13524.84476598 0 -192.90093576 0 4524.47301832 0 650.40829003 0 2215.32860507 0 16887
0.12350000 0.12352200 13805.19603038 0 -157.86920726 0 4087.94661234 0 599.29733144 0 953.91289287 0 16407
0.12450000 0.12449800 13663.24882621 0 206.88085307 0 4090.69254890 0 -202.66229732 0 1392.43342454 0 16306
0.12550000 0.12549900 13270.51346489 0 515.72895987 0 3695.20017870 0 -208.72328792 0 661.66773714 0 17523
0.12650000 0.12650100 12944.43349898 0 266.05467860 0 3834.13571053 0 -269.66204203 0 489.20520576 0 17154
0.12750000 0.12750600 13023.71134468 0 -2.72292826 0 3570.95762191 0 -377.78218665 0 -167.21314218 0 18007
0.12850000 0.12850300 12817.87682631 0 104.63978076 0 3812.76612363 0 -471.88476805 0 -360.57690111 0 17496
0.12950000 0.12949900 12818.20899605 0 252.93508092 0 4303.54692121 0 -151.07301429 0 -462.00714708 0 18405
0.13050000 0.13049000 12710.25382907 0 86.09153295 0 3686.91807974 0 -196.77514221 0 -527.97827281 0 18100
0.13150000 0.13148800 12661.97849286 0 206.75352134 0 4147.58215382 0 -8.56338030 0 -750.98375252 0 19059
0.13250000 0.13249300 12431.67413663 0 216.08195500 0 3964.44590132 0 92.53684395 0 -981.14306129 0 18957
0.13350000 0.13349100 12357.37883710 0 260.19077538 0 4246.49123142 0 301.31671145 0 -734.30883135 0 19468
0.13450000 0.13450700 12153.42661394 0 176.21162056 0 4053.31238031 0 195.45753556 0 -433.29771606 0 19953
0.13550000 0.13551000 11841.51922380 0 285.40910239 0 3696.73923185 0 595.94352425 0 -30.88370345 0 19956
0.13650000 0.13649900 11678.31315597 0 215.62245352 0 3986.51304468 0 376.28742280 0 -26.28005223 0 19723
0.13750000 0.13749600 11640.00291210 0 26.75859811 0 3703.89195368 0 418.72542936 0 -42.28731222 0 20946
0.13850000 0.13851100 11404.27311671 0 25.01315683 0 3729.18114357 0 85.77575024 0 219.66938824 0 20955
0.13950000 0.13949800 11599.69964976 0 25.68281103 0 3535.47082087 0 86.18066516 0 -115.19646741 0 20506
0.14050000 0.14048300 11569.14003326 0 87.29365525 0 3933.86414017 0 -99.17293111 0 138.37527219 0 21447
0.14150000 0.14148400 11318.24115287 0 229.15394168 0 3382.44021955 0 -136.35125121 0 605.78017762 0 21771
0.14250000 0.14249400 11291.77829655 0 127.56203977 0 3464.29791693 0 289.07514913 0 262.31112558 0 22470
0.14350000 0.14350900 11196.00268687 0 -6.04133723 0 3514.54412696 0 169.65237534 0 128.09794029 0 22519
0.14450000 0.14449900 11225.89796388 0 147.68599013 0 3442.89511306 0 276.25118253 0 -69.92903896 0 22218
0.14550000 0.14550500 11035.83043604 0 196.95008494 0 3849.47088040 0 222.98887122 0 506.77587802 0 23559
0.14650000 0.14650700 10971.89883254 0 259.43564283 0 3374.33527778 0 124.14622756 0 941.81084184 0 23044
0.14750000 0.14750500 10732.43766369 0 89.87084958 0 3644.84324543 0 369.80568385 0 1351.02292972 0 23649
0.14850000 0.14849900 10763.49553480 0 118.82929719 0 3334.45276378 0 306.25607555 0 1307.64156108 0 23640
0.14950000 0.14949500 10615.72428777 0 180.62504923 0 3701.99858614 0 136.96465801 0 1251.90347795 0 24457
0.15050000 0.15050000 10378.37793296 0 150.16729812 0 3484.88136877 0 186.79897755 0 1543.60387529 0 24591
0.15150000 0.15149900 10223.44289178 0 256.92665402 0 3653.69003296 0 -350.75574900 0 1003.82582592 0 25020
0.15250000 0.15250500 10132.99307033 0 202.31019739 0 3597.15474243 0 -41.99267766 0 1326.20984980 0 25297
0.15350000 0.15350100 9991.88736284 0 8.78342062 0 3557.46045796 0 -64.12758365 0 982.25472271 0 25452
0.15450000 0.15450400 9891.41708744 0 200.50651568 0 3338.38343910 0 118.95995062 0 672.02478978 0 26061
0.15550000 0.15549900 9800.90083205 0 124.52711554 0 3159.95292464 0 302.72068224 0 680.78299871 0 26128
0.15650000 0.15649500 9523.87126508 0 157.40306239 0 2829.66547530 0 393.40634420 0 166.13912667 0 26331
0.15750000 0.15749700 9519.56413073 0 81.87563455 0 2663.14878236 0 365.38118285 0 -19.73287585 0 27345
0.15850000 0.15849900 9249.95302139 0 116.67573001 0 2383.62794231 0 171.05856059 0 -258.28744274 0 26980
0.15950000 0.15949700 9215.59559748 0 231.68728960 0 2258.21171909 0 -139.11158179 0 -208.24607072 0 27777
0.16050000 0.16050000 9057.23920793 0 131.47832106 0 2211.20970023 0 28.07908357 0 4.09440178 0 28224
0.16150000 0.16150500 9005.45394475 0 9.40999240 0 2169.21237220 0 -81.83212031 0 -246.75229475 0 28075
0.16250000 0.16249700 9115.75644459 0 -70.64796501 0 2314.58092474 0 1.66642917 0 -3.53012289 0 28590
0.16350000 0.16349900 9042.75660706 0 62.86744236 0 2293.25562714 0 122.91498504 0 -349.33627696 0 29163
0.16450000 0.16449100 8973.74280647 0 269.12614151 0 2497.11927170 0 78.30182027 0 227.90276897 0 28996
0.16550000 0.16550500 8756.93561420 0 238.91751770 0 2375.46763892 0 220.25954315 0 332.79533091 0 30777
0.16650000 0.16650700 8597.17303939 0 157.02660335 0 2577.93617055 0 32.90119175 0 624.97515992 0 29211
0.16750000 0.16749900 8582.60185993 0 68.84738355 0 2331.76517286 0 277.91092402 0 225.66837383 0 30922
0.16850000 0.16850800 8426.60387556 0 190.15278474 0 2492.04814693 0 -167.68703768 0 291.29515026 0 30867
0.16950000 0.16949900 8390.58560292 0 273.47645793 0 2411.59663480 0 -213.41131025 0 379.93796829 0 30852
0.17050000 0.17049200 8154.30219129 0 95.07882828 0 2525.06581954 0 -212.88758929 0 269.96431650 0 31257
0.17150000 0.17149500 8088.82046231 0 66.59172954 0 2374.47112968 0 -136.92590487 0 190.48384725 0 32608
0.17250000 0.17250900 8107.98665657 0 40.48064098 0 2520.60367264 0 104.64808500 0 -134.00724005 0 32361
0.17350000 0.17350400 8184.77322919 0 -31.85640718 0 2879.38021374 0 140.50780195 0 -155.64034828 0 32508
0.17450000 0.17449800 8007.09563283 0 149.86170196 0 2599.75972277 0 198.94421064 0 -295.37751642 0 32791
0.17550000 0.17549800 8009.74191846 0 140.84107893 0 2614.49698710 0 187.01710235 0 -4.99480323 0 33633
0.17650000 0.17650100 7845.18502700 0 149.48413568 0 2524.47898633 0 -95.23528023 0 179.45913343 0 33984
0.17750000 0.17750300 7807.42839937 0 136.23499180 0 2672.88135587 0 127.02503202 0 482.39461877 0 34069
0.17850000 0.17849800 7630.48157645 0 91.16930111 0 2536.85784547 0 193.88305097 0 387.33206681 0 34536
