### header ###
fiducial parameters:
Omega_m = 0.31
Omega_nu = 0
Omega_de = 0.69
Omega_k = 0
H_0 = 100
w_de = -1
zeff = 0
beta = 0
fgrowth = 0
b_1 = 2
gamma = 0.55
Lx = 3500 Ly = 3500 Lz = 3500
nx = 700 ny = 700 nz = 700
xoffset = -685.467585 yoffset = -31.7331281 zoffset = 572.489161
bins = 400 dk = 0.001
kx_ny = 0.628318531 ky_ny = 0.628318531 kz_ny = 0.628318531
############################
A(data) = 8.07635336 (not used)
A(ran) = 8.06985983 (used)
Ngal = 479924
weighted Ngal = 0
Nran = 23820508
weighted Nran = 0
SN(data) = 3492.56555
SN(ran) = 70.2914058
SN(data+ran) = 3562.85695
############################
13 columns: k_central k_mean P_0(k) sigma^{lin}_{P_0(k)} P^img_1(k) sigma^{lin}_{P_1(k)} P_2(k) sigma^{lin}_{P_2(k)} P^img_3(k) sigma^{lin}_{P_3(k)} P_4(k) sigma^{lin}_{P_4(k)} N_modes
### header ###
0.00050000 0 0 0 0 0 0 0 0 0 0 0 0
0.00150000 0.00179520 77472.83530957 0 -68064.79163442 0 29969.68303313 0 -1302.57043632 0 8486.64909305 0 3
0.00250000 0.00253879 118174.92278941 0 -33382.28426548 0 28414.57501235 0 -31368.11765772 0 42608.63109036 0 6
0.00350000 0.00331552 115076.88630515 0 5608.22109924 0 24450.79345052 0 -71545.59838765 0 -2088.19617150 0 7
0.00450000 0.00420575 89837.63260430 0 40450.96715295 0 12470.64871999 0 -36013.17936564 0 58565.29055626 0 24
0.00550000 0.00557378 55458.61765864 0 22884.05948868 0 27629.99007570 0 -8249.45775078 0 29730.52081704 0 45
0.00650000 0.00659388 38374.13118672 0 11375.81724193 0 41586.43406311 0 5645.10301321 0 5656.76217125 0 40
0.00750000 0.00754703 53235.51628156 0 -5961.38397166 0 28152.71453039 0 18422.02331002 0 -8627.04617175 0 57
0.00850000 0.00846663 69066.06196777 0 -23676.28432946 0 39350.37806598 0 1872.23047591 0 -4135.86763416 0 75
0.00950000 0.00948925 84751.33875236 0 -6942.50267384 0 39272.65034575 0 -19945.57520506 0 -18282.06912431 0 112
0.01050000 0.01054430 88588.67436476 0 3211.16242693 0 64515.22574405 0 -15781.82745701 0 -18535.51463941 0 105
0.01150000 0.01145670 91663.12679715 0 3311.24517097 0 49897.32107198 0 11828.45388051 0 -1184.78304489 0 144
0.01250000 0.01249090 90780.55178585 0 -4764.48780341 0 72514.42680929 0 2583.71592411 0 -34354.54510781 0 169
0.01350000 0.01339930 99907.24768737 0 1928.59968156 0 49194.78206224 0 22419.46473929 0 -27264.38191019 0 180
0.01450000 0.01448870 100407.16315293 0 10.96520008 0 45034.79890462 0 -6939.02596385 0 -28216.93401433 0 267
0.01550000 0.01550050 89247.36696822 0 4832.00684016 0 36534.68586460 0 -6199.99257150 0 -17615.07227723 0 238
0.01650000 0.01653350 90818.30841349 0 3504.94442134 0 36990.20130764 0 5454.72546028 0 -15204.62716421 0 315
0.01750000 0.01747870 87707.76020218 0 -767.13163104 0 32006.10501377 0 13624.16351960 0 -18962.02059142 0 297
0.01850000 0.01844180 80622.91172048 0 869.87173303 0 18568.84233711 0 27152.21925977 0 -24867.22358695 0 388
0.01950000 0.01947590 79543.47077391 0 1085.16644573 0 16767.48581237 0 18747.32821319 0 -17640.31717782 0 399
0.02050000 0.02045430 76952.32531985 0 5331.74514852 0 2327.20337503 0 18319.60430544 0 3659.87946253 0 462
0.02150000 0.02154770 78149.79724898 0 -1656.67445634 0 13654.61241285 0 6462.42881435 0 15129.33535545 0 571
0.02250000 0.02255340 76959.07943799 0 1155.77355387 0 20715.10177996 0 -10746.77632433 0 19021.81114544 0 510
0.02350000 0.02348930 75876.64896372 0 11719.61292754 0 32536.02647959 0 -5163.13578618 0 36989.75841464 0 555
0.02450000 0.02439640 69762.84336860 0 5665.74182668 0 29367.79145598 0 -3689.30970190 0 34529.15567020 0 592
0.02550000 0.02547300 67628.65275981 0 -1333.82760928 0 37629.51734267 0 7689.40848913 0 28721.49985632 0 837
0.02650000 0.02652900 69963.36317107 0 -356.28637525 0 33050.88958366 0 140.97394682 0 26493.19448657 0 723
0.02750000 0.02749970 70452.20631181 0 1021.35442334 0 36220.34256300 0 983.27005489 0 7689.88459910 0 826
0.02850000 0.02848090 70428.84370645 0 1632.27105244 0 26274.84824114 0 -6157.18696375 0 8365.18568979 0 831
0.02950000 0.02946900 68512.22428034 0 2104.89323732 0 23389.51111665 0 -1954.78572976 0 -2687.99507925 0 996
0.03050000 0.03053250 64858.24636694 0 3150.49715925 0 22474.93708663 0 971.53560505 0 -12708.03936410 0 1041
0.03150000 0.03150510 65578.61181964 0 752.72321475 0 24911.84505597 0 2445.51116572 0 -16036.60165109 0 1036
0.03250000 0.03246190 63794.41739836 0 1170.78762632 0 19968.27347094 0 11034.97786703 0 -19212.80874856 0 1059
0.03350000 0.03345080 60545.35440358 0 3947.15092995 0 21144.26508993 0 3994.88372224 0 -13516.98341536 0 1302
0.03450000 0.03451200 57413.10443563 0 1669.83945055 0 14488.57991819 0 9935.81710996 0 -5019.67167351 0 1339
0.03550000 0.03553350 55543.21022026 0 1907.83907253 0 17063.55977802 0 5955.80351995 0 1160.45714727 0 1365
0.03650000 0.03647120 54591.87607184 0 2695.09243946 0 18315.39682201 0 -2798.25328979 0 2306.24346415 0 1308
0.03750000 0.03744890 53510.77427655 0 1991.04759354 0 22236.21776354 0 -2444.51465649 0 7915.19533683 0 1579
0.03850000 0.03847530 52215.75516576 0 4101.38841467 0 24676.89032332 0 -3313.33784036 0 7791.29602211 0 1662
0.03950000 0.03950240 47773.09555552 0 2071.60982892 0 23990.40618456 0 1595.75452519 0 12366.34742020 0 1683
0.04050000 0.04050350 49650.51895177 0 414.51462424 0 25050.47056270 0 5151.55413442 0 10864.85159619 0 1822
0.04150000 0.04152450 49632.13889257 0 689.16142690 0 25809.25698252 0 6431.01662884 0 9545.70588963 0 1887
0.04250000 0.04250150 47373.49535282 0 2032.82347508 0 22087.95933422 0 6589.40623537 0 7916.62366673 0 1920
0.04350000 0.04349210 44758.43367715 0 3578.47573046 0 21201.50900924 0 435.39259991 0 6713.41627334 0 2005
0.04450000 0.04448520 43321.68880868 0 1514.04076803 0 21160.09851442 0 -857.30685883 0 7016.21114016 0 2151
0.04550000 0.04548030 41463.42053437 0 -357.67263031 0 19556.05081794 0 1237.88591472 0 5365.62646247 0 2274
0.04650000 0.04648670 41821.94241200 0 526.10704992 0 19066.21116796 0 -624.74485557 0 4607.85869653 0 2311
0.04750000 0.04749250 41962.89310694 0 435.43910368 0 18375.74099227 0 -120.75698894 0 236.82152662 0 2568
0.04850000 0.04851840 40214.57301808 0 1623.75643465 0 17718.59851429 0 1196.76330035 0 85.59848232 0 2493
0.04950000 0.04949480 39389.35264934 0 110.75757239 0 14796.50127140 0 2432.98836635 0 -655.45062675 0 2644
0.05050000 0.05050630 38935.05516203 0 136.36675247 0 15601.68073221 0 2518.24526745 0 -4670.15159596 0 2829
0.05150000 0.05149060 38782.14635629 0 1425.67254365 0 13756.80997093 0 3668.96984121 0 -3950.49477204 0 2784
0.05250000 0.05249300 37590.09986631 0 -688.82482822 0 11062.13827981 0 2668.85102964 0 -4034.52264509 0 3055
0.05350000 0.05348950 37522.33723842 0 -544.97429141 0 8497.63283927 0 1103.43245999 0 -2199.80520567 0 3009
0.05450000 0.05448610 38685.04206763 0 -712.75876555 0 9956.07946438 0 3271.83876694 0 -4882.18661623 0 3336
0.05550000 0.05550870 39100.25424833 0 254.91259814 0 9894.30696422 0 -54.81896945 0 -2380.11801534 0 3349
0.05650000 0.05647670 37564.41207273 0 2462.68434151 0 8206.48605816 0 109.58634187 0 881.11900058 0 3324
0.05750000 0.05747970 36005.09656852 0 2671.89591896 0 10289.75504511 0 -1510.05473109 0 3558.20230372 0 3639
0.05850000 0.05849280 34467.03992796 0 1275.86398885 0 12403.77187809 0 272.86969453 0 3687.71528712 0 3846
0.05950000 0.05951020 33915.52742875 0 1410.27093983 0 13992.65048956 0 -1361.01016671 0 4365.74016972 0 3787
0.06050000 0.06049470 32999.95688949 0 487.70933468 0 15377.79832438 0 249.28010650 0 3963.63762160 0 3930
0.06150000 0.06148310 32783.16076954 0 14.70891918 0 13588.95352668 0 -46.25496910 0 3170.70415204 0 4083
0.06250000 0.06249100 32891.22665977 0 -333.84277284 0 13371.82523698 0 1819.31583560 0 2471.03287443 0 4303
0.06350000 0.06350600 32914.58926514 0 6.38946219 0 12416.06215864 0 2004.42296192 0 -283.00751513 0 4470
0.06450000 0.06451750 33168.03478024 0 764.65696644 0 10507.14907060 0 1111.77213504 0 -151.42732868 0 4479
0.06550000 0.06550280 30758.14328346 0 1345.09923594 0 10260.19193785 0 2462.70648616 0 -92.81331990 0 4636
0.06650000 0.06648880 30972.83566170 0 920.15780343 0 8204.70341387 0 -85.85912485 0 -1574.04169622 0 4653
0.06750000 0.06749660 29185.76243597 0 530.18498715 0 8496.38166656 0 1443.75365008 0 770.05583202 0 5220
0.06850000 0.06852730 29020.00973343 0 881.45559926 0 7966.61521329 0 115.45998874 0 988.90143930 0 5029
0.06950000 0.06949320 29103.93795556 0 -7.44568448 0 9653.57247801 0 -657.28641821 0 1573.45486300 0 5040
0.07050000 0.07048030 29235.47717440 0 214.52961506 0 10283.01199930 0 -529.87828375 0 330.25976853 0 5475
0.07150000 0.07148790 28392.54108596 0 1012.88188039 0 9934.56593726 0 -733.10748410 0 1622.19523686 0 5509
0.07250000 0.07249820 28250.92605153 0 -38.49537314 0 10181.68915488 0 502.85073887 0 600.95818016 0 5916
0.07350000 0.07351270 28380.69369840 0 -282.04865180 0 9889.43514130 0 940.66817792 0 54.22848237 0 5721
0.07450000 0.07449140 28494.73864403 0 192.74813768 0 9131.18019307 0 313.16963517 0 -2343.93365783 0 6028
0.07550000 0.07549160 28221.14149777 0 1085.12104920 0 8607.73603726 0 350.02386833 0 -3161.94594311 0 6183
0.07650000 0.07648840 26200.55294161 0 1494.83028447 0 8486.80410559 0 -803.01814301 0 -1819.20511235 0 6330
0.07750000 0.07749960 25648.81899590 0 1235.06247190 0 7803.08804804 0 1372.21535942 0 -2311.63568634 0 6583
0.07850000 0.07848650 24925.90690849 0 -365.49079887 0 7648.17515151 0 1677.77830744 0 -1717.06291590 0 6549
0.07950000 0.07947320 24693.38808730 0 149.90377679 0 7086.84150017 0 2874.76305429 0 -3453.03736259 0 6828
0.08050000 0.08048110 24891.58270155 0 -62.73036698 0 7367.31456016 0 -327.88807655 0 -1360.06901910 0 7147
0.08150000 0.08149960 24251.15943404 0 592.80452016 0 6883.09965119 0 180.81438599 0 -589.91796508 0 7386
0.08250000 0.08250610 24187.16139659 0 488.21533993 0 7968.94040150 0 132.90000757 0 263.83689194 0 7227
0.08350000 0.08350160 23905.59217645 0 283.41940562 0 7234.38022838 0 -614.56385290 0 12.63285828 0 7798
0.08450000 0.08449610 23856.32033101 0 161.02371261 0 7986.51218099 0 18.09505756 0 -1239.53569112 0 7371
0.08550000 0.08548940 23227.41228131 0 781.69838157 0 8203.20865001 0 -304.98054373 0 481.67713212 0 8256
0.08650000 0.08650700 22586.10322781 0 932.30525098 0 7812.90920016 0 799.11847021 0 -448.98166416 0 8037
0.08750000 0.08749060 21290.08760779 0 1161.09934211 0 8097.82226239 0 673.78418219 0 741.81254587 0 8155
0.08850000 0.08849210 21011.06502236 0 642.34320863 0 7492.16609481 0 593.18983707 0 -505.00541328 0 8718
0.08950000 0.08949900 19718.48182303 0 481.89525692 0 7750.94847047 0 624.92312000 0 639.14330676 0 8571
0.09050000 0.09049190 19521.50516451 0 690.60193636 0 7875.53426933 0 -117.21827393 0 -255.84267342 0 8932
0.09150000 0.09150830 19093.89198001 0 459.82811356 0 8197.89393410 0 445.01223572 0 845.41296751 0 9285
0.09250000 0.09250820 18864.58413302 0 372.38332107 0 7746.66348077 0 -892.78037308 0 750.24412122 0 9204
0.09350000 0.09350330 18687.98055216 0 225.38160061 0 7630.95768641 0 -53.17694368 0 -454.47796620 0 9349
0.09450000 0.09448040 18947.18367616 0 102.82447311 0 7957.43625602 0 -158.20248424 0 -871.89907570 0 9564
0.09550000 0.09549270 18415.37991512 0 267.83067950 0 7464.06453442 0 -160.44795171 0 -1387.57267395 0 10155
0.09650000 0.09649430 18309.63921311 0 162.57937424 0 7569.04124603 0 273.72337077 0 -1178.91471274 0 9913
0.09750000 0.09749140 18129.60321156 0 395.39050481 0 6682.82343987 0 897.91239563 0 -2263.43785640 0 10476
0.09850000 0.09850240 17712.28728914 0 256.05083313 0 6587.26927668 0 1038.93727515 0 -1151.12317745 0 10575
0.09950000 0.09950330 17417.76344896 0 406.95111915 0 5708.34813258 0 1068.12613784 0 -975.15404080 0 10882
0.10050000 0.10051200 17334.27811983 0 136.68784989 0 5949.19334203 0 778.32464420 0 -123.59925472 0 10875
0.10150000 0.10150300 16970.77369604 0 253.56620344 0 6058.69863449 0 154.34710074 0 -278.60958771 0 11118
0.10250000 0.10250800 16869.57264719 0 269.75504956 0 6481.98253998 0 -326.28369669 0 358.81307977 0 11575
0.10350000 0.10349800 16687.21145743 0 537.01439710 0 6374.21560252 0 -315.69523246 0 908.95593241 0 11364
0.10450000 0.10450100 16409.73899747 0 279.39350831 0 6653.44856212 0 -31.93302767 0 1928.67718784 0 12093
0.10550000 0.10551000 16618.45232031 0 -163.91580385 0 7384.98599057 0 752.19838655 0 2137.92198226 0 12067
0.10650000 0.10649700 16513.92957402 0 -15.98555823 0 7064.79650146 0 190.46613153 0 1324.06181879 0 12054
0.10750000 0.10749900 16628.30668939 0 345.06125235 0 6946.26726428 0 408.68836692 0 1579.51142468 0 12807
0.10850000 0.10850100 15929.86443983 0 503.67562707 0 6451.79938253 0 -186.13020913 0 1549.33933955 0 12736
0.10950000 0.10950300 15699.67080685 0 451.09869267 0 6621.54919432 0 592.37048503 0 2155.74842522 0 12933
0.11050000 0.11050200 15342.58833145 0 -96.88029553 0 6155.21608993 0 1012.55746127 0 1668.41112065 0 13428
0.11150000 0.11150900 15403.04322496 0 -163.47512532 0 5807.03576369 0 1285.44154982 0 1224.21159357 0 13453
0.11250000 0.11250000 15271.61472937 0 223.08962938 0 5363.50057610 0 593.82428128 0 1179.35760573 0 13668
0.11350000 0.11349100 15181.59672859 0 124.61237244 0 4919.04638556 0 807.92650460 0 687.10086725 0 13791
0.11450000 0.11448600 14970.11532455 0 106.78803322 0 4569.65917590 0 -164.37751979 0 1882.15127895 0 14205
0.11550000 0.11549300 14976.42654970 0 205.91534635 0 4871.02571282 0 -126.27432839 0 1263.81729945 0 14776
0.11650000 0.11649800 14927.15470426 0 146.73044850 0 4995.71116260 0 -225.32402452 0 1116.84325981 0 14553
0.11750000 0.11747300 14866.92125724 0 327.88696932 0 5197.95824774 0 -165.56336578 0 1558.88368354 0 14568
0.11850000 0.11849100 14450.49112082 0 408.74372854 0 5071.35728576 0 -272.40687135 0 1130.29613446 0 16015
0.11950000 0.11950300 14292.82121540 0 281.32562899 0 5783.39635020 0 -93.98089655 0 1027.49734915 0 15270
0.12050000 0.12050700 13934.63150751 0 158.58337222 0 5333.16240610 0 -151.33653562 0 -35.25693958 0 15999
0.12150000 0.12150000 13802.53867243 0 269.19146822 0 5172.61369623 0 80.84214375 0 -615.04660626 0 15670
0.12250000 0.12250700 13414.23224104 0 247.00474375 0 5000.09580323 0 -85.36784580 0 -860.67063111 0 16887
0.12350000 0.12352200 13474.24424156 0 2.87864944 0 4670.32875315 0 126.38837334 0 -667.10978479 0 16407
0.12450000 0.12449800 13537.46721627 0 -219.74800175 0 4372.92610853 0 636.04416304 0 -846.16145666 0 16306
0.12550000 0.12549900 13511.00435995 0 -135.51639792 0 3843.97900729 0 1097.36814768 0 -1129.17782966 0 17523
0.12650000 0.12650100 13585.63182923 0 389.38044690 0 3837.13631055 0 318.26511905 0 -772.83941448 0 17154
0.12750000 0.12750600 13177.61665966 0 444.53834021 0 3457.21162905 0 481.91186541 0 -102.83488109 0 18007
0.12850000 0.12850300 12986.72977979 0 178.54677386 0 3442.92833003 0 348.10946337 0 743.78452693 0 17496
0.12950000 0.12949900 12719.00096568 0 69.04801408 0 3298.50092510 0 446.73066053 0 703.02397757 0 18405
0.13050000 0.13049000 12683.79097275 0 233.71906120 0 3536.36767918 0 171.32761808 0 235.09978011 0 18100
0.13150000 0.13148800 12525.34600460 0 163.31014768 0 3522.00687389 0 -271.53769385 0 320.26367368 0 19059
0.13250000 0.13249300 12462.23375313 0 146.87217425 0 3847.93182725 0 -624.75371343 0 198.53453463 0 18957
0.13350000 0.13349100 12289.72693246 0 143.20612751 0 3955.69876471 0 -240.72895004 0 131.16940320 0 19468
0.13450000 0.13450700 12469.65221076 0 31.41528576 0 4282.95239705 0 -194.35030308 0 -361.53465721 0 19953
0.13550000 0.13551000 12180.88597949 0 242.57692106 0 3816.06567642 0 58.02086434 0 -402.02061291 0 19956
0.13650000 0.13649900 11925.22599943 0 277.77916335 0 4199.98746718 0 279.18645584 0 -372.76642351 0 19723
0.13750000 0.13749600 11852.25937887 0 316.44704332 0 3965.07702383 0 480.48796444 0 -82.64925789 0 20946
0.13850000 0.13851100 11579.54801859 0 174.41015331 0 3723.88857231 0 614.00691496 0 433.23792550 0 20955
0.13950000 0.13949800 11348.46859962 0 173.58415788 0 3373.36091320 0 586.24970387 0 301.50161928 0 20506
0.14050000 0.14048300 11346.69702765 0 201.67907487 0 3025.52382902 0 482.74007530 0 980.41007339 0 21447
0.14150000 0.14148400 11296.87156597 0 -53.07186732 0 3408.53768915 0 323.32517149 0 1123.24306355 0 21771
0.14250000 0.14249400 11086.94028741 0 71.68632764 0 3117.34661874 0 135.39792404 0 1024.80455975 0 22470
0.14350000 0.14350900 11305.72942582 0 40.68525755 0 3110.07210134 0 -100.98702080 0 841.30181330 0 22519
0.14450000 0.14449900 11141.30540227 0 -8.67129118 0 3516.98003842 0 -296.69069414 0 849.28274503 0 22218
0.14550000 0.14550500 11065.79214700 0 281.24701549 0 3341.87122141 0 -102.06380439 0 932.78136095 0 23559
0.14650000 0.14650700 10863.71114674 0 405.31352231 0 3530.33326215 0 -21.44598594 0 1584.56040480 0 23044
0.14750000 0.14750500 10576.41753467 0 222.60023262 0 3324.45445447 0 376.74803151 0 1071.75010975 0 23649
0.14850000 0.14849900 10427.20688541 0 122.37244113 0 3280.24266147 0 461.46792486 0 1441.81599323 0 23640
0.14950000 0.14949500 10325.82867937 0 188.94257964 0 3321.85245814 0 474.12248490 0 1201.82335279 0 24457
0.15050000 0.15050000 10153.00076128 0 210.37306432 0 3380.32540551 0 -128.12340664 0 897.45732308 0 24591
0.15150000 0.15149900 9922.00992091 0 321.97545510 0 3417.04123461 0 -450.74548551 0 938.66630159 0 25020
0.15250000 0.15250500 9593.70441771 0 241.75867625 0 3433.74937276 0 -467.46580322 0 1027.77637173 0 25297
0.15350000 0.15350100 9470.91233548 0 135.52304132 0 3350.20868200 0 11.34071797 0 588.95799452 0 25452
0.15450000 0.15450400 9444.52698543 0 0.02008320 0 3413.17699325 0 237.44046957 0 225.43364054 0 26061
0.15550000 0.15549900 9542.26239661 0 -59.26893680 0 3213.44332584 0 325.93602569 0 -94.82361119 0 26128
0.15650000 0.15649500 9447.35042826 0 140.27749759 0 2824.97080958 0 449.06027767 0 138.36973603 0 26331
0.15750000 0.15749700 9415.60607301 0 33.86990945 0 2660.83466647 0 279.60388248 0 363.85652373 0 27345
0.15850000 0.15849900 9278.19852201 0 86.58701948 0 2610.02376788 0 296.68958691 0 96.47183747 0 26980
0.15950000 0.15949700 9274.71073969 0 181.81421692 0 2793.69149197 0 34.72436076 0 365.11655429 0 27777
0.16050000 0.16050000 9032.04966896 0 218.85667960 0 2489.62330780 0 105.42901607 0 267.86721818 0 28224
0.16150000 0.16150500 8998.82162218 0 55.71649210 0 2611.05349408 0 44.70185410 0 303.89434867 0 28075
0.16250000 0.16249700 8946.96992506 0 -1.11063169 0 2289.04814371 0 -156.42094718 0 -13.95245795 0 28590
0.16350000 0.16349900 8901.94985234 0 109.52322962 0 2723.50402494 0 -154.56854724 0 -383.13454847 0 29163
0.16450000 0.16449100 8883.69158872 0 222.81835742 0 2184.84649484 0 -288.33441060 0 -332.25167976 0 28996
0.16550000 0.16550500 8731.97859405 0 151.14830610 0 2550.24428618 0 -70.78902643 0 -406.62670003 0 30777
0.16650000 0.16650700 8657.57257127 0 34.94038181 0 2495.91238829 0 -6.97019456 0 -388.71500018 0 29211
0.16750000 0.16749900 8650.88488708 0 -9.76463897 0 2578.17976170 0 300.36892045 0 -475.18764254 0 30922
0.16850000 0.16850800 8704.06526319 0 -74.63865233 0 2535.23021373 0 192.20337929 0 -407.40951340 0 30867
0.16950000 0.16949900 8778.21662250 0 -12.91774920 0 2622.70157979 0 92.45889478 0 -401.98628870 0 30852
0.17050000 0.17049200 8778.02839297 0 125.28999872 0 2757.47391749 0 -20.13258677 0 32.27748770 0 31257
0.17150000 0.17149500 8707.66376875 0 192.88764897 0 2868.27467195 0 -92.89603017 0 270.71723458 0 32608
0.17250000 0.17250900 8621.13355029 0 202.49731968 0 3075.42679698 0 -74.61241092 0 456.53077522 0 32361
0.17350000 0.17350400 8547.34757770 0 123.80298549 0 2941.01984600 0 188.16198074 0 436.50204686 0 32508
0.17450000 0.17449800 8293.76919471 0 36.87360973 0 2872.58180630 0 350.28517520 0 565.93088060 0 32791
0.17550000 0.17549800 8382.18170838 0 16.06771488 0 2694.85992064 0 350.83546974 0 273.12103630 0 33633
0.17650000 0.17650100 8186.69981371 0 161.06689467 0 2200.00450752 0 255.09529150 0 52.30278364 0 33984
0.17750000 0.17750300 8124.68372240 0 135.69244788 0 2100.55288600 0 100.22059448 0 19.71582447 0 34069
0.17850000 0.17849800 7927.69599155 0 75.40253201 0 1630.95344579 0 93.51807337 0 -222.66334487 0 34536
