### header ###
fiducial parameters:
Omega_m = 0.31
Omega_nu = 0
Omega_de = 0.69
Omega_k = 0
H_0 = 100
w_de = -1
zeff = 0
beta = 0
fgrowth = 0
b_1 = 2
gamma = 0.55
Lx = 3500 Ly = 3500 Lz = 3500
nx = 700 ny = 700 nz = 700
xoffset = -685.467585 yoffset = -31.7331281 zoffset = 572.489161
bins = 400 dk = 0.001
kx_ny = 0.628318531 ky_ny = 0.628318531 kz_ny = 0.628318531
############################
A(data) = 8.00294683 (not used)
A(ran) = 8.00284261 (used)
Ngal = 475610
weighted Ngal = 0
Nran = 23820508
weighted Nran = 0
SN(data) = 3486.50783
SN(ran) = 69.7076615
SN(data+ran) = 3556.21549
############################
13 columns: k_central k_mean P_0(k) sigma^{lin}_{P_0(k)} P^img_1(k) sigma^{lin}_{P_1(k)} P_2(k) sigma^{lin}_{P_2(k)} P^img_3(k) sigma^{lin}_{P_3(k)} P_4(k) sigma^{lin}_{P_4(k)} N_modes
### header ###
0.00050000 0 0 0 0 0 0 0 0 0 0 0 0
0.00150000 0.00179520 18545.14756200 0 -25182.89556753 0 -9545.57302173 0 -27295.60586618 0 -29131.17587461 0 3
0.00250000 0.00253879 43888.48111615 0 -38168.29666834 0 -10878.79165314 0 -12356.60377436 0 26919.81116183 0 6
0.00350000 0.00331552 50113.12068270 0 -17309.14394249 0 -1663.02997079 0 -16480.71259956 0 22550.89323489 0 7
0.00450000 0.00420575 60671.80035301 0 6807.08814131 0 5418.06499281 0 -22778.87240290 0 30340.60591455 0 24
0.00550000 0.00557378 47882.49012473 0 7101.78913868 0 11129.23656821 0 -8483.60420372 0 11071.27294779 0 45
0.00650000 0.00659388 44633.42712995 0 4351.30185815 0 10716.84783034 0 16441.95946270 0 5946.59134570 0 40
0.00750000 0.00754703 52268.90232489 0 -17997.73182297 0 -4821.41062531 0 37629.07444967 0 -5215.19785748 0 57
0.00850000 0.00846663 52057.53164410 0 -11292.11046630 0 -12147.77972828 0 25234.71404768 0 -28511.34713126 0 75
0.00950000 0.00948925 78407.00735452 0 -18286.05516124 0 -26005.01568531 0 -2653.92553578 0 -24037.24211854 0 112
0.01050000 0.01054430 74301.16786527 0 7013.62021615 0 -12634.85129705 0 -24421.23034325 0 -18244.75538967 0 105
0.01150000 0.01145670 67209.23309568 0 19465.03630793 0 -16879.86990927 0 -35998.56389688 0 5803.02758210 0 144
0.01250000 0.01249090 56101.36611437 0 8316.87713660 0 -6720.23682543 0 458.89250211 0 10202.94801854 0 169
0.01350000 0.01339930 51503.36178693 0 362.00523102 0 1579.69965420 0 -940.04037710 0 -4146.10953462 0 180
0.01450000 0.01448870 51792.68163444 0 -4635.28484510 0 -9477.12390970 0 11890.12672975 0 -18572.27475780 0 267
0.01550000 0.01550050 57679.28312427 0 -2859.14000397 0 -5957.23184985 0 6189.52922455 0 -6677.69695348 0 238
0.01650000 0.01653350 56765.26271049 0 -984.37175121 0 -14209.22516302 0 -14457.46668545 0 -18246.85913138 0 315
0.01750000 0.01747870 63700.52408390 0 1303.50051160 0 54.61701025 0 -27753.77866717 0 -19172.61620947 0 297
0.01850000 0.01844180 56153.29531776 0 3206.82207560 0 3227.83734811 0 -21477.32062047 0 -2595.48580539 0 388
0.01950000 0.01947590 58349.60166879 0 -608.60694214 0 5995.33171955 0 -9144.31197030 0 -9458.42275308 0 399
0.02050000 0.02045430 60749.52807323 0 -6631.69144385 0 20596.18501140 0 3098.40187098 0 -13725.14312195 0 462
0.02150000 0.02154770 68164.33183454 0 -5943.53538405 0 9555.46060779 0 12743.36008028 0 -13284.68604066 0 571
0.02250000 0.02255340 72997.62306437 0 -1610.93468251 0 5943.32500988 0 9734.59975103 0 -2311.30351659 0 510
0.02350000 0.02348930 72418.87264610 0 -548.54179447 0 7015.95647669 0 7768.88563668 0 -572.88872951 0 555
0.02450000 0.02439640 68965.30381192 0 2368.83531635 0 11090.92632434 0 1370.17805166 0 21608.19549983 0 592
0.02550000 0.02547300 69204.35530475 0 4099.38432388 0 12232.59373639 0 5431.09711912 0 6829.58710534 0 837
0.02650000 0.02652900 62824.26029775 0 3249.21800733 0 12148.44406777 0 -3021.38277954 0 19819.90431837 0 723
0.02750000 0.02749970 64315.70245082 0 5773.76342761 0 13746.06981585 0 -4015.81041615 0 6262.11938606 0 826
0.02850000 0.02848090 60871.65581598 0 3097.06211967 0 16978.74576991 0 -2485.32724577 0 15604.33809017 0 831
0.02950000 0.02946900 58575.03420210 0 -1331.31419154 0 20258.25765794 0 3482.45652964 0 7069.41366091 0 996
0.03050000 0.03053250 57987.86881697 0 -1420.45747866 0 17211.37531434 0 -1445.45878810 0 -802.21982839 0 1041
0.03150000 0.03150510 57974.24985744 0 4243.99995834 0 16487.90961069 0 -835.67042890 0 -9456.93906155 0 1036
0.03250000 0.03246190 55605.32596249 0 5541.23353409 0 14774.57806826 0 -2512.12227183 0 -6583.41610765 0 1059
0.03350000 0.03345080 50432.11436072 0 2872.85861442 0 11986.78812542 0 -5026.29292375 0 -5794.08114365 0 1302
0.03450000 0.03451200 48878.44574217 0 -601.62030518 0 14309.87259562 0 2414.46436693 0 -6895.09097897 0 1339
0.03550000 0.03553350 49945.15351520 0 -1436.45698802 0 14883.52974447 0 4348.52270463 0 -2890.33074298 0 1365
0.03650000 0.03647120 49223.57010677 0 2141.35440295 0 14795.50476216 0 7129.70246955 0 -5460.22840572 0 1308
0.03750000 0.03744890 47881.05072251 0 1524.83628472 0 12722.87627936 0 6739.29229644 0 894.95940660 0 1579
0.03850000 0.03847530 45369.40456064 0 1101.77161126 0 8728.74547521 0 4656.66550433 0 729.98065957 0 1662
0.03950000 0.03950240 45454.88290824 0 1887.43277789 0 7986.42360239 0 2386.26315562 0 436.35699941 0 1683
0.04050000 0.04050350 43584.54579988 0 1112.84615055 0 6902.45407497 0 -3519.85884287 0 -2234.22906353 0 1822
0.04150000 0.04152450 40867.06511964 0 2589.82784741 0 9181.70321121 0 -6483.78732893 0 -6279.93475669 0 1887
0.04250000 0.04250150 40928.51652238 0 689.28211524 0 4280.49434094 0 -3920.13445739 0 -7047.50153009 0 1920
0.04350000 0.04349210 39190.38297235 0 -499.60544047 0 7008.17263234 0 -4818.63147178 0 -12707.70719436 0 2005
0.04450000 0.04448520 40662.33783374 0 1426.91264403 0 8514.82815971 0 -224.95420888 0 -15217.02816801 0 2151
0.04550000 0.04548030 39964.33847717 0 576.98216800 0 6511.84460002 0 -838.80057512 0 -15554.29118199 0 2274
0.04650000 0.04648670 38596.24202258 0 2216.33618662 0 9682.98057273 0 1651.23794485 0 -10371.51309157 0 2311
0.04750000 0.04749250 38614.84352828 0 -245.34168056 0 7882.45447234 0 -1783.20898437 0 -12060.08691572 0 2568
0.04850000 0.04851840 38684.59917463 0 652.75119396 0 10834.39163062 0 2320.42711224 0 -9948.42848793 0 2493
0.04950000 0.04949480 37998.33648238 0 1918.83389107 0 12586.46523760 0 -2743.88817493 0 -6168.17070997 0 2644
0.05050000 0.05050630 37270.10967905 0 21.88644302 0 13904.51478401 0 -1408.97547782 0 -3547.92718629 0 2829
0.05150000 0.05149060 36396.39252761 0 -2.56626594 0 15668.44685087 0 1946.41505219 0 -4790.12023537 0 2784
0.05250000 0.05249300 37812.09997893 0 -68.35400076 0 14857.95267414 0 1339.25304844 0 -3610.12043479 0 3055
0.05350000 0.05348950 37524.33025689 0 -236.87910271 0 14534.86223593 0 3320.15839244 0 -1419.39453548 0 3009
0.05450000 0.05448610 36930.07858387 0 886.18791088 0 14899.69533871 0 1544.98791589 0 -2176.68619145 0 3336
0.05550000 0.05550870 36346.78851243 0 905.06733193 0 13430.28711203 0 1184.87162349 0 -509.29151022 0 3349
0.05650000 0.05647670 35566.18961271 0 1099.62911641 0 13138.42062981 0 3847.86539330 0 2056.77291366 0 3324
0.05750000 0.05747970 34746.28395989 0 544.44724875 0 12680.57999855 0 -309.23785263 0 2373.89536879 0 3639
0.05850000 0.05849280 35288.82787600 0 96.63792234 0 13394.85567261 0 -606.67482146 0 87.44490321 0 3846
0.05950000 0.05951020 35123.85023621 0 -73.45147766 0 13985.67492493 0 -3288.58012206 0 -2202.72829942 0 3787
0.06050000 0.06049470 35482.15066734 0 220.79544367 0 12384.39530966 0 -1142.71928291 0 -2217.13339401 0 3930
0.06150000 0.06148310 34807.29246964 0 163.58031241 0 15971.49638115 0 -423.22854387 0 -3706.62681791 0 4083
0.06250000 0.06249100 35357.91918287 0 282.23798856 0 14118.54282275 0 322.78927097 0 -5440.13213617 0 4303
0.06350000 0.06350600 34809.28548811 0 632.68703416 0 14563.98245021 0 1516.39917321 0 -6065.43060798 0 4470
0.06450000 0.06451750 33808.67949425 0 1588.23641664 0 12792.96409546 0 2197.65717465 0 -3373.41627482 0 4479
0.06550000 0.06550280 31555.79356340 0 1028.29787823 0 12283.52643056 0 1873.85810766 0 -2888.90241308 0 4636
0.06650000 0.06648880 32316.46227844 0 403.39136672 0 12289.72693246 0 3390.36800412 0 -2839.24303627 0 4653
0.06750000 0.06749660 31436.98751809 0 588.77530116 0 12130.17473182 0 523.48844510 0 -1774.91581308 0 5220
0.06850000 0.06852730 29789.97920132 0 1343.96985881 0 11273.28751410 0 -75.52609916 0 -156.54495722 0 5029
0.06950000 0.06949320 29551.48132473 0 1359.74792168 0 11291.88901980 0 183.36544962 0 370.76454718 0 5040
0.07050000 0.07048030 28515.44389145 0 564.38518405 0 10997.74163867 0 1257.09639829 0 1470.07256617 0 5475
0.07150000 0.07148790 27963.04560624 0 -35.12761483 0 9936.32643690 0 3595.26137489 0 2289.63497692 0 5509
0.07250000 0.07249820 28229.99935762 0 -665.63384389 0 8146.24153882 0 1713.45333801 0 24.41514056 0 5916
0.07350000 0.07351270 28483.66631922 0 -251.16350895 0 6450.24925705 0 1449.63305456 0 -1557.56607689 0 5721
0.07450000 0.07449140 28467.16855524 0 291.74690111 0 8019.68486615 0 -1450.17559847 0 -385.82512340 0 6028
0.07550000 0.07549160 27936.91491967 0 1298.41831451 0 8118.40571423 0 -1355.06432828 0 14.03096073 0 6183
0.07650000 0.07648840 27333.25177056 0 630.35741702 0 9190.38391387 0 -1527.81474010 0 986.86634599 0 6330
0.07750000 0.07749960 26915.27150865 0 860.53997767 0 9543.40284606 0 1269.07665374 0 -105.03107672 0 6583
0.07850000 0.07848650 25994.38625349 0 937.97428129 0 10748.02749703 0 806.83145167 0 1218.90794999 0 6549
0.07950000 0.07947320 25423.27573934 0 734.61774921 0 10564.45942386 0 313.03344558 0 1402.28779363 0 6828
0.08050000 0.08048110 24705.23547485 0 307.06435527 0 10137.48843421 0 1597.41537391 0 1686.06040641 0 7147
0.08150000 0.08149960 24330.21583325 0 473.01635965 0 9771.54809895 0 19.80982850 0 828.68822087 0 7386
0.08250000 0.08250610 24013.43662018 0 889.85174317 0 10039.59801049 0 -540.26523167 0 178.33750692 0 7227
0.08350000 0.08350160 23167.84317378 0 835.35708211 0 9634.19590958 0 -329.47252623 0 885.84577605 0 7798
0.08450000 0.08449610 22609.24438668 0 648.71865326 0 9182.04645328 0 628.96341132 0 825.64000984 0 7371
0.08550000 0.08548940 21944.90489756 0 503.38663939 0 9558.45013549 0 384.34475357 0 1247.28631850 0 8256
0.08650000 0.08650700 21918.44204125 0 190.60121389 0 9510.57340298 0 1907.30760094 0 819.64434596 0 8037
0.08750000 0.08749060 21508.10168347 0 25.35185924 0 8841.59460976 0 1067.31564366 0 1769.68967576 0 8155
0.08850000 0.08849210 21439.34254634 0 -101.58315477 0 8704.44172223 0 1074.38864476 0 1219.04081788 0 8718
0.08950000 0.08949900 21778.93074853 0 -96.92668857 0 8294.05707515 0 672.88732388 0 1375.37097200 0 8571
0.09050000 0.09049190 21738.40603970 0 285.18322696 0 8108.93887651 0 301.82493116 0 1440.13299986 0 8932
0.09150000 0.09150830 20814.30981033 0 877.83716350 0 7452.73754613 0 418.30689549 0 807.37288836 0 9285
0.09250000 0.09250820 20185.73393038 0 1113.11188634 0 7302.48609834 0 365.21841968 0 1129.10032338 0 9204
0.09350000 0.09350330 19541.10317944 0 768.50681378 0 6712.32011318 0 620.51190579 0 842.89512084 0 9349
0.09450000 0.09448040 18606.82041124 0 534.76450070 0 6946.02367313 0 1110.89742138 0 1991.81158395 0 9564
0.09550000 0.09549270 18917.62056890 0 74.45186221 0 6450.35998030 0 549.78521655 0 1122.20226502 0 10155
0.09650000 0.09649430 18301.11352300 0 -181.83857603 0 6547.71893243 0 404.85291360 0 2398.45378524 0 9913
0.09750000 0.09749140 18863.36617729 0 267.25934754 0 6940.24391958 0 207.14215994 0 2696.22181659 0 10476
0.09850000 0.09850240 18385.26319162 0 306.69675408 0 6354.47364737 0 480.42485218 0 3068.03048400 0 10575
0.09950000 0.09950330 18067.93036232 0 255.19051349 0 6350.89728645 0 363.13460815 0 2574.60340078 0 10882
0.10050000 0.10051200 17828.54669974 0 523.54159226 0 6208.58469556 0 167.48109244 0 2048.04792171 0 10875
0.10150000 0.10150300 17248.46760249 0 941.57610856 0 6232.09124115 0 7.41618780 0 1166.43620267 0 11118
0.10250000 0.10250800 16437.41980952 0 315.25566117 0 5623.41232889 0 -320.81064653 0 1063.74481891 0 11575
0.10350000 0.10349800 16266.24166783 0 179.73704878 0 5577.45110857 0 65.86494214 0 1367.91929739 0 11364
0.10450000 0.10450100 16150.97876646 0 -130.28693891 0 5945.69448739 0 753.91902583 0 736.66391483 0 12093
0.10550000 0.10551000 16492.33854062 0 -286.29599560 0 5100.49964468 0 895.87730233 0 274.73316680 0 12067
0.10650000 0.10649700 16412.61780193 0 56.03006034 0 5079.10791313 0 -14.28418480 0 112.29219661 0 12054
0.10750000 0.10749900 16347.95542499 0 452.10848869 0 5188.46926537 0 -153.02174346 0 455.34050031 0 12807
0.10850000 0.10850100 16319.72099670 0 281.83606317 0 5688.77226230 0 -498.67093625 0 731.83084505 0 12736
0.10950000 0.10950300 15692.14162598 0 383.76677821 0 5790.82588015 0 -136.52840841 0 1345.34282709 0 12933
0.11050000 0.11050200 15564.03482783 0 417.36242618 0 5922.08829088 0 -139.12597581 0 1153.34871473 0 13428
0.11150000 0.11150900 15263.31048575 0 147.45679300 0 5825.98051145 0 610.33643928 0 1389.69856031 0 13453
0.11250000 0.11250000 15182.70396107 0 -8.88438915 0 5999.01880372 0 1160.66752144 0 1738.72038325 0 13668
0.11350000 0.11349100 15072.97722212 0 207.19309263 0 5299.84578072 0 967.23289963 0 1232.15045047 0 13791
0.11450000 0.11448600 14829.49679936 0 287.38329790 0 4985.48033447 0 793.73399865 0 1868.58768104 0 14205
0.11550000 0.11549300 14639.49570547 0 345.38013530 0 4844.98360484 0 162.95804775 0 2267.19137452 0 14776
0.11650000 0.11649800 14357.48359234 0 139.47032511 0 4903.39011826 0 -11.41434893 0 2390.53707300 0 14553
0.11750000 0.11747300 14146.33435805 0 105.12652016 0 4977.34217573 0 385.43205587 0 2173.23162610 0 14568
0.11850000 0.11849100 14336.22472869 0 156.20392961 0 5035.32794080 0 -329.19350365 0 2038.76931351 0 16015
0.11950000 0.11950300 14205.57129583 0 205.69500709 0 5043.67647371 0 10.78173165 0 1984.69207909 0 15270
0.12050000 0.12050700 13942.04996514 0 236.16272329 0 5028.77312451 0 119.10942700 0 2461.90927878 0 15999
0.12150000 0.12150000 13667.67775614 0 251.01513980 0 4460.41961924 0 785.31571009 0 2077.42279945 0 15670
0.12250000 0.12250700 13694.14061245 0 -125.96541053 0 4735.54474634 0 544.67423141 0 1387.81626509 0 16887
0.12350000 0.12352200 13432.05868400 0 188.94147240 0 4224.95555965 0 152.71504006 0 1514.55009497 0 16407
0.12450000 0.12449800 13625.27075208 0 285.90514254 0 4627.55636238 0 -324.17884774 0 836.88838463 0 16306
0.12550000 0.12549900 13318.01373836 0 141.88077023 0 4869.22092387 0 -543.39205619 0 1461.20363399 0 17523
0.12650000 0.12650100 13100.22110918 0 409.04600301 0 5018.88553845 0 -42.81479778 0 1907.98301275 0 17154
0.12750000 0.12750600 12901.14070894 0 86.59133769 0 4817.07027398 0 99.05611808 0 1947.83230977 0 18007
0.12850000 0.12850300 12998.13427435 0 35.55323499 0 4765.36251707 0 814.81238340 0 2364.37316945 0 17496
0.12950000 0.12949900 13012.86046636 0 -56.49399075 0 4346.72898800 0 703.07048133 0 1659.98508146 0 18405
0.13050000 0.13049000 12855.63345394 0 -18.83900706 0 4227.28074786 0 415.08263450 0 2187.80280557 0 18100
0.13150000 0.13148800 13067.77919746 0 34.56757664 0 4206.59764510 0 -153.43031224 0 1963.11211802 0 19059
0.13250000 0.13249300 13039.32332268 0 27.16484171 0 3784.81957578 0 34.99186812 0 1924.28147488 0 18957
0.13350000 0.13349100 12801.93267857 0 159.06723281 0 3921.35241312 0 193.77675665 0 1679.26199897 0 19468
0.13450000 0.13450700 12613.37098691 0 477.84942943 0 3847.10140289 0 -119.16257416 0 1105.29482502 0 19953
0.13550000 0.13551000 12367.78682243 0 398.91593303 0 3698.44436987 0 -239.09467490 0 1189.47771062 0 19956
0.13650000 0.13649900 12046.35723294 0 270.27766329 0 3833.42708174 0 315.41953157 0 1116.52216239 0 19723
0.13750000 0.13749600 11791.69376211 0 81.55785883 0 3778.48620599 0 -10.78246243 0 1604.64560202 0 20946
0.13850000 0.13851100 11825.57507606 0 5.73598466 0 3972.09687777 0 486.98963357 0 673.36897001 0 20955
0.13950000 0.13949800 11793.68678058 0 184.51254248 0 3753.45167957 0 281.40534973 0 1056.40829648 0 20506
0.14050000 0.14048300 11469.82127964 0 351.91391418 0 3896.63898413 0 186.40812448 0 536.06771333 0 21447
0.14150000 0.14148400 11301.52194239 0 146.46471270 0 3644.58858196 0 270.09496993 0 1181.84887882 0 21771
0.14250000 0.14249400 11164.00366814 0 191.38624172 0 3562.27691925 0 296.73387621 0 942.56375993 0 22470
0.14350000 0.14350900 10988.36337955 0 158.58558668 0 3285.55737739 0 441.49787982 0 909.03011698 0 22519
0.14450000 0.14449900 10797.70901849 0 97.09797743 0 3349.24538974 0 -140.49451516 0 529.15747541 0 22218
0.14550000 0.14550500 10629.78614029 0 260.60488033 0 3034.93530512 0 48.47895626 0 821.68165372 0 23559
0.14650000 0.14650700 10526.33740951 0 168.97364182 0 3096.78531155 0 -220.90727415 0 489.10001868 0 23044
0.14750000 0.14750500 10363.07598006 0 169.24380655 0 3219.13450080 0 -47.23099453 0 336.79576187 0 23649
0.14850000 0.14849900 10255.37547655 0 116.65579982 0 3475.20415688 0 -53.36207295 0 397.85188262 0 23640
0.14950000 0.14949500 10311.19106596 0 162.75763867 0 3306.41763734 0 260.92708498 0 307.85270479 0 24457
0.15050000 0.15050000 10160.52994216 0 67.49157738 0 3250.43596306 0 209.76851539 0 712.99239160 0 24591
0.15150000 0.15149900 10078.10755621 0 31.40078102 0 3341.47261772 0 42.91987414 0 155.59384451 0 25020
0.15250000 0.15250500 10109.25400592 0 113.87886076 0 3207.28711324 0 -6.62143847 0 631.80124817 0 25297
0.15350000 0.15350100 9984.65713474 0 163.14627727 0 3388.08710521 0 -155.40118606 0 238.61192154 0 25452
0.15450000 0.15450400 9754.92853940 0 181.16648592 0 2959.79850890 0 109.01478847 0 235.17507192 0 26061
0.15550000 0.15549900 9895.18167788 0 -28.28071061 0 3107.44796035 0 243.15046748 0 -40.78125460 0 26128
0.15650000 0.15649500 9694.73938168 0 158.27556159 0 2785.77477972 0 362.75925634 0 -113.88107522 0 26331
0.15750000 0.15749700 9648.19132815 0 93.50611526 0 2656.02927750 0 281.83938486 0 -339.07444632 0 27345
0.15850000 0.15849900 9505.64621843 0 13.63014258 0 2417.84142600 0 211.12819687 0 -375.05728751 0 26980
0.15950000 0.15949700 9528.14518246 0 -31.15242877 0 2307.95967450 0 141.44119893 0 -559.20444327 0 27777
0.16050000 0.16050000 9424.97325980 0 221.07003733 0 2373.54105440 0 -4.23763337 0 -205.28533107 0 28224
0.16150000 0.16150500 9433.17785249 0 221.05675054 0 2428.31584528 0 -170.25028088 0 -169.52725807 0 28075
0.16250000 0.16249700 9120.29609777 0 139.59433515 0 2491.59418162 0 -212.19335452 0 15.98887993 0 28590
0.16350000 0.16349900 9064.07083234 0 275.82489802 0 2655.80783100 0 63.02732673 0 -79.17775189 0 29163
0.16450000 0.16449100 8832.19420599 0 239.03045542 0 2706.45264472 0 4.81627307 0 262.53589377 0 28996
0.16550000 0.16550500 8729.01121100 0 111.82051558 0 2654.93311734 0 290.48354885 0 200.01268999 0 30777
0.16650000 0.16650700 8591.99119137 0 127.56868317 0 2828.33679632 0 325.57949683 0 397.04803183 0 29211
0.16750000 0.16749900 8562.53880735 0 146.66180008 0 2533.73544987 0 176.85492263 0 292.67697640 0 30922
0.16850000 0.16850800 8381.34021170 0 216.56360113 0 2745.28328786 0 82.56898353 0 693.97567373 0 30867
0.16950000 0.16949900 8235.88308055 0 115.50538528 0 2656.48324281 0 -267.10987116 0 764.40673190 0 30852
0.17050000 0.17049200 8156.31735441 0 139.70395117 0 2659.09631147 0 132.79814218 0 843.77094173 0 31257
0.17150000 0.17149500 8252.51371243 0 -41.09039391 0 2888.68096659 0 -123.02792276 0 486.41165821 0 32608
0.17250000 0.17250900 8178.83846309 0 -29.49368379 0 2629.22317911 0 241.09544400 0 568.15531065 0 32361
0.17350000 0.17350400 8167.38967923 0 37.78253687 0 2676.93382675 0 121.42243566 0 527.37261665 0 32508
0.17450000 0.17449800 8068.40309535 0 131.99207693 0 2430.38637002 0 241.11205248 0 358.75550368 0 32791
0.17550000 0.17549800 8057.04289008 0 125.60002381 0 2146.15979192 0 241.30692540 0 290.70942428 0 33633
0.17650000 0.17650100 7855.89196510 0 56.27896620 0 2018.49588676 0 243.33648254 0 17.86586043 0 33984
0.17750000 0.17750300 7920.12252138 0 47.83687215 0 1980.66175286 0 -76.64949724 0 -36.61152780 0 34069
0.17850000 0.17849800 7729.22456918 0 74.94590934 0 1844.84861663 0 147.43021943 0 28.17020880 0 34536
