### header ###
fiducial parameters:
Omega_m = 0.31
Omega_nu = 0
Omega_de = 0.69
Omega_k = 0
H_0 = 100
w_de = -1
zeff = 0
beta = 0
fgrowth = 0
b_1 = 2
gamma = 0.55
Lx = 3500 Ly = 3500 Lz = 3500
nx = 700 ny = 700 nz = 700
xoffset = -685.467585 yoffset = -31.7331281 zoffset = 572.489161
bins = 400 dk = 0.001
kx_ny = 0.628318531 ky_ny = 0.628318531 kz_ny = 0.628318531
############################
A(data) = 8.09373261 (not used)
A(ran) = 8.10229739 (used)
Ngal = 481638
weighted Ngal = 0
Nran = 23820508
weighted Nran = 0
SN(data) = 3476.03828
SN(ran) = 70.5739487
SN(data+ran) = 3546.61223
############################
13 columns: k_central k_mean P_0(k) sigma^{lin}_{P_0(k)} P^img_1(k) sigma^{lin}_{P_1(k)} P_2(k) sigma^{lin}_{P_2(k)} P^img_3(k) sigma^{lin}_{P_3(k)} P_4(k) sigma^{lin}_{P_4(k)} N_modes
### header ###
0.00050000 0 0 0 0 0 0 0 0 0 0 0 0
0.00150000 0.00179520 9987.38092664 0 -10428.92309576 0 15449.65771245 0 -32798.88347079 0 -58154.28585899 0 3
0.00250000 0.00253879 17201.41022201 0 -11568.03280078 0 -19794.21652479 0 29958.72143156 0 7254.97475255 0 6
0.00350000 0.00331552 30723.70835328 0 -18248.85214985 0 546.73589829 0 -38406.24092869 0 835.75125687 0 7
0.00450000 0.00420575 46624.78474858 0 -24133.01772823 0 -30036.78132153 0 -12901.02998569 0 -12780.56309167 0 24
0.00550000 0.00557378 71723.08775450 0 -8866.21946016 0 -3076.45652319 0 -41583.88742840 0 -13677.75357172 0 45
0.00650000 0.00659388 66635.68667007 0 6690.92838163 0 -43638.91091474 0 -15453.42230289 0 13260.21620281 0 40
0.00750000 0.00754703 91863.20370662 0 -24125.93144034 0 -13050.17420100 0 -12118.99168375 0 -3752.85377403 0 57
0.00850000 0.00846663 74554.94555011 0 -20523.66128384 0 -39259.14210947 0 10485.24801211 0 -14769.04190585 0 75
0.00950000 0.00948925 115300.54726649 0 -9501.52731360 0 -15864.98061640 0 -12514.93801927 0 -40249.11867151 0 112
0.01050000 0.01054430 107082.66778609 0 -7037.85753518 0 -27045.92494151 0 -28101.00677348 0 -15482.65324041 0 105
0.01150000 0.01145670 104468.82406615 0 9179.05692558 0 -20337.09261065 0 -20235.44866881 0 -3567.73557539 0 144
0.01250000 0.01249090 111055.41793102 0 6171.04951442 0 -1272.68623163 0 -38529.80807367 0 -19825.44048078 0 169
0.01350000 0.01339930 99421.39407433 0 4913.95311614 0 22671.91374516 0 -28762.91035114 0 -23454.06277035 0 180
0.01450000 0.01448870 84556.02294256 0 20396.55099492 0 28172.75543831 0 -18491.00389364 0 -30123.69907135 0 267
0.01550000 0.01550050 78331.16192951 0 7836.30502250 0 33674.48291745 0 -25763.41755777 0 -20867.34624621 0 238
0.01650000 0.01653350 69236.13287698 0 2738.16378300 0 39213.85630097 0 1655.29041574 0 -34492.28482855 0 315
0.01750000 0.01747870 74817.13820182 0 -1734.25823634 0 34892.54937074 0 7125.25139497 0 -27682.80506508 0 297
0.01850000 0.01844180 72735.76258241 0 -338.83749857 0 37061.28563297 0 10666.39124615 0 -31961.59426800 0 388
0.01950000 0.01947590 70721.48525140 0 1101.12609473 0 30445.46083058 0 11922.45791822 0 -10827.05067926 0 399
0.02050000 0.02045430 67038.60857022 0 3628.67765119 0 14478.72554910 0 14745.79002373 0 -16847.31727431 0 462
0.02150000 0.02154770 69385.83070853 0 -1006.86185738 0 24268.43226076 0 7288.32459490 0 -8326.99724149 0 571
0.02250000 0.02255340 65627.99438833 0 3488.10341529 0 29913.65706954 0 -1339.18661449 0 1420.64570818 0 510
0.02350000 0.02348930 68696.46776532 0 6364.17300391 0 36371.25835027 0 -1377.05396537 0 11133.88694464 0 555
0.02450000 0.02439640 61952.09327179 0 5472.21973350 0 25609.18007305 0 5784.80253545 0 21942.80115585 0 592
0.02550000 0.02547300 61533.11650065 0 -1926.80596494 0 32343.47875100 0 8476.81686861 0 17878.15071492 0 837
0.02650000 0.02652900 63958.95214517 0 1156.42682103 0 26902.98122811 0 22638.25387771 0 24028.05208894 0 723
0.02750000 0.02749970 61891.19548528 0 1222.32929835 0 26899.99170040 0 12232.04012015 0 13572.56648594 0 826
0.02850000 0.02848090 57336.48394789 0 2462.88364336 0 18681.00498752 0 6055.33264774 0 18810.44046465 0 831
0.02950000 0.02946900 56808.11260754 0 1263.02009206 0 14807.57359622 0 2542.99191342 0 10704.71256234 0 996
0.03050000 0.03053250 53196.09880520 0 2081.88494635 0 12947.42302668 0 2306.73064644 0 8921.97968794 0 1041
0.03150000 0.03150510 52826.72604925 0 1852.16742334 0 14026.08891052 0 -3655.95985954 0 9604.85424881 0 1036
0.03250000 0.03246190 53187.79456159 0 -2232.90038455 0 17099.32338718 0 -662.54023634 0 9379.27777528 0 1059
0.03350000 0.03345080 49879.60535227 0 1555.76128794 0 18324.80829811 0 -4233.42588814 0 2787.75672586 0 1302
0.03450000 0.03451200 54708.13548244 0 1573.08947628 0 20177.87257976 0 437.20403225 0 1227.27862755 0 1339
0.03550000 0.03553350 52719.10305201 0 -1542.86202953 0 23687.91027052 0 -942.29580967 0 11698.35406389 0 1365
0.03650000 0.03647120 54958.37002334 0 -264.11259283 0 23869.27495104 0 1705.79128924 0 -2138.82991289 0 1308
0.03750000 0.03744890 55956.65082899 0 -939.11583798 0 24599.60549608 0 2332.05305330 0 930.56578876 0 1579
0.03850000 0.03847530 54065.38702671 0 2692.53473242 0 23626.56959102 0 2639.26577772 0 1002.31888251 0 1662
0.03950000 0.03950240 52724.86066092 0 2658.88593730 0 18656.86731942 0 -471.47066310 0 1933.22791334 0 1683
0.04050000 0.04050350 50422.81360787 0 727.31222929 0 22163.91548248 0 3302.97414433 0 -1029.95761972 0 1822
0.04150000 0.04152450 50377.74924586 0 2055.83176605 0 22981.49594709 0 495.46660545 0 -4702.72637557 0 1887
0.04250000 0.04250150 47243.94915244 0 1797.82445313 0 17117.70344638 0 2565.12549074 0 -602.20160224 0 1920
0.04350000 0.04349210 46837.81627809 0 1119.15737569 0 19738.52273095 0 -562.79187651 0 -1444.65050839 0 2005
0.04450000 0.04448520 45327.44044958 0 1984.82494699 0 17244.48156555 0 3418.80173425 0 2113.96147135 0 2151
0.04550000 0.04548030 44508.19913625 0 -59.79077547 0 15182.70396107 0 5896.41156962 0 -675.57125541 0 2274
0.04650000 0.04648670 44416.18811701 0 -250.95313478 0 11677.53809323 0 902.35239789 0 -3571.01298354 0 2311
0.04750000 0.04749250 43727.60023654 0 783.47770417 0 10452.46285832 0 2276.34818714 0 -2957.77227345 0 2568
0.04850000 0.04851840 42734.63414680 0 1584.78185129 0 11533.93004034 0 618.80898223 0 -1031.21322136 0 2493
0.04950000 0.04949480 41799.79776236 0 1171.92807578 0 9230.58752529 0 346.54605110 0 -705.09450231 0 2644
0.05050000 0.05050630 40453.73523416 0 1932.92896057 0 11900.20254534 0 1054.71533802 0 -998.36827702 0 2829
0.05150000 0.05149060 38724.12737424 0 2243.21979128 0 10219.60079506 0 -938.99072071 0 875.73895795 0 2784
0.05250000 0.05249300 37760.17077553 0 970.80483161 0 13104.31786936 0 2069.89361857 0 2191.34594951 0 3055
0.05350000 0.05348950 36553.28737029 0 1361.22054088 0 11988.89186713 0 546.33508013 0 2309.58730625 0 3009
0.05450000 0.05448610 35949.84566768 0 1153.07190661 0 13957.99411288 0 115.29944003 0 2134.05774090 0 3336
0.05550000 0.05550870 35262.69718943 0 679.06789559 0 14121.97524345 0 541.76663891 0 4481.71169987 0 3349
0.05650000 0.05647670 34992.64318711 0 1461.09291074 0 12856.40851667 0 1531.97793423 0 5620.27886097 0 3324
0.05750000 0.05747970 33740.36325012 0 886.68727273 0 13077.52284330 0 1474.55685772 0 3063.33581828 0 3639
0.05850000 0.05849280 33641.59811273 0 -144.99209350 0 12270.23964078 0 -117.99444389 0 3080.76365754 0 3846
0.05950000 0.05951020 33341.98100314 0 24.76247939 0 11507.35646077 0 2096.96545275 0 2789.09647717 0 3787
0.06050000 0.06049470 33480.82795637 0 -581.77648464 0 11485.21181113 0 184.70409369 0 1717.19578380 0 3930
0.06150000 0.06148310 33808.34732450 0 -590.62770110 0 12038.60660557 0 2392.74046563 0 411.67568015 0 4083
0.06250000 0.06249100 33890.28252816 0 736.28745579 0 10455.82884507 0 -119.43384612 0 -3082.81203763 0 4303
0.06350000 0.06350600 32779.83907210 0 1466.59585618 0 9172.76784508 0 59.43712541 0 -654.65341937 0 4470
0.06450000 0.06451750 31964.91596545 0 274.78188502 0 8645.80268999 0 402.27306192 0 -21.76542251 0 4479
0.06550000 0.06550280 31945.98229001 0 -511.45282802 0 8559.98110032 0 2174.70424531 0 -1978.48050487 0 4636
0.06650000 0.06648880 32700.33977990 0 -764.27164954 0 8182.06050961 0 403.90955152 0 -3766.52809518 0 4653
0.06750000 0.06749660 32687.27443661 0 455.59294931 0 7600.76345663 0 -59.57032548 0 -2427.27504674 0 5220
0.06850000 0.06852730 31353.61291221 0 2132.71798959 0 8971.46190756 0 -1442.23674158 0 -2992.60580733 0 5029
0.06950000 0.06949320 30695.25247849 0 2072.91636325 0 8646.65525900 0 -1630.05658748 0 161.17651069 0 5040
0.07050000 0.07048030 29593.99905203 0 335.23899300 0 9568.22699831 0 924.33649881 0 -973.84197031 0 5475
0.07150000 0.07148790 29308.66524145 0 -504.79725357 0 10365.70012105 0 1153.57016123 0 1033.51183599 0 5509
0.07250000 0.07249820 30203.19836355 0 -972.64948093 0 9702.51215371 0 1663.56144238 0 -2093.42230881 0 5916
0.07350000 0.07351270 29908.89596987 0 -14.93911282 0 9554.07656719 0 1615.21967222 0 719.86498362 0 5721
0.07450000 0.07449140 29944.21668604 0 1005.14896873 0 8660.79461779 0 86.57428631 0 -1625.25119850 0 6028
0.07550000 0.07549160 28771.98965749 0 1636.17958310 0 9684.94037422 0 -450.20072713 0 -944.32315234 0 6183
0.07650000 0.07648840 27248.10559270 0 1518.12645588 0 9782.98581049 0 -755.75038836 0 -52.41782509 0 6330
0.07750000 0.07749960 26128.80427679 0 1309.66779652 0 10665.40580924 0 -924.58673335 0 22.11276134 0 6583
0.07850000 0.07848650 25755.11331416 0 965.14465916 0 11499.60583340 0 -307.86045542 0 227.54513288 0 6549
0.07950000 0.07947320 25339.34751722 0 54.69196989 0 11091.81211033 0 106.60223961 0 -291.74690111 0 6828
0.08050000 0.08048110 25031.64761051 0 395.97955249 0 12112.01611912 0 -297.82892913 0 358.62595748 0 7147
0.08150000 0.08149960 25001.30944050 0 646.57837288 0 12204.58075460 0 -9.46563084 0 524.87470017 0 7386
0.08250000 0.08250610 24490.87526636 0 214.27938052 0 13645.86527624 0 19.13541320 0 1792.01148260 0 7227
0.08350000 0.08350160 24789.49586672 0 158.59998070 0 13890.23148499 0 -41.36664842 0 1621.27623390 0 7798
0.08450000 0.08449610 24249.83075506 0 158.44828985 0 14099.05553107 0 1281.55516381 0 2526.95918709 0 7371
0.08550000 0.08548940 24274.96493240 0 814.94857300 0 14010.25548603 0 1807.56809897 0 3262.72624361 0 8256
0.08650000 0.08650700 23952.31738718 0 305.87961651 0 13401.49906750 0 1111.58390552 0 4456.85433065 0 8037
0.08750000 0.08749060 23270.26217836 0 166.01400940 0 12330.69453429 0 1479.41760832 0 4401.18268146 0 8155
0.08850000 0.08849210 22997.21864833 0 216.50823950 0 11783.38951850 0 1477.36922823 0 2784.12500332 0 8718
0.08950000 0.08949900 22357.79189005 0 882.34027801 0 9912.62058947 0 1740.65804009 0 2059.52992254 0 8571
0.09050000 0.09049190 21594.57654030 0 586.05483095 0 8838.11789977 0 973.88958131 0 2153.70004512 0 8932
0.09150000 0.09150830 20568.50419936 0 401.35073726 0 7493.08509777 0 1403.63861726 0 970.29661190 0 9285
0.09250000 0.09250820 20212.75040294 0 283.61095683 0 7097.52629362 0 443.38681843 0 3.84566200 0 9204
0.09350000 0.09350330 19995.51138999 0 567.45664696 0 6331.67573057 0 207.88400570 0 -1879.10638962 0 9349
0.09450000 0.09448040 19087.80220136 0 733.25474602 0 6691.29376835 0 -767.68081835 0 -951.78922097 0 9564
0.09550000 0.09549270 18563.63834445 0 712.34908953 0 6300.51820853 0 -544.33652550 0 -1258.81260863 0 10155
0.09650000 0.09649430 18724.40850081 0 44.95441383 0 6679.54603172 0 710.88532819 0 -1651.69191017 0 9913
0.09750000 0.09749140 17856.11678853 0 83.52164636 0 6024.67338032 0 630.14372115 0 -2169.45596334 0 10476
0.09850000 0.09850240 18398.21781166 0 57.49382168 0 5702.82304249 0 727.60232420 0 -2202.78366105 0 10575
0.09950000 0.09950330 18190.39027481 0 -46.14524236 0 5803.84693414 0 228.77969710 0 -2118.93294519 0 10882
0.10050000 0.10051200 18359.35395154 0 473.67737744 0 5617.80973254 0 -174.27839265 0 -1934.96626833 0 10875
0.10150000 0.10150300 17693.13216720 0 411.53173993 0 5801.13421456 0 -482.60831464 0 -1491.89611839 0 11118
0.10250000 0.10250800 17681.17405640 0 394.82692348 0 5973.37529944 0 -153.22990317 0 -1204.79073584 0 11575
0.10350000 0.10349800 17247.36037001 0 113.53340423 0 6325.84061539 0 606.27068161 0 -502.07678337 0 11364
0.10450000 0.10450100 17178.37978639 0 82.38950115 0 6386.14049635 0 496.02465062 0 -433.79929237 0 12093
0.10550000 0.10551000 17041.74729812 0 658.16113187 0 6303.35272368 0 565.42044642 0 -486.40390759 0 12067
0.10650000 0.10649700 16463.32904960 0 283.87337093 0 5986.71745084 0 176.93796507 0 -558.45041795 0 12054
0.10750000 0.10749900 16232.69252362 0 217.32869877 0 6356.46666584 0 -10.15241393 0 -54.46786603 0 12807
0.10850000 0.10850100 16154.30046391 0 139.01857426 0 6033.18799811 0 0.50300464 0 -381.14928063 0 12736
0.10950000 0.10950300 16181.87055271 0 -323.00075238 0 6183.68303704 0 581.99903837 0 -71.98539113 0 12933
0.11050000 0.11050200 16356.59183835 0 205.27868767 0 5522.43272655 0 301.46508060 0 -478.84815313 0 13428
0.11150000 0.11150900 16235.34988158 0 93.58007839 0 5358.67304248 0 580.92502287 0 -519.31971481 0 13453
0.11250000 0.11250000 15988.99065437 0 492.83139214 0 5171.05249843 0 331.39357459 0 -286.38235974 0 13668
0.11350000 0.11349100 15597.91614177 0 685.65482163 0 5355.15204319 0 258.62293418 0 -472.31548149 0 13791
0.11450000 0.11448600 14772.69577304 0 683.69723460 0 5174.57349772 0 -8.84904628 0 319.60708482 0 14205
0.11550000 0.11549300 14699.28625949 0 120.19451484 0 5117.03062564 0 555.21729910 0 188.00253926 0 14776
0.11650000 0.11649800 14564.86823619 0 -60.08020604 0 4800.43964210 0 18.45391161 0 46.46600761 0 14553
0.11750000 0.11747300 14346.52199077 0 255.33556095 0 5113.62034959 0 126.00194920 0 -18.82361653 0 14568
0.11850000 0.11849100 14436.98288454 0 337.10800143 0 4856.39917173 0 52.72198186 0 412.23815425 0 16015
0.11950000 0.11950300 14216.86506714 0 -199.68494917 0 4881.01294980 0 734.06745466 0 644.85662637 0 15270
0.12050000 0.12050700 14307.87957715 0 171.06631122 0 4846.97662331 0 324.99598531 0 -0.68947145 0 15999
0.12150000 0.12150000 13976.04200234 0 625.71811292 0 4937.04998571 0 -68.25534634 0 113.49686555 0 15670
0.12250000 0.12250700 13559.27969616 0 535.62482033 0 5242.46899351 0 -3.05097910 0 804.60148546 0 16887
0.12350000 0.12352200 13221.24161945 0 136.95247845 0 4713.68797714 0 522.56501321 0 1578.65885567 0 16407
0.12450000 0.12449800 13103.09991363 0 -336.56767198 0 4673.08576203 0 566.56753927 0 657.93193475 0 16306
0.12550000 0.12549900 13554.62931974 0 -273.30483689 0 4112.22822067 0 707.39643864 0 363.01170534 0 17523
0.12650000 0.12650100 13445.23475053 0 237.11494322 0 4206.23225838 0 20.10999923 0 261.18839184 0 17154
0.12750000 0.12750600 13229.65658631 0 472.29776577 0 3862.71338088 0 -127.68604981 0 701.65654546 0 18007
0.12850000 0.12850300 13022.49338895 0 298.16884951 0 4185.34985377 0 -55.27127392 0 890.09090538 0 17496
0.12950000 0.12949900 12902.46938792 0 9.25966345 0 4040.29132632 0 284.30297714 0 981.16188425 0 18405
0.13050000 0.13049000 12894.05442106 0 -146.19344074 0 4453.95338155 0 -56.22271879 0 878.37195679 0 18100
0.13150000 0.13148800 13021.93977271 0 188.91932775 0 4651.30649912 0 -182.30250644 0 930.56800322 0 19059
0.13250000 0.13249300 12973.33226676 0 159.34071923 0 4639.76913666 0 -13.23762866 0 1373.68797863 0 18957
0.13350000 0.13349100 12970.89635530 0 104.48842208 0 4598.63544995 0 -37.57969188 0 1424.67603442 0 19468
0.13450000 0.13450700 12744.46731276 0 54.04224587 0 4416.66179156 0 16.65288725 0 463.17859905 0 19953
0.13550000 0.13551000 12869.03096697 0 111.79062030 0 4313.09126521 0 285.19097759 0 355.15699812 0 19956
0.13650000 0.13649900 12621.78595377 0 222.91247218 0 4359.28500435 0 -216.79501272 0 -252.97161960 0 19723
0.13750000 0.13749600 12512.94500080 0 329.46366837 0 4254.87298131 0 -365.27378130 0 57.54386859 0 20946
0.13850000 0.13851100 11912.16065614 0 451.87043371 0 4192.65758815 0 177.96990574 0 -33.80746154 0 20955
0.13950000 0.13949800 11798.11571051 0 272.11124028 0 4362.98316084 0 322.17364971 0 -276.99524276 0 20506
0.14050000 0.14048300 11420.10654120 0 72.97691782 0 4035.12055063 0 693.80737439 0 71.95483151 0 21447
0.14150000 0.14148400 11490.30508055 0 77.25980378 0 4347.62584632 0 373.60238403 0 -129.56170163 0 21771
0.14250000 0.14249400 11348.57932287 0 69.98451131 0 3613.49749386 0 338.93604226 0 360.71973410 0 22470
0.14350000 0.14350900 11394.86164061 0 -105.74490950 0 3741.96967874 0 423.60721738 0 582.68220081 0 22519
0.14450000 0.14449900 11418.22424598 0 -20.06105955 0 3257.88763766 0 160.07149267 0 168.17532721 0 22218
0.14550000 0.14550500 11262.21518929 0 348.60218182 0 3309.14142925 0 119.10167638 0 332.26496655 0 23559
0.14650000 0.14650700 10972.86212480 0 377.79104451 0 3109.33025557 0 38.98200182 0 71.45436243 0 23044
0.14750000 0.14750500 10666.53518637 0 375.64633519 0 3079.64535273 0 12.89560455 0 223.44947993 0 23649
0.14850000 0.14849900 10404.75221068 0 99.17691714 0 2963.24200192 0 302.86905139 0 390.51978912 0 23640
0.14950000 0.14949500 10366.01014614 0 -231.41380317 0 2698.23697971 0 619.61836918 0 -194.11003363 0 24457
0.15050000 0.15050000 10520.45800504 0 -10.01610254 0 2493.87508053 0 64.74099045 0 -269.24350815 0 24591
0.15150000 0.15149900 10498.15834285 0 205.46913166 0 2673.64534628 0 -15.99563405 0 -301.72417301 0 25020
0.15250000 0.15250500 10269.70306487 0 337.22979700 0 2590.06036623 0 -215.37000451 0 155.96698186 0 25297
0.15350000 0.15350100 10192.34073136 0 144.14173895 0 2622.51335027 0 -38.46581004 0 406.79167767 0 25452
0.15450000 0.15450400 9916.40732455 0 154.64716074 0 2773.28519733 0 335.24231470 0 122.91609228 0 26061
0.15550000 0.15549900 9932.81650994 0 205.25100686 0 2915.28776313 0 208.05119781 0 552.97847502 0 26128
0.15650000 0.15649500 9684.63034913 0 201.69014720 0 2760.49666216 0 199.48343286 0 498.62775419 0 26331
0.15750000 0.15749700 9529.47386144 0 293.55390452 0 2876.26889046 0 79.64577906 0 791.01574290 0 27345
0.15850000 0.15849900 9375.56854646 0 134.53871164 0 2889.24565515 0 -327.19052009 0 664.45796299 0 26980
0.15950000 0.15949700 9207.71210221 0 236.65212005 0 3107.44796035 0 -119.23011534 0 926.56646503 0 27777
0.16050000 0.16050000 9241.58234383 0 178.22346198 0 3134.74124103 0 -266.53632473 0 622.29455008 0 28224
0.16150000 0.16150500 9017.68886367 0 39.79526408 0 3210.94098043 0 102.62085305 0 691.64162766 0 28075
0.16250000 0.16249700 9137.43605659 0 43.75140573 0 3186.32720236 0 27.53886484 0 23.70972275 0 28590
0.16350000 0.16349900 8852.08010136 0 84.58735762 0 3035.98717597 0 127.62736649 0 -128.39689306 0 29163
0.16450000 0.16449100 8901.63982725 0 50.92272907 0 2988.67513202 0 328.82922416 0 149.53949730 0 28996
0.16550000 0.16550500 8788.39208900 0 36.05093599 0 2683.72116187 0 472.26122709 0 211.39282544 0 30777
0.16650000 0.16650700 8792.48884919 0 50.33146693 0 2550.12249061 0 707.54037886 0 227.41447945 0 29211
0.16750000 0.16749900 8703.68880414 0 67.12220462 0 2196.68281007 0 461.61740125 0 549.80625396 0 30922
0.16850000 0.16850800 8629.06133486 0 139.30202578 0 2043.86258292 0 42.74149899 0 379.94239722 0 30867
0.16950000 0.16949900 8618.86372371 0 114.16895567 0 2066.50548718 0 -95.71460117 0 519.15473717 0 30852
0.17050000 0.17049200 8344.94548002 0 72.61961390 0 2263.53750733 0 -68.77231319 0 817.83402085 0 31257
0.17150000 0.17149500 8474.51382505 0 70.42330754 0 2351.24139221 0 -162.24941896 0 714.24134984 0 32608
0.17250000 0.17250900 8369.68105366 0 107.62355085 0 2390.06096303 0 -22.86412930 0 439.45946482 0 32361
0.17350000 0.17350400 8360.36922849 0 95.50533423 0 2390.02774605 0 -39.92148858 0 384.02808508 0 32508
0.17450000 0.17449800 8191.12874364 0 182.04673574 0 2308.26969959 0 71.66252214 0 359.31244162 0 32791
0.17550000 0.17549800 8127.03105526 0 149.89713339 0 2252.65341203 0 123.28369346 0 427.38952353 0 33633
0.17650000 0.17650100 8059.75560966 0 48.08467078 0 2067.34698386 0 66.17452434 0 251.91089088 0 33984
0.17750000 0.17750300 8069.43282156 0 -21.97933983 0 2121.14741016 0 111.65996687 0 282.00768420 0 34069
0.17850000 0.17849800 8035.87260503 0 42.93194298 0 2125.86422053 0 7.58146439 0 87.41290419 0 34536
