### header ###
fiducial parameters:
Omega_m = 0.31
Omega_nu = 0
Omega_de = 0.69
Omega_k = 0
H_0 = 100
w_de = -1
zeff = 0
beta = 0
fgrowth = 0
b_1 = 2
gamma = 0.55
Lx = 3500 Ly = 3500 Lz = 3500
nx = 700 ny = 700 nz = 700
xoffset = -685.467585 yoffset = -31.7331281 zoffset = 572.489161
bins = 400 dk = 0.001
kx_ny = 0.628318531 ky_ny = 0.628318531 kz_ny = 0.628318531
############################
A(data) = 7.95619226 (not used)
A(ran) = 7.95404226 (used)
Ngal = 473315
weighted Ngal = 0
Nran = 23820508
weighted Nran = 0
SN(data) = 3483.94829
SN(ran) = 69.2825928
SN(data+ran) = 3553.23088
############################
13 columns: k_central k_mean P_0(k) sigma^{lin}_{P_0(k)} P^img_1(k) sigma^{lin}_{P_1(k)} P_2(k) sigma^{lin}_{P_2(k)} P^img_3(k) sigma^{lin}_{P_3(k)} P_4(k) sigma^{lin}_{P_4(k)} N_modes
### header ###
0.00050000 0 0 0 0 0 0 0 0 0 0 0 0
0.00150000 0.00179520 50817.09909467 0 -62416.46657468 0 24510.80545104 0 40568.22307278 0 -39335.43042747 0 3
0.00250000 0.00253879 79435.40488368 0 -44667.75133689 0 21244.46962954 0 -37058.96044476 0 24290.90908014 0 6
0.00350000 0.00331552 88755.31285328 0 -5042.18170986 0 16764.60700791 0 -13613.53408777 0 83226.12600859 0 7
0.00450000 0.00420575 81210.40927535 0 20578.69073819 0 5924.45776839 0 -38645.62459127 0 21036.97426244 0 24
0.00550000 0.00557378 64796.79496419 0 20336.87116415 0 15153.36230030 0 -26035.35385532 0 20608.91818495 0 45
0.00650000 0.00659388 62676.44476142 0 3235.98657917 0 -8807.25933050 0 14636.50617777 0 26374.16699477 0 40
0.00750000 0.00754703 53799.87267756 0 -4746.47313093 0 10474.21997659 0 5302.65815122 0 17868.40706908 0 57
0.00850000 0.00846663 73581.02385907 0 -26871.64654887 0 -22226.47411770 0 46133.17352663 0 8501.46386365 0 75
0.00950000 0.00948925 107444.95425416 0 -40417.41800875 0 -19851.57116735 0 15933.62903027 0 -49719.94242839 0 112
0.01050000 0.01054430 118966.59401395 0 -14380.62475121 0 -419.83709078 0 -41416.69532364 0 -41163.91414803 0 105
0.01150000 0.01145670 117820.60839522 0 25436.23035938 0 -3053.08284549 0 -37782.31542516 0 3088.33712772 0 144
0.01250000 0.01249090 100621.41263817 0 26908.40666727 0 24071.56632548 0 -39693.73085861 0 7035.74272114 0 169
0.01350000 0.01339930 83347.14651886 0 13104.98220885 0 30934.74686432 0 -16215.41969691 0 21633.44040042 0 180
0.01450000 0.01448870 81725.71527241 0 10381.62212413 0 46735.95088976 0 20977.62660141 0 11874.73619825 0 267
0.01550000 0.01550050 70967.62303212 0 1140.21693750 0 47677.31994584 0 19921.43753696 0 29279.76647368 0 238
0.01650000 0.01653350 69876.77759099 0 5711.47052818 0 44564.77871607 0 25990.17877006 0 18838.45344644 0 315
0.01750000 0.01747870 70054.70985082 0 965.05275887 0 38099.64825447 0 15945.14424808 0 20074.67851245 0 297
0.01850000 0.01844180 69194.94382866 0 -1885.83836311 0 33373.09423588 0 9977.59299150 0 15819.91625439 0 388
0.01950000 0.01947590 64605.35446808 0 2631.71445220 0 40708.17725849 0 6037.50620479 0 33474.51673122 0 399
0.02050000 0.02045430 68789.14312405 0 4389.46816180 0 33829.71691140 0 4387.27584149 0 24557.30921528 0 462
0.02150000 0.02154770 64140.75971869 0 1169.19321155 0 29818.10290636 0 9944.78569306 0 23424.94255607 0 571
0.02250000 0.02255340 66975.38559551 0 -3280.60804819 0 31386.05482393 0 7093.96100503 0 4928.03711331 0 510
0.02350000 0.02348930 64369.84611919 0 -1660.21760028 0 25779.69387525 0 4215.38907101 0 9332.72972174 0 555
0.02450000 0.02439640 69291.93739407 0 1253.23215692 0 18109.67302688 0 11554.30311800 0 -1120.09852330 0 592
0.02550000 0.02547300 62705.67569894 0 1052.53076833 0 17086.47949039 0 -2607.33319294 0 6329.94844790 0 837
0.02650000 0.02652900 64626.17043874 0 538.26999873 0 11106.09540934 0 -280.28040153 0 -11787.70772518 0 723
0.02750000 0.02749970 60339.63060845 0 5907.24030330 0 22934.21712011 0 -7997.83916928 0 89.34225679 0 826
0.02850000 0.02848090 60238.42955960 0 4033.06109822 0 18853.06891521 0 -11487.31555285 0 -10279.02596236 0 831
0.02950000 0.02946900 54883.74255406 0 4292.58531964 0 27799.06447568 0 -5665.40965693 0 -6339.84710628 0 996
0.03050000 0.03053250 53243.70980192 0 2299.31218881 0 28753.05598205 0 -1556.69136323 0 -13668.23137238 0 1041
0.03150000 0.03150510 53589.05561301 0 -1784.65945892 0 28343.15851727 0 6193.54847846 0 -13194.22514689 0 1036
0.03250000 0.03246190 54082.88129993 0 -232.70483625 0 26746.75072491 0 6270.32397875 0 -11008.34892584 0 1059
0.03350000 0.03345080 52923.49816817 0 479.12053232 0 21228.85765154 0 6055.11120125 0 -13614.75204350 0 1302
0.03450000 0.03451200 52284.18213314 0 1009.82813320 0 17844.04795448 0 7605.03737401 0 -11248.92839950 0 1339
0.03550000 0.03553350 49517.31888421 0 1779.24509208 0 11136.65502584 0 3551.56998115 0 -6695.97736175 0 1365
0.03650000 0.03647120 49717.72796342 0 944.68964629 0 10954.52635490 0 5119.13436735 0 -11430.40380328 0 1308
0.03750000 0.03744890 46959.72257435 0 710.86207631 0 5840.35238907 0 3053.16035177 0 -9050.92798278 0 1579
0.03850000 0.03847530 46411.86394232 0 219.41140307 0 5627.13263003 0 711.30829100 0 -9172.05921630 0 1662
0.03950000 0.03950240 46257.73718084 0 -771.07780760 0 5239.50161046 0 -999.18762905 0 -11827.01447829 0 1683
0.04050000 0.04050350 46733.73642480 0 1555.48447982 0 9197.80237150 0 -1181.57207070 0 -5834.45083994 0 1822
0.04150000 0.04152450 45231.55411665 0 3652.91497022 0 7224.96875229 0 -2832.98717275 0 -1436.78915777 0 1887
0.04250000 0.04250150 44106.38446858 0 1314.04136483 0 8743.16164212 0 -1188.64728626 0 -38.89608058 0 1920
0.04350000 0.04349210 41696.49297180 0 67.87102595 0 9658.94255555 0 1545.20936239 0 703.52001772 0 2005
0.04450000 0.04448520 43788.60874629 0 770.75338849 0 11670.34108210 0 1021.09200924 0 -821.82116501 0 2151
0.04550000 0.04548030 41400.86189915 0 2775.17856487 0 13892.00305696 0 -1500.08963876 0 -1921.07050068 0 2274
0.04650000 0.04648670 39386.58456814 0 3149.46743304 0 14248.08902313 0 -937.12392675 0 4430.13681086 0 2311
0.04750000 0.04749250 37518.68337123 0 441.53109679 0 16354.93098962 0 276.18807028 0 4072.63358712 0 2568
0.04850000 0.04851840 36304.60295487 0 1060.40762021 0 14546.93106999 0 3341.16259263 0 146.48021396 0 2493
0.04950000 0.04949480 37472.06888374 0 178.53459431 0 16176.66656004 0 99.25342691 0 3110.29354783 0 2644
0.05050000 0.05050630 37443.39156246 0 -69.02753028 0 15516.86672410 0 1242.55843580 0 3223.97310674 0 2829
0.05150000 0.05149060 37917.95140419 0 -167.10795509 0 18575.26428551 0 -3237.79136812 0 4246.86769047 0 2784
0.05250000 0.05249300 38000.21877759 0 738.85291345 0 17919.00759350 0 -689.72168653 0 -756.68378534 0 3055
0.05350000 0.05348950 37012.56740377 0 1390.29646585 0 17816.58858893 0 -317.41255004 0 2780.92510145 0 3009
0.05450000 0.05448610 35538.73024716 0 1648.55844225 0 17759.56611612 0 1600.64849276 0 2206.16072012 0 3336
0.05550000 0.05550870 34510.88633425 0 803.54740013 0 16621.88474100 0 3304.44676353 0 -1023.03852394 0 3349
0.05650000 0.05647670 34614.96618754 0 359.09874575 0 15078.73483103 0 2393.88091509 0 -683.82235187 0 3324
0.05750000 0.05747970 33048.78584194 0 1181.72708324 0 13949.80059252 0 661.76517360 0 -2243.91734775 0 3639
0.05850000 0.05849280 32847.93386973 0 -508.09459191 0 11319.12693885 0 1925.51050294 0 123.05781803 0 3846
0.05950000 0.05951020 32621.83699694 0 -645.89078151 0 9440.04269388 0 2840.17311156 0 799.50267988 0 3787
0.06050000 0.06049470 33495.55414838 0 -839.23571749 0 8227.61205391 0 438.53603293 0 -1672.12034946 0 3930
0.06150000 0.06148310 33235.79740813 0 1025.02047009 0 9788.84307032 0 1494.05522173 0 -977.85900975 0 4083
0.06250000 0.06249100 32640.43850263 0 634.63465610 0 8686.99173832 0 -1014.72431524 0 -1506.34550228 0 4303
0.06350000 0.06350600 31895.16031909 0 816.77772106 0 10188.98581694 0 -1919.46501359 0 -1101.29550130 0 4470
0.06450000 0.06451750 31506.74316445 0 800.81696483 0 10950.85034306 0 -950.41071653 0 -3434.69052037 0 4479
0.06550000 0.06550280 31528.22347460 0 613.46215658 0 11730.79597561 0 -354.76835951 0 -2435.44642246 0 4636
0.06650000 0.06648880 30360.31465273 0 527.61399333 0 10249.40749347 0 -44.80205864 0 -2366.06723515 0 4653
0.06750000 0.06749660 30290.00539013 0 243.59336048 0 12279.42967038 0 1081.33763581 0 -1927.14920701 0 5220
0.06850000 0.06852730 30212.72056290 0 -96.45832923 0 10595.98233262 0 2420.88631532 0 -3379.86036787 0 5029
0.06950000 0.06949320 29366.79494675 0 1034.97116840 0 11105.54179310 0 1743.79150801 0 -532.10714274 0 5040
0.07050000 0.07048030 29934.58376345 0 331.61945002 0 9799.73823794 0 478.75293114 0 -2435.56821803 0 5475
0.07150000 0.07148790 29191.40932162 0 817.46309797 0 11414.34893229 0 -792.01668107 0 1549.04038678 0 5509
0.07250000 0.07249820 28513.45087298 0 1056.03737360 0 11923.67587395 0 -589.38317179 0 139.08279374 0 5916
0.07350000 0.07351270 27496.01494539 0 1277.73521175 0 13232.64611401 0 545.74271075 0 1743.48148292 0 5721
0.07450000 0.07449140 26652.85741045 0 1074.61894911 0 12764.84039042 0 60.28548694 0 1126.57583332 0 6028
0.07550000 0.07549160 25877.57322665 0 835.62724683 0 13265.08802573 0 1439.67903454 0 2296.69912016 0 6183
0.07650000 0.07648840 25780.57966124 0 164.12617802 0 12043.47842849 0 1571.16289177 0 2163.67620979 0 6330
0.07750000 0.07749960 25520.38002800 0 -492.37742683 0 11343.37533021 0 2780.10574941 0 1402.09956411 0 6583
0.07850000 0.07848650 25593.90026480 0 -410.96594413 0 9415.34033721 0 2159.93376400 0 1000.39008353 0 6549
0.07950000 0.07947320 25865.28294610 0 -68.77829225 0 8705.28321892 0 724.39688617 0 -1075.97087997 0 6828
0.08050000 0.08048110 24745.87090694 0 1030.46583943 0 8122.33638954 0 333.57260811 0 414.17248940 0 7147
0.08150000 0.08149960 24411.48669741 0 1649.07884151 0 7718.53977573 0 -1217.32460754 0 -107.45558369 0 7386
0.08250000 0.08250610 22809.87491240 0 1167.98632814 0 8328.49200534 0 -512.65528250 0 1741.77634490 0 7227
0.08350000 0.08350160 22407.61735174 0 463.70564171 0 8698.49588380 0 881.10903549 0 2105.30291334 0 7798
0.08450000 0.08449610 22240.64669347 0 62.74121786 0 9234.52927292 0 1321.26052061 0 2030.31005735 0 7371
0.08550000 0.08548940 21905.15525147 0 259.66262548 0 9368.73692205 0 1486.64783643 0 3269.67966360 0 8256
0.08650000 0.08650700 21605.64886512 0 686.95471256 0 9221.68537613 0 1357.82133716 0 3903.59240411 0 8037
0.08750000 0.08749060 21191.43319366 0 410.07905091 0 9200.68117595 0 719.34126266 0 6131.38844692 0 8155
0.08850000 0.08849210 20728.05640000 0 211.89108005 0 8880.67991637 0 1418.27623067 0 5475.49714164 0 8718
0.08950000 0.08949900 20729.27435573 0 -28.42719746 0 8040.09116079 0 276.71289847 0 5386.55315637 0 8571
0.09050000 0.09049190 20934.88742761 0 -274.17290716 0 7835.23100699 0 1032.72127200 0 4297.67858906 0 8932
0.09150000 0.09150830 20314.72651451 0 436.86743358 0 7570.93461357 0 -427.99185800 0 2531.85315466 0 9285
0.09250000 0.09250820 20495.42685556 0 711.26510893 0 7002.74719318 0 -268.91576734 0 3229.49819683 0 9204
0.09350000 0.09350330 19593.36455258 0 478.40304567 0 6577.50348619 0 -79.87896222 0 1937.93365138 0 9349
0.09450000 0.09448040 19558.81889915 0 347.08638056 0 6716.17328222 0 405.71434047 0 2367.87202409 0 9564
0.09550000 0.09549270 19038.97324891 0 82.75178761 0 6374.19345787 0 797.08005521 0 433.01094285 0 10155
0.09650000 0.09649430 18861.37315882 0 132.42611206 0 5731.65537632 0 1298.35188056 0 875.99805035 0 9913
0.09750000 0.09749140 18724.40850081 0 274.42867786 0 5737.95552914 0 -60.56207361 0 -650.53230007 0 10476
0.09850000 0.09850240 18450.47918480 0 455.87529360 0 5422.11746369 0 -83.47171017 0 -319.95032689 0 10575
0.09950000 0.09950330 17938.82705493 0 384.11555645 0 5264.09324388 0 -780.55903935 0 -446.10728864 0 10882
0.10050000 0.10051200 17519.07522105 0 680.48515317 0 5446.08904692 0 -294.99219952 0 -780.17040074 0 10875
0.10150000 0.10150300 17519.85028379 0 235.57699731 0 5876.90213329 0 -9.25442624 0 -736.78349594 0 11118
0.10250000 0.10250800 16706.25585612 0 328.84583265 0 5286.43719536 0 674.87702065 0 -799.34545287 0 11575
0.10350000 0.10349800 16738.14415160 0 450.17526078 0 5663.58272334 0 674.14956891 0 74.05790889 0 11364
0.10450000 0.10450100 16577.59544173 0 -93.54055019 0 4868.27977626 0 1010.48250760 0 189.40097388 0 12093
0.10550000 0.10551000 16601.06877034 0 -104.47292083 0 5211.98688328 0 687.64230393 0 386.55478960 0 12067
0.10650000 0.10649700 16918.51232289 0 -140.63845538 0 4621.24513723 0 26.25558240 0 394.06182583 0 12054
0.10750000 0.10749900 16648.79049031 0 400.67200375 0 5207.05969874 0 -633.63593240 0 22.37107868 0 12807
0.10850000 0.10850100 16055.31388003 0 615.06321475 0 5096.32537823 0 -662.41401183 0 550.13067308 0 12736
0.10950000 0.10950300 16094.39918664 0 494.78897917 0 5494.13186431 0 -148.41787080 0 -406.69756291 0 12933
0.11050000 0.11050200 15535.35750655 0 28.99354688 0 5345.87343499 0 276.43609035 0 -359.93027734 0 13428
0.11150000 0.11150900 15787.25289617 0 40.95376142 0 4916.79870362 0 879.56555341 0 -638.45460816 0 13453
0.11250000 0.11250000 15572.33907144 0 -79.48788770 0 4850.08794659 0 783.66482646 0 -108.74562025 0 13668
0.11350000 0.11349100 15667.00744864 0 25.84302757 0 4555.23193666 0 250.75826187 0 -1242.53629115 0 13791
0.11450000 0.11448600 15280.91548221 0 367.41406169 0 3935.75750771 0 388.28982290 0 -1129.43249313 0 14205
0.11550000 0.11549300 14950.73875612 0 508.45333523 0 4205.06966428 0 -410.72346022 0 -1002.98986539 0 14776
0.11650000 0.11649800 14449.82678133 0 416.80216654 0 4254.97263223 0 117.06215415 0 -841.14347906 0 14553
0.11750000 0.11747300 14341.31799810 0 443.13104773 0 4402.86567484 0 56.07335313 0 -665.07247702 0 14568
0.11850000 0.11849100 13914.25842985 0 106.97991661 0 3601.74975723 0 617.01526561 0 -245.22431392 0 16015
0.11950000 0.11950300 13813.61099725 0 -53.89210514 0 3562.37657018 0 480.85113669 0 -676.97190450 0 15270
0.12050000 0.12050700 13911.93324164 0 157.19933161 0 3395.60521376 0 285.59954637 0 -757.79766122 0 15999
0.12150000 0.12150000 13967.95920522 0 141.75676019 0 3433.80473438 0 19.87471233 0 -529.18515622 0 15670
0.12250000 0.12250700 13554.62931974 0 162.68234686 0 3464.76295458 0 -150.46625089 0 -401.25551527 0 16887
0.12350000 0.12352200 13642.43285555 0 135.17537032 0 3355.24658979 0 290.96851668 0 433.88565651 0 16407
0.12450000 0.12449800 13613.64481102 0 124.78952964 0 3535.84727991 0 -82.85165998 0 -103.74214739 0 16306
0.12550000 0.12549900 13693.80844271 0 -211.84568352 0 3302.66411923 0 360.95003846 0 -126.69729120 0 17523
0.12650000 0.12650100 13567.69466302 0 -81.47481639 0 3506.06272615 0 463.39340215 0 489.16313093 0 17154
0.12750000 0.12750600 13787.70175717 0 144.08527010 0 3521.90722296 0 498.21032754 0 244.02628838 0 18007
0.12850000 0.12850300 13346.24816665 0 378.10439130 0 3290.05274126 0 48.59499423 0 1124.42780231 0 17496
0.12950000 0.12949900 13180.82763386 0 363.27854837 0 3368.76589840 0 276.04080836 0 1361.44198738 0 18405
0.13050000 0.13049000 12782.77755663 0 411.01798406 0 3487.35049721 0 -118.35872338 0 1132.13414038 0 18100
0.13150000 0.13148800 12454.26167926 0 355.97192122 0 3338.59381327 0 109.21298308 0 997.93977804 0 19059
0.13250000 0.13249300 12290.72344169 0 119.17475372 0 3238.32283971 0 -78.75866439 0 781.92093530 0 18957
0.13350000 0.13349100 12013.02953524 0 256.23795542 0 3214.52841367 0 -139.12708304 0 486.17803216 0 19468
0.13450000 0.13450700 12138.14680569 0 280.08995754 0 3376.67153832 0 12.70560345 0 126.72718648 0 19953
0.13550000 0.13551000 11735.88924503 0 47.77110254 0 3196.65768142 0 -128.53529712 0 173.86096600 0 19956
0.13650000 0.13649900 11802.87681018 0 -24.61089927 0 3221.67006318 0 287.60585163 0 98.93332600 0 19723
0.13750000 0.13749600 11736.99647751 0 -125.84472219 0 3296.77364243 0 448.67496077 0 57.58051799 0 20946
0.13850000 0.13851100 12016.12978619 0 90.85462564 0 3238.41141831 0 -4.64295797 0 85.80498118 0 20955
0.13950000 0.13949800 11934.52675227 0 208.14641980 0 3450.78968065 0 -202.18508012 0 404.02027477 0 20506
0.14050000 0.14048300 11469.48910989 0 419.71086627 0 3447.93302085 0 -75.02574080 0 326.92146260 0 21447
0.14150000 0.14148400 11420.10654120 0 367.24686958 0 3689.74152257 0 -96.98448610 0 571.13487326 0 21771
0.14250000 0.14249400 11208.84658366 0 199.02725308 0 3473.48794653 0 -302.45716091 0 -11.22944111 0 22470
0.14350000 0.14350900 10999.94503131 0 168.67911798 0 3552.68828596 0 268.52048534 0 -4.34844520 0 22519
0.14450000 0.14449900 10755.02520632 0 188.96693875 0 2886.58829720 0 150.95675488 0 -179.50120826 0 22218
0.14550000 0.14550500 10748.80255977 0 85.07520425 0 3063.08115480 0 379.16844172 0 -491.62672320 0 23559
0.14650000 0.14650700 10389.61634265 0 139.11047456 0 2644.73550618 0 353.35331640 0 -556.56037210 0 23044
0.14750000 0.14750500 10248.83173258 0 396.23532319 0 2487.74101258 0 385.02348708 0 -751.36242603 0 23649
0.14850000 0.14849900 9905.78896505 0 201.58717458 0 2103.29882255 0 -39.13513207 0 -128.34817483 0 23640
0.14950000 0.14949500 10136.79087774 0 -106.11129273 0 2235.04841557 0 405.05553714 0 -55.95820095 0 24457
0.15050000 0.15050000 9929.32872762 0 -150.38431569 0 2191.62275763 0 252.68484638 0 -165.17251271 0 24591
0.15150000 0.15149900 10200.86642147 0 20.72373819 0 2161.29565995 0 214.38567484 0 -122.47209205 0 25020
0.15250000 0.15250500 10064.11213763 0 260.10662571 0 2259.50718109 0 -32.30837948 0 277.38055966 0 25297
0.15350000 0.15350100 9839.53217334 0 302.01094622 0 2328.27739054 0 -232.83106075 0 492.89671886 0 25452
0.15450000 0.15450400 9671.58715049 0 105.06750467 0 2349.73555604 0 285.42903257 0 541.24181071 0 26061
0.15550000 0.15549900 9583.34072168 0 73.17123712 0 2250.81540611 0 392.82061822 0 578.75484720 0 26128
0.15650000 0.15649500 9506.70916161 0 164.61003861 0 2354.05376272 0 221.23501497 0 602.69432069 0 26331
0.15750000 0.15749700 9425.72617789 0 167.89851908 0 2176.39831100 0 -19.38808365 0 812.65106560 0 27345
0.15850000 0.15849900 9196.73942832 0 266.83306304 0 2364.21815690 0 -69.90036164 0 684.31728479 0 26980
0.15950000 0.15949700 9069.20839106 0 189.03669440 0 2188.51143435 0 -366.46959238 0 773.82817309 0 27777
0.16050000 0.16050000 8966.55686766 0 128.71245432 0 2631.90268172 0 -300.83063639 0 590.20030937 0 28224
0.16150000 0.16150500 8949.42798117 0 15.49350412 0 2726.57105892 0 -209.08978188 0 429.48108569 0 28075
0.16250000 0.16249700 8925.38996399 0 107.71976936 0 3137.60897316 0 -128.95715270 0 501.69368093 0 28590
0.16350000 0.16349900 8908.40501771 0 68.11306697 0 2979.77298287 0 237.71727769 0 387.59558814 0 29163
0.16450000 0.16449100 8916.88641853 0 43.95414000 0 3113.99170432 0 192.48240188 0 769.66940789 0 28996
0.16550000 0.16550500 8837.03281193 0 6.17759326 0 2965.04679086 0 407.43940868 0 535.40226661 0 30777
0.16650000 0.16650700 8808.55479250 0 23.29905022 0 2805.92641089 0 155.23842289 0 531.02648384 0 29211
0.16750000 0.16749900 8690.12520624 0 227.41780115 0 2801.57498724 0 238.75364730 0 149.55278409 0 30922
0.16850000 0.16850800 8463.65187440 0 380.14502077 0 2510.28426591 0 -197.28889808 0 386.31562739 0 30867
0.16950000 0.16949900 8235.90522520 0 172.59097034 0 2426.58856260 0 72.64950917 0 494.97831593 0 30852
0.17050000 0.17049200 8118.46107585 0 12.75099998 0 2189.20899082 0 160.38705393 0 447.31417205 0 31257
0.17150000 0.17149500 8114.28680940 0 -15.62836504 0 2221.90556601 0 385.12092354 0 452.43512227 0 32608
0.17250000 0.17250900 8151.29051894 0 17.31667312 0 1842.16911403 0 319.67019707 0 265.26079291 0 32361
0.17350000 0.17350400 8135.20243098 0 49.34913027 0 2062.34229305 0 152.53788286 0 646.16094623 0 32508
0.17450000 0.17449800 8089.14155973 0 41.81762421 0 2052.47685163 0 -22.05972491 0 590.71074354 0 32791
0.17550000 0.17549800 8086.51741875 0 134.24529503 0 2180.76080698 0 -132.41946867 0 521.86524228 0 33633
0.17650000 0.17650100 7985.53781640 0 294.80839892 0 2291.34011495 0 -354.56684320 0 458.40864151 0 33984
0.17750000 0.17750300 7752.18857085 0 220.89730906 0 2504.60416328 0 -196.24256339 0 624.84893542 0 34069
0.17850000 0.17849800 7648.85056332 0 -15.59691963 0 2301.15019473 0 12.02244101 0 395.92640533 0 34536
