### header ###
fiducial parameters:
Omega_m = 0.31
Omega_nu = 0
Omega_de = 0.69
Omega_k = 0
H_0 = 100
w_de = -1
zeff = 0
beta = 0
fgrowth = 0
b_1 = 2
gamma = 0.55
Lx = 3500 Ly = 3500 Lz = 3500
nx = 700 ny = 700 nz = 700
xoffset = -685.467585 yoffset = -31.7331281 zoffset = 572.489161
bins = 400 dk = 0.001
kx_ny = 0.628318531 ky_ny = 0.628318531 kz_ny = 0.628318531
############################
A(data) = 8.00345166 (not used)
A(ran) = 7.99801837 (used)
Ngal = 475053
weighted Ngal = 0
Nran = 23820508
weighted Nran = 0
SN(data) = 3489.45969
SN(ran) = 69.6656407
SN(data+ran) = 3559.12533
############################
13 columns: k_central k_mean P_0(k) sigma^{lin}_{P_0(k)} P^img_1(k) sigma^{lin}_{P_1(k)} P_2(k) sigma^{lin}_{P_2(k)} P^img_3(k) sigma^{lin}_{P_3(k)} P_4(k) sigma^{lin}_{P_4(k)} N_modes
### header ###
0.00050000 0 0 0 0 0 0 0 0 0 0 0 0
0.00150000 0.00179520 4421.67755470 0 -3983.05847934 0 -24710.10729777 0 37710.34531384 0 11276.49848830 0 3
0.00250000 0.00253879 19833.85544764 0 -18793.83197743 0 6200.24723497 0 -6839.62970395 0 -22833.45896426 0 6
0.00350000 0.00331552 27834.05302211 0 -11106.87047208 0 -4131.94803117 0 -4263.91907069 0 39955.92351031 0 7
0.00450000 0.00420575 50855.85223153 0 -12550.25873544 0 19049.49195749 0 -964.38399045 0 20990.69194469 0 24
0.00550000 0.00557378 66317.24660829 0 -10827.74823573 0 18886.06444317 0 13234.08551624 0 8736.13071586 0 45
0.00650000 0.00659388 82526.13363355 0 2085.48345192 0 66188.14330090 0 47211.17507098 0 22798.35969459 0 40
0.00750000 0.00754703 68739.42838562 0 20372.08115708 0 53692.36040357 0 12903.02300416 0 12209.67402402 0 57
0.00850000 0.00846663 69347.74191115 0 13622.72411737 0 39970.53897907 0 54166.47735231 0 38031.88562658 0 75
0.00950000 0.00948925 65650.91410070 0 -17236.28804519 0 36077.28812634 0 35333.33862178 0 10625.82224801 0 112
0.01050000 0.01054430 83775.09187310 0 -28126.69456706 0 51469.25902648 0 13024.81857717 0 -4874.29204864 0 105
0.01150000 0.01145670 99277.12168194 0 -4686.51649204 0 27147.12599036 0 7069.35829929 0 -31229.49215099 0 144
0.01250000 0.01249090 104946.59488208 0 9034.55201437 0 50716.56238531 0 -32021.82771501 0 10217.20917290 0 169
0.01350000 0.01339930 81984.69694992 0 20498.19493676 0 20848.41257077 0 -14723.20248110 0 -4239.93641513 0 180
0.01450000 0.01448870 87963.30945900 0 7374.71087313 0 53552.62766436 0 8134.46058522 0 5596.47336261 0 267
0.01550000 0.01550050 70648.29718435 0 6728.98396204 0 38733.09595734 0 23674.51275749 0 13755.37056870 0 238
0.01650000 0.01653350 84194.62226048 0 374.30990559 0 55067.54314605 0 25482.29123063 0 -4928.59072955 0 315
0.01750000 0.01747870 63026.55167219 0 5952.09429114 0 22418.91112305 0 15819.25191490 0 3510.58023468 0 297
0.01850000 0.01844180 68229.65855097 0 10201.24288051 0 30590.39756246 0 18674.25086938 0 16367.55343992 0 388
0.01950000 0.01947590 58186.72777071 0 -2957.78334578 0 19704.19852401 0 7460.95321115 0 13823.57608958 0 399
0.02050000 0.02045430 62682.86670982 0 -5314.26194763 0 22621.86683698 0 5626.16933777 0 2305.59019699 0 462
0.02150000 0.02154770 65244.00616362 0 910.62896069 0 20791.05792821 0 -448.76243213 0 -2352.95760256 0 571
0.02250000 0.02255340 58967.88028666 0 6172.96502662 0 16102.59270701 0 -10014.56348407 0 3926.65605671 0 510
0.02350000 0.02348930 59093.99406635 0 4440.46728992 0 17777.28183583 0 -7684.34843669 0 13046.07744082 0 555
0.02450000 0.02439640 59230.29438487 0 3465.84804241 0 18764.04742366 0 3704.72237805 0 5716.71881014 0 592
0.02550000 0.02547300 58438.62316033 0 -3999.31265217 0 21303.26367432 0 1567.23221646 0 -1811.89737797 0 837
0.02650000 0.02652900 61660.33751281 0 -2056.99436016 0 19431.59788698 0 8498.78436105 0 -10763.40695621 0 723
0.02750000 0.02749970 63086.34222621 0 -1299.54769164 0 14277.54140715 0 4910.37675522 0 -8107.45518498 0 826
0.02850000 0.02848090 58479.25859242 0 2905.38910474 0 9915.99764854 0 3072.73622205 0 -15623.49321210 0 831
0.02950000 0.02946900 59608.74644717 0 4172.28451049 0 8301.33159256 0 3050.00473919 0 -12106.36923346 0 996
0.03050000 0.03053250 57177.48536349 0 -2055.33351144 0 4750.07163650 0 -2848.47735517 0 -14487.58340896 0 1041
0.03150000 0.03150510 54385.37721397 0 576.35879611 0 6519.94954178 0 -486.46259091 0 -14101.49144253 0 1036
0.03250000 0.03246190 58244.63602951 0 347.96109422 0 9252.71003027 0 1779.77656367 0 -7771.03366769 0 1059
0.03350000 0.03345080 55772.73951375 0 870.75641178 0 10460.63423404 0 -2808.78307069 0 -11276.94138129 0 1302
0.03450000 0.03451200 56828.48568521 0 1794.05986269 0 13762.78902633 0 2876.64534951 0 -556.24591808 0 1339
0.03550000 0.03553350 54341.53080769 0 3202.52601357 0 17757.79454414 0 -1277.52483758 0 -1073.23490851 0 1365
0.03650000 0.03647120 53285.89535948 0 4251.58450084 0 15210.05260337 0 1648.39235738 0 11551.64576005 0 1308
0.03750000 0.03744890 50355.82604272 0 2788.93039230 0 18987.37621526 0 1246.94307643 0 7028.49034838 0 1579
0.03850000 0.03847530 48323.94371525 0 1594.10474879 0 18256.04916098 0 2169.26773382 0 7494.98953764 0 1662
0.03950000 0.03950240 47234.98056934 0 -546.18117482 0 22056.07103874 0 3679.16745236 0 5670.95689167 0 1683
0.04050000 0.04050350 49183.48829092 0 -1029.51361950 0 18574.93211576 0 3559.95173104 0 4255.84734589 0 1822
0.04150000 0.04152450 47879.72204353 0 562.07660433 0 18632.84037456 0 2199.52839755 0 493.47690868 0 1887
0.04250000 0.04250150 47925.00785204 0 2203.30406031 0 19018.93234099 0 516.89930460 0 3105.56566513 0 1920
0.04350000 0.04349210 46907.35047795 0 2235.14806649 0 18747.32821319 0 -482.41233449 0 3303.48347127 0 2005
0.04450000 0.04448520 45936.75048435 0 1937.80078349 0 19868.62254757 0 -187.16214980 0 1864.46877621 0 2151
0.04550000 0.04548030 44539.64453873 0 -474.89533317 0 18623.09672872 0 -2292.30340720 0 -3344.31820520 0 2274
0.04650000 0.04648670 45869.65219595 0 -392.70435881 0 20294.68560659 0 -143.54051172 0 -2796.44850085 0 2311
0.04750000 0.04749250 43414.47489066 0 2319.17593954 0 20735.14268788 0 755.32410385 0 -2119.65264631 0 2568
0.04850000 0.04851840 41709.55831509 0 2844.91206658 0 18683.77306873 0 1903.41014260 0 -3766.06305754 0 2493
0.04950000 0.04949480 39607.36672502 0 1847.04093695 0 18055.41863527 0 4205.29111077 0 546.22657135 0 2644
0.05050000 0.05050630 37764.93187520 0 1870.37032534 0 16208.77630202 0 5242.38041491 0 -1831.15215083 0 2829
0.05150000 0.05149060 36680.28693596 0 979.73687604 0 14617.68322558 0 5563.01279701 0 4261.62709945 0 2784
0.05250000 0.05249300 35111.44923241 0 895.85847938 0 13560.60837514 0 2783.05098782 0 1348.65345221 0 3055
0.05350000 0.05348950 34495.38507950 0 700.28689887 0 11701.78648459 0 1726.96157429 0 4532.92120216 0 3009
0.05450000 0.05448610 34540.89233450 0 -535.39894491 0 12541.51159883 0 -1909.04595593 0 2207.34545887 0 3336
0.05550000 0.05550870 34938.16734900 0 -295.64435945 0 11645.31762801 0 562.54717813 0 3810.39664611 0 3349
0.05650000 0.05647670 35671.81959148 0 -619.48328681 0 11912.82499563 0 776.68040396 0 2437.67195975 0 3324
0.05750000 0.05747970 35444.17259321 0 506.41492023 0 8580.13273149 0 1951.36438139 0 1314.40675155 0 3639
0.05850000 0.05849280 34668.88840941 0 820.11381253 0 7835.36387489 0 102.21870622 0 2005.85129182 0 3846
0.05950000 0.05951020 33115.21979086 0 1890.64375208 0 9127.80313400 0 1778.87970536 0 2002.79533017 0 3787
0.06050000 0.06049470 32412.12716487 0 763.83761440 0 9303.27733772 0 366.93241556 0 3215.53599523 0 3930
0.06150000 0.06148310 32543.66638372 0 66.22512487 0 10209.42532855 0 1395.17936110 0 3869.38999275 0 4083
0.06250000 0.06249100 32028.80327965 0 842.03037227 0 8319.22446946 0 810.97360839 0 4344.51452304 0 4303
0.06350000 0.06350600 32275.60539986 0 262.21701082 0 8763.04753749 0 773.69309073 0 4151.65676935 0 4470
0.06450000 0.06451750 31806.36027404 0 277.31080401 0 10271.98396378 0 -488.15997830 0 4240.89970739 0 4479
0.06550000 0.06550280 31016.79279123 0 1294.74230267 0 9732.63994954 0 -166.77357088 0 2886.27827210 0 4636
0.06650000 0.06648880 29825.29991749 0 1570.76428807 0 10818.77965262 0 -159.86665466 0 2968.21347576 0 4653
0.06750000 0.06749660 28474.47628962 0 940.92505586 0 9903.44163219 0 -225.68166062 0 2638.04782199 0 5220
0.06850000 0.06852730 29627.32674973 0 -798.32237005 0 11414.57037879 0 709.78473910 0 2127.33683973 0 5029
0.06950000 0.06949320 28299.97645047 0 -503.07439983 0 9059.73048101 0 1227.24541057 0 2446.24193916 0 5040
0.07050000 0.07048030 30523.52072056 0 -213.41573918 0 10810.59720458 0 793.44833267 0 2116.34202119 0 5475
0.07150000 0.07148790 30070.88408197 0 -181.38682518 0 9295.06167271 0 663.28429656 0 2328.88636841 0 5509
0.07250000 0.07249820 30023.16236200 0 1025.33713858 0 10463.40231524 0 -49.27184544 0 1760.01246387 0 5916
0.07350000 0.07351270 28708.54523628 0 1125.78969826 0 9304.03025581 0 -391.78978478 0 2720.71379909 0 5721
0.07450000 0.07449140 28242.06819167 0 1248.93609489 0 10549.87717208 0 1589.27721517 0 1567.53116923 0 6028
0.07550000 0.07549160 27038.94937688 0 -80.10085161 0 9213.39220484 0 339.36564846 0 1607.43582787 0 6183
0.07650000 0.07648840 26841.41910211 0 805.92019934 0 10034.67082594 0 770.46107911 0 -518.45496624 0 6330
0.07750000 0.07749960 26300.09314173 0 631.08819046 0 9038.89236570 0 338.76552845 0 594.72889022 0 6583
0.07850000 0.07848650 25590.46784410 0 185.18020366 0 8825.20756903 0 1045.28393174 0 1331.83459081 0 6549
0.07950000 0.07947320 25325.50711119 0 14.02376372 0 8785.77902035 0 1491.22070658 0 1358.72926780 0 6828
0.08050000 0.08048110 25699.75169006 0 362.77586482 0 8969.39138282 0 1352.46233195 0 1884.26609299 0 7147
0.08150000 0.08149960 24753.17864132 0 1219.49478320 0 8464.06155042 0 457.78859132 0 3354.47152706 0 7386
0.08250000 0.08250610 23761.43050731 0 1369.98982214 0 8212.01114825 0 543.36880431 0 3959.44121050 0 7227
0.08350000 0.08350160 22672.35663815 0 447.42821699 0 7648.16407918 0 1268.53410982 0 4337.24000564 0 7798
0.08450000 0.08449610 22769.90381980 0 2.31764796 0 7958.64313942 0 1854.23794808 0 3529.65785034 0 7371
0.08550000 0.08548940 22471.17249619 0 125.04862204 0 6627.34002020 0 -10.67477300 0 2178.12559367 0 8256
0.08650000 0.08650700 22274.30656092 0 370.08027751 0 6799.73611763 0 -463.26385595 0 1879.43855937 0 8037
0.08750000 0.08749060 21473.99892303 0 799.68980217 0 6073.97844274 0 -819.43175732 0 1702.33672389 0 8155
0.08850000 0.08849210 21494.81489369 0 286.19080852 0 6500.03042944 0 44.36337313 0 2758.53686067 0 8718
0.08950000 0.08949900 20663.72619280 0 -70.12900515 0 6606.52404954 0 356.37384661 0 1670.26019889 0 8571
0.09050000 0.09049190 21647.83442268 0 -174.51755486 0 6521.63253516 0 1279.94967671 0 5.75337928 0 8932
0.09150000 0.09150830 21046.16429203 0 -198.30423027 0 6130.45837164 0 65.26836528 0 929.07656107 0 9285
0.09250000 0.09250820 21251.55591742 0 428.31738435 0 6390.30369048 0 -388.11155847 0 692.41447593 0 9204
0.09350000 0.09350330 20622.53714447 0 672.87182262 0 5536.98176136 0 236.76616499 0 181.70349367 0 9349
0.09450000 0.09448040 20134.46906647 0 807.79474393 0 5589.16562823 0 5.02847417 0 -296.51021525 0 9564
0.09550000 0.09549270 19302.93747259 0 719.62471417 0 5109.86683148 0 -143.44196803 0 -462.25848885 0 10155
0.09650000 0.09649430 18915.07393419 0 568.88829855 0 4863.52974892 0 204.82804405 0 -1664.76832578 0 9913
0.09750000 0.09749140 18398.21781166 0 271.59305548 0 4677.07179897 0 -316.05951195 0 -2424.32980834 0 10476
0.09850000 0.09850240 17850.91279587 0 279.36250580 0 4842.85771848 0 -179.31408597 0 -2896.11049654 0 10575
0.09950000 0.09950330 17957.53928387 0 527.81772410 0 4424.95496285 0 -215.78853839 0 -3250.03735937 0 10882
0.10050000 0.10051200 17671.31968731 0 145.23125572 0 5186.37659598 0 128.62609019 0 -2454.29151930 0 10875
0.10150000 0.10150300 17288.99231132 0 360.84928030 0 5341.90954270 0 183.26579870 0 -1409.86126381 0 11118
0.10250000 0.10250800 17043.40814685 0 705.39124062 0 5539.55054072 0 85.02216782 0 -2104.36176573 0 11575
0.10350000 0.10349800 16325.25715911 0 885.41616984 0 6104.15052787 0 431.12200423 0 -548.87285698 0 11364
0.10450000 0.10450100 16024.75426353 0 643.71064075 0 6257.38043104 0 -55.11316112 0 27.49147529 0 12093
0.10550000 0.10551000 15520.96348428 0 360.26687602 0 6531.95194189 0 857.97784171 0 1487.65541798 0 12067
0.10650000 0.10649700 15438.58538763 0 -272.77890146 0 6238.75678069 0 969.57469632 0 1218.67543116 0 12054
0.10750000 0.10749900 15526.27820019 0 -342.21345040 0 5959.86706316 0 1064.56306371 0 1330.48376718 0 12807
0.10850000 0.10850100 15850.80804063 0 -36.94613345 0 5290.68896809 0 887.91519355 0 517.27354918 0 12736
0.10950000 0.10950300 15471.35946909 0 -64.62406670 0 4771.95055034 0 81.96188796 0 124.24255679 0 12933
0.11050000 0.11050200 15886.79309629 0 -121.58630607 0 4920.62972800 0 -388.07280534 0 20.45357347 0 13428
0.11150000 0.11150900 15650.95257765 0 191.48146372 0 4798.61270850 0 -314.93899268 0 -318.16325366 0 13453
0.11250000 0.11250000 15620.72513090 0 567.40903596 0 4991.91335519 0 -276.25782592 0 -199.71484445 0 13668
0.11350000 0.11349100 15251.24165170 0 412.25808444 0 5308.10573503 0 -451.92358087 0 70.57378044 0 13791
0.11450000 0.11448600 14746.67580971 0 463.42329742 0 5146.91483032 0 -48.07071965 0 437.75100510 0 14205
0.11550000 0.11549300 14797.94067362 0 324.99598531 0 5671.89803927 0 46.11634359 0 385.82180170 0 14776
0.11650000 0.11649800 14423.25320176 0 166.12030372 0 6050.94800712 0 215.87933145 0 901.93940017 0 14553
0.11750000 0.11747300 14525.34003659 0 384.09230456 0 6098.21576177 0 334.41078310 0 1607.76799762 0 14568
0.11850000 0.11849100 14273.11247722 0 -105.81898335 0 5755.56052560 0 773.65876652 0 1712.34610553 0 16015
0.11950000 0.11950300 14201.91742864 0 -169.91700390 0 5185.86726904 0 1408.86475457 0 1855.95415843 0 15270
0.12050000 0.12050700 14441.85470746 0 -187.44338685 0 4717.45256758 0 606.85972929 0 451.98669312 0 15999
0.12150000 0.12150000 13992.42904307 0 253.77325591 0 3974.79852502 0 447.11929913 0 473.73163183 0 15670
0.12250000 0.12250700 13909.94022317 0 479.70293661 0 3601.11863472 0 -209.68658018 0 568.97576992 0 16887
0.12350000 0.12352200 13612.53757854 0 -46.41773227 0 3242.20922572 0 0.73484362 0 153.29080095 0 16407
0.12450000 0.12449800 13426.85469133 0 141.34929863 0 3232.35485663 0 -281.77405815 0 -610.59553168 0 16306
0.12550000 0.12549900 13265.30947223 0 421.60866275 0 3782.14007318 0 -213.50542501 0 -203.45064685 0 17523
0.12650000 0.12650100 13019.17169151 0 363.64393509 0 3193.52421349 0 153.72262162 0 -257.59320798 0 17154
0.12750000 0.12750600 12881.87486376 0 76.11658624 0 3668.38300799 0 487.45577844 0 276.32536710 0 18007
0.12850000 0.12850300 12715.78999148 0 10.74360964 0 3093.46361411 0 983.21247880 0 -318.20422127 0 17496
0.12950000 0.12949900 12901.02998569 0 23.92840117 0 3399.35873187 0 348.37962809 0 -32.88934436 0 18405
0.13050000 0.13049000 12477.07066839 0 368.66966332 0 3049.03037461 0 20.10224860 0 -233.43893138 0 18100
0.13150000 0.13148800 12286.29451176 0 489.69570975 0 3317.35709426 0 -238.62742279 0 610.66418010 0 19059
0.13250000 0.13249300 12115.55926306 0 283.91544577 0 3331.72897188 0 -583.14280953 0 1247.05379967 0 18957
0.13350000 0.13349100 11918.13971154 0 -27.71591132 0 3760.46046118 0 56.01356258 0 473.65855449 0 19468
0.13450000 0.13450700 11900.64543833 0 57.02590524 0 3774.54445835 0 -74.49249764 0 800.17698446 0 19953
0.13550000 0.13551000 12096.40414112 0 164.44173928 0 3929.42413791 0 236.01878307 0 148.51752172 0 19956
0.13650000 0.13649900 11826.12869230 0 -18.58412215 0 3884.24905265 0 18.83037065 0 421.94193972 0 19723
0.13750000 0.13749600 11982.24847224 0 170.64556287 0 3876.39877436 0 -22.62264190 0 -108.53967501 0 20946
0.13850000 0.13851100 11841.40850055 0 211.38618204 0 4000.90706694 0 -496.43654110 0 -363.47120682 0 20955
0.13950000 0.13949800 11543.78440942 0 232.20879610 0 3732.24817754 0 164.33212326 0 157.52264350 0 20506
0.14050000 0.14048300 11321.11995732 0 224.34965994 0 3973.79094346 0 11.50968165 0 -165.20794415 0 21447
0.14150000 0.14148400 11268.08352144 0 175.38673236 0 3230.50577839 0 855.59950634 0 -117.86711216 0 21771
0.14250000 0.14249400 11039.71682206 0 8.66499103 0 3161.83521986 0 529.21394426 0 -528.57617835 0 22470
0.14350000 0.14350900 11031.75582051 0 116.26494676 0 2782.05447858 0 103.93646669 0 -300.58593801 0 22519
0.14450000 0.14449900 10808.63740309 0 238.03616065 0 2969.02175547 0 -99.85697933 0 -477.25595282 0 22218
0.14550000 0.14550500 10594.15539903 0 267.34460444 0 3266.75656984 0 -362.83897707 0 29.83925105 0 23559
0.14650000 0.14650700 10409.55759965 0 268.47730327 0 3028.26976557 0 274.11533107 0 375.07389600 0 23044
0.14750000 0.14750500 10276.32431511 0 26.48023987 0 3181.72111524 0 427.72169328 0 108.75215292 0 23649
0.14850000 0.14849900 10263.72400947 0 -39.97231055 0 3018.52611973 0 533.44910851 0 -3.66547099 0 23640
0.14950000 0.14949500 10277.16581180 0 153.94296088 0 2753.77576100 0 447.98847663 0 -351.81869218 0 24457
0.15050000 0.15050000 10089.06915778 0 325.55513771 0 2791.35523143 0 -220.13996204 0 354.49376586 0 24591
0.15150000 0.15149900 9788.88735962 0 184.17151487 0 2877.79687129 0 -201.88502012 0 570.54471835 0 25020
0.15250000 0.15250500 9796.58262537 0 161.75116435 0 2829.79834320 0 37.59807194 0 272.91176936 0 25297
0.15350000 0.15350100 9777.91468572 0 9.93678040 0 2641.44702571 0 216.51266843 0 455.93065522 0 25452
0.15450000 0.15450400 9647.63771191 0 60.86268723 0 2846.30717951 0 137.41308716 0 506.07832156 0 26061
0.15550000 0.15549900 9639.08987715 0 30.36407924 0 2451.61201670 0 366.58253010 0 252.23752446 0 26128
0.15650000 0.15649500 9528.35555664 0 120.42924812 0 2593.62565482 0 409.62951453 0 309.95976821 0 26331
0.15750000 0.15749700 9493.56631205 0 36.81614436 0 2096.58899371 0 270.26880543 0 466.09504940 0 27345
0.15850000 0.15849900 9425.79261184 0 18.95294129 0 1978.75731299 0 231.46584310 0 359.32905011 0 26980
0.15950000 0.15949700 9410.28028477 0 168.39345200 0 1882.90419703 0 5.06856706 0 397.83305966 0 27777
0.16050000 0.16050000 9227.66443154 0 196.50608472 0 1718.03728049 0 147.65830932 0 245.83993518 0 28224
0.16150000 0.16150500 9049.63252078 0 229.58908404 0 1733.57175221 0 58.81873607 0 417.67909467 0 28075
0.16250000 0.16249700 8937.97919730 0 46.19296408 0 1705.23767299 0 137.00451838 0 157.93121228 0 28590
0.16350000 0.16349900 8812.20865969 0 150.34445532 0 1860.94777692 0 -44.38485344 0 188.61262436 0 29163
0.16450000 0.16449100 8688.04360917 0 297.73592161 0 2157.80787763 0 -216.32111721 0 204.89669247 0 28996
0.16550000 0.16550500 8645.09406120 0 72.33250851 0 2254.90109397 0 -345.48421515 0 566.41474119 0 30777
0.16650000 0.16650700 8555.38608552 0 63.99737311 0 2290.66470313 0 -112.12168281 0 553.37375702 0 29211
0.16750000 0.16749900 8520.90686604 0 83.31636546 0 2374.63721456 0 271.50558411 0 834.27753044 0 30922
0.16850000 0.16850800 8537.09460492 0 51.35167094 0 2281.19786541 0 334.36981550 0 864.92683277 0 30867
0.16950000 0.16949900 8440.71001737 0 -8.72375186 0 2110.51797833 0 533.88867980 0 868.58955782 0 30852
0.17050000 0.17049200 8413.83748504 0 43.15881491 0 1952.61555409 0 198.60761197 0 677.23210414 0 31257
0.17150000 0.17149500 8436.12607490 0 147.68599013 0 1826.98895670 0 -14.60395354 0 793.85025806 0 32608
0.17250000 0.17250900 8184.91716941 0 230.14048582 0 2017.02326756 0 -112.38298968 0 812.46726501 0 32361
0.17350000 0.17350400 8150.74797502 0 109.25992974 0 2054.90169077 0 -184.50479185 0 964.72280359 0 32508
0.17450000 0.17449800 8078.58963418 0 40.22332015 0 2280.12384990 0 -119.72172657 0 802.27519001 0 32791
0.17550000 0.17549800 8131.36033427 0 111.40198170 0 2305.09194237 0 -64.49153097 0 756.90633907 0 33633
0.17650000 0.17650100 7927.44132808 0 88.64016068 0 2357.60797898 0 -194.48427821 0 454.95407617 0 33984
0.17750000 0.17750300 7940.78347949 0 125.99641304 0 2406.49229306 0 -92.40441894 0 797.04794547 0 34069
0.17850000 0.17849800 7893.16141044 0 100.11784331 0 2460.29271935 0 181.14101957 0 625.50330982 0 34536
