### header ###
fiducial parameters:
Omega_m = 0.31
Omega_nu = 0
Omega_de = 0.69
Omega_k = 0
H_0 = 100
w_de = -1
zeff = 0
beta = 0
fgrowth = 0
b_1 = 2
gamma = 0.55
Lx = 3500 Ly = 3500 Lz = 3500
nx = 700 ny = 700 nz = 700
xoffset = -685.467585 yoffset = -31.7331281 zoffset = 572.489161
bins = 400 dk = 0.001
kx_ny = 0.628318531 ky_ny = 0.628318531 kz_ny = 0.628318531
############################
A(data) = 8.08791597 (not used)
A(ran) = 8.0839005 (used)
Ngal = 480017
weighted Ngal = 0
Nran = 23820508
weighted Nran = 0
SN(data) = 3492.05425
SN(ran) = 70.4137051
SN(data+ran) = 3562.46795
############################
13 columns: k_central k_mean P_0(k) sigma^{lin}_{P_0(k)} P^img_1(k) sigma^{lin}_{P_1(k)} P_2(k) sigma^{lin}_{P_2(k)} P^img_3(k) sigma^{lin}_{P_3(k)} P_4(k) sigma^{lin}_{P_4(k)} N_modes
### header ###
0.00050000 0 0 0 0 0 0 0 0 0 0 0 0
0.00150000 0.00179520 8984.74869734 0 -10095.70148034 0 10554.10680016 0 -51654.49902070 0 -10451.44420444 0 3
0.00250000 0.00253879 16118.42613150 0 -8524.43893765 0 -1107.25462651 0 -3831.85481161 0 -6283.94293828 0 6
0.00350000 0.00331552 21969.15328892 0 -7360.75974386 0 13481.55197594 0 4789.02407521 0 36583.07192406 0 7
0.00450000 0.00420575 35537.29084493 0 -21339.69162298 0 12698.62788801 0 -4454.20804502 0 19537.33858900 0 24
0.00550000 0.00557378 74568.23233990 0 -20239.65615224 0 20489.33707691 0 8957.64364618 0 -2982.40819618 0 45
0.00650000 0.00659388 101181.11865775 0 -13686.61143158 0 41189.82338810 0 -17195.76333635 0 31690.10086345 0 40
0.00750000 0.00754703 89246.14901249 0 18344.73848278 0 11403.16588423 0 3805.02656858 0 35642.25648422 0 57
0.00850000 0.00846663 100593.95327262 0 4504.24388087 0 26701.79708615 0 14660.64384587 0 15894.54372366 0 75
0.00950000 0.00948925 81442.92809655 0 30.47812419 0 37850.85311579 0 22540.92814255 0 -9882.55922758 0 112
0.01050000 0.01054430 93757.89992959 0 2852.60733233 0 32832.76478473 0 18625.31119369 0 14137.91939118 0 105
0.01150000 0.01145670 77371.63426073 0 7720.01239493 0 28890.68497955 0 13843.06338126 0 17108.40269353 0 144
0.01250000 0.01249090 81260.78835328 0 6133.35932074 0 30553.96961381 0 -108.33738363 0 6480.18882336 0 169
0.01350000 0.01339930 75418.80833246 0 -947.98144846 0 44025.44577416 0 -19835.40557312 0 -19302.38385635 0 180
0.01450000 0.01448870 75631.83986198 0 11254.13239217 0 40659.68047578 0 -27584.37209745 0 4620.76902727 0 267
0.01550000 0.01550050 75706.46733125 0 6200.86728516 0 65096.19062729 0 -29440.97952304 0 3202.73638774 0 238
0.01650000 0.01653350 76263.51599288 0 877.45627553 0 68113.17769387 0 2388.49976523 0 1881.85232618 0 315
0.01750000 0.01747870 79454.22783587 0 469.55847261 0 82092.87356340 0 17148.04161638 0 -12525.45672785 0 297
0.01850000 0.01844180 76128.21218360 0 2450.22797609 0 68285.13089831 0 25112.91847468 0 -21746.59956006 0 388
0.01950000 0.01947590 78023.01912981 0 -1976.80858382 0 69367.56137258 0 21805.61505135 0 -15443.78938030 0 399
0.02050000 0.02045430 76607.64384824 0 -3250.61312026 0 52407.52783162 0 26724.16318228 0 -24664.26787302 0 462
0.02150000 0.02154770 75119.08049962 0 2298.01672681 0 39743.88849003 0 13268.29899993 0 -28751.61657983 0 571
0.02250000 0.02255340 71952.61704799 0 6608.48385103 0 39398.21050920 0 -2688.32724899 0 -14610.15404470 0 510
0.02350000 0.02348930 65873.24638306 0 4027.86817788 0 23990.29546131 0 -7670.35301812 0 -12570.41036661 0 555
0.02450000 0.02439640 65207.13532197 0 2123.97085299 0 36117.92355842 0 -2512.66481575 0 -5042.07098662 0 592
0.02550000 0.02547300 68972.16865330 0 -4725.04818241 0 32367.61641910 0 3496.88376887 0 -12877.00304084 0 837
0.02650000 0.02652900 74678.18052535 0 -3499.37504196 0 44083.35403296 0 6327.65647666 0 -11118.05352015 0 723
0.02750000 0.02749970 73857.83197953 0 3997.54108020 0 36763.32937210 0 876.54834490 0 4390.07713967 0 826
0.02850000 0.02848090 73271.33093389 0 4560.35842306 0 41126.37896689 0 3862.69123623 0 17743.95413812 0 831
0.02950000 0.02946900 69058.75423339 0 4863.99478656 0 37078.55845969 0 17846.92675894 0 21393.83529134 0 996
0.03050000 0.03053250 66809.96506272 0 1845.32472660 0 35181.20487877 0 13001.56669505 0 28249.48664930 0 1041
0.03150000 0.03150510 63788.65978946 0 -1529.57523975 0 28496.62093925 0 21351.42828728 0 21166.52046281 0 1036
0.03250000 0.03246190 64052.18112014 0 -2852.21980096 0 16596.41839392 0 14110.79219538 0 17610.20045431 0 1059
0.03350000 0.03345080 62237.98069860 0 4034.62229602 0 12293.15935315 0 4265.24774966 0 12962.25994194 0 1302
0.03450000 0.03451200 61856.42838535 0 2213.82276889 0 9075.33138668 0 -3908.30921449 0 11217.59372027 0 1339
0.03550000 0.03553350 54935.22886447 0 4600.73919167 0 9398.24466769 0 -1794.54704498 0 10757.46111778 0 1365
0.03650000 0.03647120 51946.80839591 0 6917.49029207 0 10694.93569953 0 340.98774404 0 10576.37324537 0 1308
0.03750000 0.03744890 48617.80321594 0 1416.52680335 0 10090.61928325 0 2243.08692339 0 4780.77519322 0 1579
0.03850000 0.03847530 44633.09496020 0 1401.70096042 0 15112.39469847 0 773.44064172 0 2602.76032279 0 1662
0.03950000 0.03950240 46052.78844845 0 3169.99552325 0 15701.77454857 0 -4408.43505422 0 6249.57444204 0 1683
0.04050000 0.04050350 43952.36843035 0 972.29848823 0 22056.29248524 0 -4260.90739834 0 7105.80839259 0 1822
0.04150000 0.04152450 45497.06846580 0 -731.35584232 0 22249.50455333 0 -3354.79262448 0 12091.20014846 0 1887
0.04250000 0.04250150 43866.00429677 0 947.77328876 0 24543.46880925 0 4219.78478396 0 12117.77372802 0 1920
0.04350000 0.04349210 44400.13324602 0 1908.45912272 0 22622.30972997 0 3317.46781751 0 9027.89754716 0 2005
0.04450000 0.04448520 42598.55527478 0 1254.46118498 0 21702.97460028 0 7724.68491600 0 8625.37425070 0 2151
0.04550000 0.04548030 41778.53889871 0 1011.38822377 0 19993.85054127 0 1288.20963103 0 6405.49492013 0 2274
0.04650000 0.04648670 40427.27237784 0 1873.21591282 0 19631.67479645 0 1518.91259095 0 6828.21413706 0 2311
0.04750000 0.04749250 37639.92532800 0 2561.25017705 0 15854.01901483 0 331.86747009 0 4417.09361223 0 2568
0.04850000 0.04851840 36754.13934250 0 767.51251901 0 16842.22400489 0 -469.91167977 0 5695.55959741 0 2493
0.04950000 0.04949480 36739.41315049 0 -1428.50705880 0 13461.84323776 0 3542.66783200 0 1347.52407508 0 2644
0.05050000 0.05050630 36330.62291819 0 -1156.96936495 0 14868.69282922 0 3381.95303726 0 -2683.59936630 0 2829
0.05150000 0.05149060 38071.96744242 0 -41.86390652 0 11663.25479422 0 -512.95423527 0 -3231.00403300 0 2784
0.05250000 0.05249300 38130.42931746 0 -315.31102279 0 12765.61545316 0 2224.75115349 0 67.60584377 0 3055
0.05350000 0.05348950 37988.14994354 0 -1084.19208115 0 10557.08525554 0 1646.53220681 0 2740.63291144 0 3009
0.05450000 0.05448610 38446.21202129 0 -277.60311339 0 9601.90901041 0 2039.68831647 0 1161.86333252 0 3336
0.05550000 0.05550870 39368.09378569 0 658.62284781 0 10843.85846834 0 2539.49305878 0 2054.30378523 0 3349
0.05650000 0.05647670 37932.67759620 0 1927.97963137 0 8254.05276558 0 1526.18710835 0 3507.90073207 0 3324
0.05750000 0.05747970 37020.20730790 0 2328.95280235 0 9417.96447819 0 -708.66089814 0 4334.73766023 0 3639
0.05850000 0.05849280 33837.57826202 0 2201.10066767 0 9729.56184324 0 -1702.46959179 0 5445.90081740 0 3846
0.05950000 0.05951020 33451.70774209 0 1105.43322908 0 12142.35428912 0 2210.44570982 0 3977.20121951 0 3787
0.06050000 0.06049470 31509.62196890 0 452.40190530 0 9257.67043179 0 686.56607396 0 4558.71971898 0 3930
0.06150000 0.06148310 32982.24116978 0 -43.75384165 0 10541.57292846 0 1377.10932699 0 610.00980570 0 4083
0.06250000 0.06249100 31175.12703613 0 550.02216430 0 10379.86162449 0 -1032.99475842 0 1282.91705976 0 4303
0.06350000 0.06350600 31544.05689909 0 1664.04862467 0 10624.54893066 0 -1059.41332544 0 54.70636391 0 4470
0.06450000 0.06451750 28986.79275898 0 1521.63638285 0 9681.67403840 0 38.11127420 0 3035.69929553 0 4479
0.06550000 0.06550280 29605.29282334 0 394.85349706 0 10765.30032375 0 417.55176293 0 863.20840795 0 4636
0.06650000 0.06648880 29278.88068769 0 -1238.66097746 0 9795.77434565 0 1194.44918446 0 -275.35986038 0 4653
0.06750000 0.06749660 30238.85124947 0 59.34323210 0 11157.02810351 0 624.31192767 0 23.26782627 0 5220
0.06850000 0.06852730 29855.41664100 0 707.55588012 0 10979.45015807 0 585.46467604 0 2416.45738540 0 5029
0.06950000 0.06949320 29373.77051139 0 565.55220709 0 11153.37423632 0 155.43993920 0 1961.59520952 0 5040
0.07050000 0.07048030 29186.53749870 0 597.62873209 0 12029.97019221 0 474.06823051 0 3057.32354590 0 5475
0.07150000 0.07148790 28881.05205696 0 234.68567516 0 11628.15552454 0 199.51664984 0 3496.48516518 0 5509
0.07250000 0.07249820 29081.35041293 0 66.41269005 0 12473.52752445 0 919.71491043 0 2835.76632628 0 5916
0.07350000 0.07351270 28301.08368296 0 102.21748826 0 11822.80699485 0 1605.16600128 0 4368.89578229 0 5721
0.07450000 0.07449140 28607.67635718 0 -14.15109546 0 11095.13380777 0 1031.68600963 0 3387.14595760 0 6028
0.07550000 0.07549160 27362.37198483 0 705.76769966 0 9899.89848825 0 1906.42181495 0 2423.48831166 0 6183
0.07650000 0.07648840 27849.88644660 0 535.96695517 0 10236.51930739 0 1388.07092856 0 1589.98584396 0 6330
0.07750000 0.07749960 26867.88195843 0 560.74017472 0 7956.34009586 0 -277.55439516 0 939.66391806 0 6583
0.07850000 0.07848650 25788.55173511 0 1463.82777497 0 8749.47286727 0 -685.36140502 0 1439.40222642 0 6549
0.07950000 0.07947320 25374.55751014 0 1375.71421407 0 9052.94314590 0 -1436.67843452 0 979.11904032 0 6828
0.08050000 0.08048110 23823.43552630 0 821.70933453 0 9387.29413845 0 -169.29473924 0 599.63282288 0 7147
0.08150000 0.08149960 23614.61148022 0 149.01577634 0 8941.26767778 0 350.30178368 0 -271.18005776 0 7386
0.08250000 0.08250610 23741.16815289 0 46.51915477 0 9146.28284412 0 804.20841793 0 -1407.46964165 0 7227
0.08350000 0.08350160 23569.43639496 0 -430.52631316 0 8569.85761406 0 1390.58434630 0 -1710.77383540 0 7798
0.08450000 0.08449610 23502.44882980 0 255.14290249 0 8171.70788591 0 577.45163457 0 -2763.79621496 0 7371
0.08550000 0.08548940 23630.11273496 0 390.55189886 0 6915.33118873 0 -194.79208884 0 -1656.39764822 0 8256
0.08650000 0.08650700 23131.19377863 0 247.96582155 0 7636.54921045 0 -277.74373191 0 -2630.14218207 0 8037
0.08750000 0.08749060 22414.92508612 0 981.78414890 0 7054.35529916 0 561.57392078 0 -352.96799950 0 8155
0.08850000 0.08849210 22200.45415438 0 933.54978029 0 7861.21775334 0 804.37228833 0 -1476.37271899 0 8718
0.08950000 0.08949900 21123.55984252 0 439.23358939 0 7277.40728263 0 919.57318468 0 497.52605787 0 8571
0.09050000 0.09049190 20946.73481516 0 319.20294496 0 7073.59899969 0 1585.88908377 0 640.28043452 0 8932
0.09150000 0.09150830 20333.21729696 0 43.05628518 0 7279.03491438 0 1056.49576785 0 617.42383440 0 9285
0.09250000 0.09250820 20321.36990941 0 530.21488243 0 6986.64803289 0 374.44609518 0 1699.19218364 0 9204
0.09350000 0.09350330 19628.02092926 0 795.07928611 0 6668.63979177 0 238.37608102 0 540.63394008 0 9349
0.09450000 0.09448040 19504.01089129 0 371.21186910 0 6456.69335010 0 -237.76821039 0 3031.70218627 0 9564
0.09550000 0.09549270 18836.57115123 0 185.39279230 0 5959.34666389 0 346.59144764 0 2509.99638546 0 10155
0.09650000 0.09649430 18893.59362404 0 197.31657890 0 5821.87267894 0 725.88722109 0 1540.89115571 0 9913
0.09750000 0.09749140 18722.19403585 0 -132.21352343 0 5551.25398805 0 564.98087513 0 458.75741975 0 10476
0.09850000 0.09850240 18647.89873632 0 288.58796684 0 5917.70365025 0 627.45314622 0 617.17470709 0 10575
0.09950000 0.09950330 18440.18192272 0 341.33430781 0 5392.65400735 0 -671.35934305 0 798.19614555 0 10882
0.10050000 0.10051200 17935.94825048 0 478.56027268 0 5611.03346975 0 466.28992232 0 914.70357622 0 10875
0.10150000 0.10150300 17839.17613156 0 236.17822454 0 5017.46828087 0 451.46961555 0 893.37052799 0 11118
0.10250000 0.10250800 17618.72614442 0 227.82083377 0 4439.18290024 0 1385.25855806 0 828.28075931 0 11575
0.10350000 0.10349800 17322.76290202 0 -30.48233167 0 4518.93685591 0 771.61924429 0 967.08010154 0 11364
0.10450000 0.10450100 17429.50011327 0 5.91246644 0 4220.96952271 0 474.48787162 0 98.55221658 0 12093
0.10550000 0.10551000 16905.55770285 0 410.56734044 0 4493.93554647 0 -368.94314975 0 -132.16591243 0 12067
0.10650000 0.10649700 16633.28923556 0 1002.66655351 0 4506.09295912 0 -1113.41083911 0 152.99627711 0 12054
0.10750000 0.10749900 15970.38914867 0 938.57661576 0 4674.04905429 0 -530.73417446 0 1305.81462749 0 12807
0.10850000 0.10850100 15465.60186019 0 413.23023456 0 5334.65716995 0 186.96174073 0 951.24556982 0 12736
0.10950000 0.10950300 15284.12645641 0 -143.05332942 0 5064.35957648 0 662.94216173 0 709.45035489 0 12933
0.11050000 0.11050200 15321.10802131 0 68.99364896 0 4947.55762196 0 881.77448221 0 854.54763548 0 13428
0.11150000 0.11150900 15222.56433042 0 53.73897489 0 4539.39851217 0 301.37318031 0 784.65358506 0 13453
0.11250000 0.11250000 14975.98365671 0 197.56902790 0 4609.94029359 0 177.36314234 0 1591.67990965 0 13668
0.11350000 0.11349100 15050.38967949 0 368.48143380 0 5131.60180510 0 -481.89082799 0 1024.33841488 0 13791
0.11450000 0.11448600 14699.28625949 0 205.62857314 0 5014.88842919 0 -303.86223893 0 1105.03794709 0 14205
0.11550000 0.11549300 14636.28473127 0 -79.37317842 0 5192.89819530 0 -363.19439870 0 785.21052300 0 14776
0.11650000 0.11649800 14831.26837133 0 184.33649251 0 5781.19295756 0 -356.85881444 0 237.29652935 0 14553
0.11750000 0.11747300 14570.62584510 0 376.53765734 0 6014.81901123 0 49.93928518 0 346.18398608 0 14568
0.11850000 0.11849100 14251.96433682 0 466.60437634 0 5434.03128520 0 69.82661996 0 121.99044592 0 16015
0.11950000 0.11950300 13906.83997222 0 264.14027364 0 5199.74089203 0 613.13884469 0 788.04393092 0 15270
0.12050000 0.12050700 14001.84051916 0 -156.44309183 0 5441.69333397 0 551.80813029 0 29.57196513 0 15999
0.12150000 0.12150000 13975.37766285 0 -9.58769215 0 4577.03334423 0 682.73062064 0 167.60620971 0 15670
0.12250000 0.12250700 14026.42108026 0 129.15756178 0 4948.25517843 0 -37.08110509 0 383.63501755 0 16887
0.12350000 0.12352200 13953.23301321 0 50.01645929 0 5131.84539625 0 -316.60537756 0 197.52916753 0 16407
0.12450000 0.12449800 13737.32267925 0 228.29805097 0 5359.74705799 0 -149.59596616 0 487.93742457 0 16306
0.12550000 0.12549900 13650.95854566 0 365.74214064 0 5303.83181765 0 54.49654336 0 241.44754393 0 17523
0.12650000 0.12650100 13543.66771817 0 82.01614235 0 4852.25812225 0 389.88645214 0 463.83740237 0 17154
0.12750000 0.12750600 13173.85206923 0 207.25841935 0 4601.14886769 0 631.44804101 0 98.24185931 0 18007
0.12850000 0.12850300 13112.51138973 0 217.67415531 0 3788.09698393 0 638.42471288 0 510.11972011 0 17496
0.12950000 0.12949900 12856.07634693 0 1.54812138 0 3607.57380009 0 599.00834376 0 -17.61130769 0 18405
0.13050000 0.13049000 12792.96409546 0 97.10960338 0 3485.85573336 0 -15.80961899 0 -679.97139730 0 18100
0.13150000 0.13148800 12445.40381941 0 387.88014688 0 3507.28068188 0 -217.16925730 0 -721.90561308 0 19059
0.13250000 0.13249300 12385.94543513 0 258.61739802 0 3831.44513559 0 -297.36499872 0 -328.13498940 0 18957
0.13350000 0.13349100 12141.13633339 0 55.28533578 0 3811.20492583 0 22.24585069 0 -168.69461924 0 19468
0.13450000 0.13450700 12321.17233494 0 -33.99148358 0 3795.96940688 0 352.32912636 0 -358.58941881 0 19953
0.13550000 0.13551000 12045.58217021 0 236.95771621 0 4097.83419841 0 282.23909579 0 -524.65436090 0 19956
0.13650000 0.13649900 12012.36519575 0 348.38184256 0 3589.45947668 0 339.26599754 0 -445.28018598 0 19723
0.13750000 0.13749600 11735.66779853 0 -93.02601926 0 3395.20661006 0 513.13582140 0 485.06637075 0 20946
0.13850000 0.13851100 11692.92862473 0 57.89076453 0 3222.71086172 0 646.24066697 0 332.32254264 0 20955
0.13950000 0.13949800 11724.37402722 0 116.01360498 0 2819.56751507 0 504.61898914 0 213.49435269 0 20506
0.14050000 0.14048300 11614.09367202 0 366.39983674 0 2727.12467516 0 324.27406973 0 65.38429252 0 21447
0.14150000 0.14148400 11280.81669498 0 275.72856880 0 2820.92941102 0 -437.41662089 0 839.06852538 0 21771
0.14250000 0.14249400 11044.13467966 0 208.43983641 0 3050.45870451 0 -238.03726788 0 683.80685061 0 22470
0.14350000 0.14350900 11001.10762541 0 47.25313918 0 3103.15189832 0 -146.66622901 0 400.30440256 0 22519
0.14450000 0.14449900 10801.60647683 0 211.34964337 0 3276.77702380 0 -2.46833123 0 258.90638570 0 22218
0.14550000 0.14550500 10795.97066350 0 227.14985089 0 3248.66439109 0 -65.85010522 0 110.08437504 0 23559
0.14650000 0.14650700 10543.24484951 0 105.18952169 0 3065.59457254 0 -36.22078546 0 368.58108473 0 23044
0.14750000 0.14750500 10648.23263344 0 -104.90241631 0 2849.58458765 0 338.32374269 0 81.39000238 0 23649
0.14850000 0.14849900 10674.59583884 0 -151.52255068 0 3069.43666925 0 316.24331254 0 165.71727110 0 23640
0.14950000 0.14949500 10779.28467000 0 104.83022475 0 2712.22132595 0 310.04281064 0 -378.42770319 0 24457
0.15050000 0.15050000 10508.56632818 0 291.93955956 0 2580.96998755 0 11.76711320 0 18.02419468 0 24591
0.15150000 0.15149900 10314.62348666 0 279.40568787 0 2486.08016386 0 21.45329368 0 -98.99510957 0 25020
0.15250000 0.15250500 9977.46012360 0 343.64731647 0 2603.86755528 0 -135.42228316 0 -118.03430426 0 25297
0.15350000 0.15350100 9869.69318614 0 245.87315216 0 2763.47511754 0 -81.62573218 0 -136.99455328 0 25452
0.15450000 0.15450400 9591.39030183 0 317.71371728 0 2724.86592089 0 5.04081981 0 -30.48587482 0 26061
0.15550000 0.15549900 9480.45667947 0 147.89968600 0 2753.54324217 0 128.94165144 0 86.48670422 0 26128
0.15650000 0.15649500 9483.25797765 0 -196.10083763 0 2865.32943354 0 -153.68165402 0 -192.12919472 0 26331
0.15750000 0.15749700 9605.90611966 0 108.67608605 0 3327.94223679 0 -85.49019499 0 -244.16469244 0 27345
0.15850000 0.15849900 9532.10907475 0 247.97910834 0 3436.51745396 0 -439.04314541 0 -204.92658774 0 26980
0.15950000 0.15949700 9285.53947336 0 269.20696948 0 3646.17192440 0 -171.08513417 0 160.53210138 0 27777
0.16050000 0.16050000 9164.98400074 0 196.28242376 0 3557.99192955 0 365.19073887 0 357.16662507 0 28224
0.16150000 0.16150500 9162.60345090 0 -105.87268413 0 3330.23420803 0 496.92040170 0 143.07879577 0 28075
0.16250000 0.16249700 9017.63350205 0 94.87930499 0 2915.42063102 0 684.04601283 0 -18.52842835 0 28590
0.16350000 0.16349900 9114.78208001 0 -50.43377521 0 2548.77166698 0 435.87535328 0 -228.88599142 0 29163
0.16450000 0.16449100 8937.27056852 0 -20.60858602 0 2178.30275087 0 281.29241202 0 -209.29683435 0 28996
0.16550000 0.16550500 9000.59319415 0 79.04167301 0 1967.06493798 0 44.50310587 0 -48.95761286 0 30777
0.16650000 0.16650700 9004.00347020 0 -48.47895626 0 2058.35625611 0 12.19893387 0 -469.47210847 0 29211
0.16750000 0.16749900 8885.78425811 0 160.69929349 0 2293.84246035 0 -309.67078053 0 -236.82706278 0 30922
0.16850000 0.16850800 8907.48601475 0 248.79292421 0 2401.80869966 0 -244.46032351 0 -175.24722107 0 30867
0.16950000 0.16949900 8656.69785761 0 205.24325623 0 2546.66792526 0 15.71461845 0 279.97812706 0 30852
0.17050000 0.17049200 8574.68514768 0 108.55296180 0 2462.40753339 0 257.13592096 0 342.68623867 0 31257
0.17150000 0.17149500 8467.29466926 0 65.76086229 0 2404.20032182 0 555.46199748 0 268.68546298 0 32608
0.17250000 0.17250900 8433.28048742 0 95.44510079 0 2371.76948243 0 188.68127277 0 207.75667397 0 32361
0.17350000 0.17350400 8338.72283347 0 63.98076463 0 1929.04257455 0 45.42388040 0 -29.60817163 0 32508
0.17450000 0.17449800 8275.17876134 0 220.89841629 0 2202.87223964 0 -149.56053472 0 357.65048566 0 32791
0.17550000 0.17549800 8146.09759860 0 169.12311821 0 2147.14522883 0 -39.71111441 0 209.52492424 0 33633
0.17650000 0.17650100 7931.28342479 0 75.94363653 0 2026.43474366 0 156.37222895 0 330.81892093 0 33984
0.17750000 0.17750300 8042.65994014 0 57.96849225 0 2145.06363177 0 173.74249212 0 47.80930206 0 34069
0.17850000 0.17849800 7856.17984555 0 97.13750563 0 2270.31377011 0 101.20370620 0 192.04061612 0 34536
