### header ###
fiducial parameters:
Omega_m = 0.31
Omega_nu = 0
Omega_de = 0.69
Omega_k = 0
H_0 = 100
w_de = -1
zeff = 0
beta = 0
fgrowth = 0
b_1 = 2
gamma = 0.55
Lx = 3500 Ly = 3500 Lz = 3500
nx = 700 ny = 700 nz = 700
xoffset = -685.467585 yoffset = -31.7331281 zoffset = 572.489161
bins = 400 dk = 0.001
kx_ny = 0.628318531 ky_ny = 0.628318531 kz_ny = 0.628318531
############################
A(data) = 8.04451683 (not used)
A(ran) = 8.04588267 (used)
Ngal = 478217
weighted Ngal = 0
Nran = 23820508
weighted Nran = 0
SN(data) = 3482.71161
SN(ran) = 70.0825561
SN(data+ran) = 3552.79416
############################
13 columns: k_central k_mean P_0(k) sigma^{lin}_{P_0(k)} P^img_1(k) sigma^{lin}_{P_1(k)} P_2(k) sigma^{lin}_{P_2(k)} P^img_3(k) sigma^{lin}_{P_3(k)} P_4(k) sigma^{lin}_{P_4(k)} N_modes
### header ###
0.00050000 0 0 0 0 0 0 0 0 0 0 0 0
0.00150000 0.00179520 29103.05216957 0 -18847.31130630 0 -34112.39336402 0 66749.84233895 0 -22227.58135018 0 3
0.00250000 0.00253879 53570.01121433 0 -17183.03016281 0 21245.57686202 0 -12441.19633598 0 55769.74998605 0 6
0.00350000 0.00331552 57573.65314550 0 -8066.27720898 0 34846.59922275 0 -97151.23531676 0 20436.96498051 0 7
0.00450000 0.00420575 66268.52837909 0 1767.76309125 0 44436.78264117 0 3115.92936116 0 38676.40565427 0 24
0.00550000 0.00557378 57047.05337713 0 -554.03366758 0 30502.37258015 0 30021.39079003 0 6999.32584481 0 45
0.00650000 0.00659388 77622.31169462 0 7260.15660056 0 46558.46152292 0 62744.76100555 0 -24169.66712337 0 40
0.00750000 0.00754703 68364.07657426 0 -14415.72402088 0 8418.00067917 0 21022.46951692 0 -22841.87393112 0 57
0.00850000 0.00846663 66451.99680133 0 -12365.79380396 0 -8247.97405926 0 28537.03492484 0 -29768.94178416 0 75
0.00950000 0.00948925 87051.94640318 0 -22315.16343950 0 -27008.38976038 0 -17993.96723253 0 -49106.53563343 0 112
0.01050000 0.01054430 106441.91234884 0 -11570.46871224 0 -22751.85593035 0 -35607.37866104 0 -32559.05691521 0 105
0.01150000 0.01145670 89809.50889926 0 9343.65810634 0 -6956.59774333 0 -24209.30604623 0 6478.22902187 0 144
0.01250000 0.01249090 107257.27834848 0 7286.99591592 0 -16986.27495078 0 -19876.59462144 0 11891.45540873 0 169
0.01350000 0.01339930 92261.80740009 0 4431.29940497 0 -7730.61968211 0 -1562.46004446 0 25692.44395568 0 180
0.01450000 0.01448870 98971.96840994 0 6336.92401253 0 8173.06978186 0 5298.58353569 0 -7413.98440927 0 267
0.01550000 0.01550050 88920.62266282 0 5935.54116553 0 11027.40439686 0 -4930.48409709 0 4895.30732114 0 238
0.01650000 0.01653350 89170.74648047 0 4823.02718473 0 6341.72940150 0 1987.79233004 0 -4113.68976755 0 315
0.01750000 0.01747870 81436.28470165 0 -1576.88728370 0 17740.74316392 0 -3454.64284969 0 -5650.45094610 0 297
0.01850000 0.01844180 83654.29280933 0 5327.10584442 0 24234.55094681 0 -25879.78769161 0 -6333.27014534 0 388
0.01950000 0.01947590 74243.37032972 0 10082.45897986 0 22479.36601656 0 -3517.27899119 0 -10776.20656370 0 399
0.02050000 0.02045430 70255.56182303 0 8263.44209703 0 28827.46200483 0 1982.40010786 0 -1129.05603408 0 462
0.02150000 0.02154770 64210.07247205 0 2456.14059755 0 21614.39600173 0 17385.76443024 0 -5116.70952822 0 571
0.02250000 0.02255340 61110.04296933 0 1671.11276790 0 24571.81396079 0 15439.13900387 0 -11117.72135040 0 510
0.02350000 0.02348930 64004.45940017 0 1239.43604020 0 12284.08004680 0 7031.80097350 0 1879.83716306 0 555
0.02450000 0.02439640 59265.39365454 0 1774.00788244 0 16877.76616756 0 -481.52211957 0 3086.13373508 0 592
0.02550000 0.02547300 62477.80725418 0 -1299.70270419 0 12122.31338120 0 2789.10754949 0 8171.37571616 0 837
0.02650000 0.02652900 64634.03178936 0 -5552.13977404 0 17637.65981986 0 6863.15839419 0 2256.66159361 0 723
0.02750000 0.02749970 66532.38187952 0 -678.29283286 0 11406.59830492 0 -3100.70491454 0 -5916.98394914 0 826
0.02850000 0.02848090 69477.39883478 0 2763.15402012 0 21258.75292855 0 -6868.62812265 0 -3012.36990714 0 831
0.02950000 0.02946900 66074.09835527 0 3020.12053451 0 21995.94831498 0 -7619.17673281 0 -4348.44519835 0 996
0.03050000 0.03053250 60511.25164314 0 5740.76789965 0 27871.69892649 0 -6356.03484517 0 -550.93230940 0 1041
0.03150000 0.03150510 62103.34122881 0 3060.14698873 0 29007.94089938 0 1039.59275678 0 -3803.80861285 0 1036
0.03250000 0.03246190 57366.93284114 0 309.10941366 0 31129.95195087 0 5995.80782952 0 -6237.31737846 0 1059
0.03350000 0.03345080 59658.79335535 0 -511.23027429 0 24157.48756607 0 10932.58100711 0 -2057.88014614 0 1302
0.03450000 0.03451200 58272.20611831 0 -1168.27420859 0 22877.41609379 0 7987.51976255 0 -6710.62604749 0 1339
0.03550000 0.03553350 58434.74784665 0 2272.51716275 0 19606.31917262 0 6143.09189426 0 1609.32919542 0 1365
0.03650000 0.03647120 53244.37414141 0 2191.52310671 0 15844.27536899 0 6877.08737881 0 -8870.61517311 0 1308
0.03750000 0.03744890 53317.00859222 0 2907.55928040 0 18239.44067376 0 -1547.09165761 0 1877.32374533 0 1579
0.03850000 0.03847530 51635.89751501 0 1833.38876045 0 17878.81505441 0 223.04976901 0 2137.34622137 0 1662
0.03950000 0.03950240 49622.06307699 0 1588.92290078 0 21397.93205152 0 -145.44605882 0 4598.85689645 0 1683
0.04050000 0.04050350 49487.97722344 0 3002.98057569 0 24440.93908143 0 254.56824884 0 10042.59861051 0 1822
0.04150000 0.04152450 47061.92013242 0 3773.78046794 0 29620.24046185 0 2764.50484375 0 9631.12887560 0 1887
0.04250000 0.04250150 46299.81201516 0 3061.88534372 0 31245.65774523 0 587.56841776 0 17365.61279907 0 1920
0.04350000 0.04349210 43087.17696902 0 2044.58228404 0 30232.09713133 0 -521.60614988 0 14402.88012410 0 2005
0.04450000 0.04448520 42117.79493115 0 1335.10092663 0 31392.36604907 0 4934.22654288 0 15421.53400741 0 2151
0.04550000 0.04548030 41896.01626503 0 -589.47064316 0 30962.09550662 0 6329.61627815 0 12744.02441977 0 2274
0.04650000 0.04648670 40910.13646318 0 613.60831126 0 24121.17034067 0 7684.78025736 0 9730.08224251 0 2311
0.04750000 0.04749250 38373.57757048 0 794.49577459 0 18602.05931157 0 6304.72569196 0 6178.11365766 0 2568
0.04850000 0.04851840 38015.60930909 0 719.91813078 0 13139.63858554 0 3700.99100458 0 5161.22027399 0 2493
0.04950000 0.04949480 36190.22583949 0 626.98367965 0 11447.23373701 0 3936.97546344 0 2639.15505447 0 2644
0.05050000 0.05050630 35018.33098068 0 228.32794625 0 8167.67755967 0 36.53490731 0 2970.15113260 0 2829
0.05150000 0.05149060 35622.43702279 0 447.71056127 0 9227.34333412 0 -248.32235041 0 2706.19798125 0 2784
0.05250000 0.05249300 35228.92659874 0 -203.94557976 0 9635.42493763 0 287.82065473 0 4307.41116257 0 3055
0.05350000 0.05348950 37453.02448506 0 -571.47257917 0 11655.17199710 0 1321.58161803 0 4118.22942072 0 3009
0.05450000 0.05448610 36995.29457705 0 -313.59481244 0 13600.80091423 0 -3019.98766661 0 4057.60844234 0 3336
0.05550000 0.05550870 37313.84536209 0 1646.64293005 0 19581.29571853 0 -2773.08589548 0 3778.67443551 0 3349
0.05650000 0.05647670 36834.85659043 0 1932.75180337 0 17032.55726852 0 -3105.18920609 0 5549.53777770 0 3324
0.05750000 0.05747970 35787.52538584 0 353.07207935 0 18738.24890684 0 793.56237761 0 6710.78106003 0 3639
0.05850000 0.05849280 35797.60120142 0 -329.19350365 0 16154.96480340 0 2245.07994185 0 2792.32959601 0 3846
0.05950000 0.05951020 35692.08194590 0 255.47175054 0 16327.58234732 0 2933.57924373 0 -1172.47061970 0 3787
0.06050000 0.06049470 34750.71288982 0 1334.74661224 0 12071.60213353 0 2776.10864016 0 660.89267440 0 3930
0.06150000 0.06148310 33464.55163888 0 257.03959173 0 10634.15970860 0 2521.91020697 0 -136.96355077 0 4083
0.06250000 0.06249100 33033.28458720 0 177.41961120 0 9267.40300531 0 3028.66836927 0 -2105.50221519 0 4303
0.06350000 0.06350600 33164.27018980 0 677.10034347 0 9975.41174351 0 513.71158229 0 -2198.55403296 0 4470
0.06450000 0.06451750 31485.81647054 0 2027.42018057 0 8236.24846727 0 -824.97013419 0 -834.67059797 0 4479
0.06550000 0.06550280 30791.91387416 0 1291.99636611 0 11108.19915106 0 -1282.42987747 0 579.69710204 0 4636
0.06650000 0.06648880 29968.46507740 0 -456.80758335 0 9825.19351270 0 -164.51038769 0 3183.49268721 0 4653
0.06750000 0.06749660 31419.38252163 0 -923.85485268 0 10376.72815656 0 2988.55333645 0 2236.53210709 0 5220
0.06850000 0.06852730 31565.64793249 0 -1266.30857253 0 9908.65669718 0 2385.35522498 0 1527.29434083 0 5029
0.06950000 0.06949320 32225.00487544 0 463.06233964 0 9301.19574066 0 1064.29400622 0 -4.20878997 0 5040
0.07050000 0.07048030 30965.08503432 0 1154.30093467 0 8346.36273759 0 103.55314280 0 500.43254313 0 5475
0.07150000 0.07148790 30652.84547444 0 1385.30284736 0 9428.52747607 0 -1232.12830582 0 2014.27733101 0 5509
0.07250000 0.07249820 28811.40713385 0 1907.28545629 0 9334.29091954 0 -1675.68563805 0 1815.07513520 0 5916
0.07350000 0.07351270 28528.61995798 0 885.85795560 0 11158.68895223 0 -515.19084488 0 529.63026368 0 5721
0.07450000 0.07449140 27288.29813179 0 168.76991105 0 10327.47845577 0 -1467.64772704 0 2107.61702923 0 6028
0.07550000 0.07549160 27906.46602642 0 783.94163458 0 11819.48529741 0 1434.86257325 0 568.97909162 0 6183
0.07650000 0.07648840 26934.20518409 0 156.68446851 0 11736.66430777 0 1264.04981827 0 2000.60300986 0 6330
0.07750000 0.07749960 26709.76916002 0 629.77279827 0 10684.95953487 0 2212.68231943 0 726.62020899 0 6583
0.07850000 0.07848650 25926.95579534 0 498.17932503 0 9434.00827686 0 1713.16545757 0 936.34111338 0 6549
0.07950000 0.07947320 25738.61555018 0 270.22673059 0 8940.55904899 0 858.77615633 0 261.34783332 0 6828
0.08050000 0.08048110 24964.54932211 0 483.27376136 0 8868.93217974 0 241.70220740 0 1003.74610518 0 7147
0.08150000 0.08149960 24427.32012190 0 158.79042469 0 7707.89927158 0 310.65732467 0 148.38243936 0 7386
0.08250000 0.08250610 24634.59404251 0 433.24567613 0 7996.43298403 0 1093.71760219 0 885.87345686 0 7227
0.08350000 0.08350160 24186.82922684 0 15.76289378 0 6180.25061635 0 1384.22883185 0 764.96920600 0 7798
0.08450000 0.08449610 23640.74216679 0 355.84126779 0 6846.45025604 0 1304.93991383 0 -48.53586801 0 7371
0.08550000 0.08548940 23613.17207799 0 982.11299695 0 6898.64519523 0 -221.29037659 0 -546.19224714 0 8256
0.08650000 0.08650700 22039.13038177 0 1124.49423626 0 6672.93585380 0 -862.66143511 0 -86.85009792 0 8037
0.08750000 0.08749060 21524.15655446 0 1029.35528525 0 6957.33958910 0 -1141.66741205 0 376.50554760 0 8155
0.08850000 0.08849210 20620.21195626 0 531.93220001 0 6729.16111923 0 298.94612671 0 1088.70073182 0 8718
0.08950000 0.08949900 20648.77855429 0 68.50646667 0 6487.72907656 0 824.24711138 0 -220.22189725 0 8571
0.09050000 0.09049190 20645.67830334 0 -314.93013482 0 6094.42902668 0 1456.16572620 0 -1484.12334637 0 8932
0.09150000 0.09150830 20486.01537946 0 244.14254779 0 6715.49787041 0 468.09471127 0 -1316.21154049 0 9285
0.09250000 0.09250820 20145.20922154 0 825.00778010 0 6295.07062472 0 -620.88836483 0 -1218.19932120 0 9204
0.09350000 0.09350330 19683.27183011 0 878.17929834 0 7372.40782957 0 -1205.96440227 0 -344.74569109 0 9349
0.09450000 0.09448040 18948.84452489 0 518.15822793 0 7093.29666554 0 -530.15841357 0 835.03044852 0 9564
0.09550000 0.09549270 19158.22218721 0 -210.86024661 0 8505.52740686 0 355.13042454 0 857.92469455 0 10155
0.09650000 0.09649430 19075.29047432 0 -20.55732115 0 7711.47563249 0 1508.95857093 0 928.10330372 0 9913
0.09750000 0.09749140 18983.50090157 0 428.10036679 0 6879.11361425 0 1031.06374497 0 127.87206487 0 10476
0.09850000 0.09850240 18286.71950073 0 652.70469020 0 6480.56528240 0 -135.40346021 0 632.24303393 0 10575
0.09950000 0.09950330 17907.04948270 0 598.75700199 0 6215.99208086 0 341.39077667 0 51.26574970 0 10882
0.10050000 0.10051200 17626.58749504 0 417.01475518 0 5744.42176684 0 226.48108247 0 180.43681971 0 10875
0.10150000 0.10150300 17327.74544819 0 -195.31691703 0 5012.31964983 0 138.56128725 0 -1284.86578893 0 11118
0.10250000 0.10250800 17077.73235378 0 78.12078776 0 5216.75905528 0 49.31170581 0 -1432.40451714 0 11575
0.10350000 0.10349800 17140.51243551 0 470.35678723 0 5259.43179513 0 -30.27970813 0 -1392.97596846 0 11364
0.10450000 0.10450100 16417.48962485 0 436.49208177 0 5029.28245145 0 506.70833684 0 -1077.44460641 0 12093
0.10550000 0.10551000 16518.13705745 0 500.95958579 0 5193.64004106 0 190.05756274 0 -561.42001546 0 12067
0.10650000 0.10649700 15833.09232092 0 -3.74294404 0 5248.79129098 0 847.40487874 0 458.50497074 0 12054
0.10750000 0.10749900 16113.77575507 0 184.34977930 0 5123.05397034 0 531.01762598 0 368.80585292 0 12807
0.10850000 0.10850100 15820.91276362 0 174.79547021 0 4961.81877633 0 747.06636400 0 1073.60693862 0 12736
0.10950000 0.10950300 15936.61855797 0 117.62684271 0 5032.86988469 0 -155.41225839 0 553.10027060 0 12933
0.11050000 0.11050200 15835.74967888 0 20.92658318 0 4812.34239128 0 510.82724167 0 1057.33283560 0 13428
0.11150000 0.11150900 15838.96065307 0 -197.49262886 0 5203.70478432 0 -461.52550095 0 436.38910915 0 13453
0.11250000 0.11250000 16127.83760759 0 -244.75152565 0 5155.46266508 0 114.38597324 0 1118.18301111 0 13668
0.11350000 0.11349100 15973.93229261 0 217.60218520 0 5523.76140553 0 125.96983946 0 678.17989514 0 13791
0.11450000 0.11448600 16101.81764427 0 355.47920277 0 4943.47193411 0 604.31863074 0 1318.80246450 0 14205
0.11550000 0.11549300 15775.95912486 0 -96.69760217 0 5133.74983611 0 349.92864634 0 643.28546348 0 14776
0.11650000 0.11649800 15888.34322176 0 470.86279247 0 5264.18182248 0 317.54873964 0 1416.34964615 0 14553
0.11750000 0.11747300 15257.10998385 0 702.80142384 0 5378.72502273 0 -142.13211200 0 1001.67447321 0 14568
0.11850000 0.11849100 14694.85732956 0 899.97295528 0 5151.77558092 0 -239.14782206 0 1441.64990836 0 16015
0.11950000 0.11950300 14018.89189938 0 346.50508350 0 4917.29695823 0 -192.97733480 0 940.47884117 0 15270
0.12050000 0.12050700 13762.67830308 0 161.94603726 0 5336.38445262 0 656.30319577 0 1253.54218202 0 15999
0.12150000 0.12150000 13872.40504203 0 -128.05032930 0 4892.02991300 0 539.06166996 0 831.25700022 0 15670
0.12250000 0.12250700 13684.28624336 0 -17.23019827 0 4454.00874317 0 687.43968039 0 968.54497012 0 16887
0.12350000 0.12352200 13762.45685658 0 122.42448105 0 4277.43837929 0 400.98756500 0 1495.61641953 0 16407
0.12450000 0.12449800 13808.18555809 0 92.33632415 0 4745.22195823 0 -183.52156940 0 1221.95283931 0 16306
0.12550000 0.12549900 13875.50529298 0 65.21588246 0 4819.55047474 0 -179.93856509 0 1706.26739920 0 17523
0.12650000 0.12650100 13518.75498733 0 208.18517294 0 4955.21967074 0 -139.16694341 0 1659.08822315 0 17154
0.12750000 0.12750600 13652.95156413 0 134.30619282 0 4967.48780664 0 -323.24877245 0 1182.57965226 0 18007
0.12850000 0.12850300 13696.35507742 0 6.55579066 0 5229.78010927 0 154.05368413 0 865.60999521 0 17496
0.12950000 0.12949900 13422.64720790 0 18.21187058 0 5099.39241220 0 -4.77705489 0 374.97756677 0 18405
0.13050000 0.13049000 13384.11551753 0 466.76381782 0 4914.79461283 0 56.54448055 0 218.97958240 0 18100
0.13150000 0.13148800 13161.89395842 0 180.22755277 0 4850.19866983 0 20.13347256 0 -179.64071956 0 19059
0.13250000 0.13249300 12840.46436894 0 298.59291955 0 4474.16037434 0 207.85189596 0 102.23564687 0 18957
0.13350000 0.13349100 12568.30662489 0 273.57057269 0 4624.30109888 0 183.43077634 0 77.01588046 0 19468
0.13450000 0.13450700 12588.23680957 0 168.88506323 0 4260.12126327 0 911.16707567 0 -14.48769413 0 19953
0.13550000 0.13551000 12273.67206147 0 52.98384234 0 3972.61727703 0 508.47437265 0 309.08616178 0 19956
0.13650000 0.13649900 12131.83558054 0 180.05150281 0 3729.46902402 0 706.64905672 0 135.13661718 0 19723
0.13750000 0.13749600 12195.61217150 0 79.21451200 0 3493.59528840 0 229.15504891 0 959.94288096 0 20946
0.13850000 0.13851100 11859.67783650 0 150.21048019 0 3414.88213127 0 201.77318964 0 629.76947657 0 20955
0.13950000 0.13949800 12027.42355750 0 164.67204363 0 3382.81667859 0 -605.34614249 0 787.57335712 0 20506
0.14050000 0.14048300 11767.11320102 0 197.70632473 0 3753.90564489 0 -339.73103518 0 648.55146116 0 21447
0.14150000 0.14148400 11560.83578964 0 246.34151150 0 3999.13549497 0 -459.72071201 0 669.08840923 0 21771
0.14250000 0.14249400 11570.35798899 0 148.22964128 0 4241.39796201 0 -170.21263497 0 643.97194761 0 22470
0.14350000 0.14350900 11496.94847544 0 135.49757497 0 4577.35444165 0 -161.83309955 0 472.72958643 0 22519
0.14450000 0.14449900 11267.08701221 0 259.69141353 0 4534.88100365 0 450.80859776 0 814.32409388 0 22218
0.14550000 0.14550500 11177.62262767 0 285.56079324 0 4550.09437795 0 412.53378533 0 835.21535635 0 23559
0.14650000 0.14650700 10898.57789759 0 100.09935252 0 4229.47306818 0 559.57315168 0 1030.27096652 0 23044
0.14750000 0.14750500 10790.39021179 0 102.09536052 0 4228.58728219 0 375.05728751 0 779.27243520 0 23649
0.14850000 0.14849900 10689.90886406 0 122.39015685 0 3624.11585337 0 761.98300000 0 1203.37347826 0 23640
0.14950000 0.14949500 10567.64825341 0 -49.83443027 0 3284.74909767 0 307.68108376 0 915.26272862 0 24457
0.15050000 0.15050000 10595.76088613 0 60.25603456 0 3238.27855041 0 562.11646470 0 548.43550015 0 24591
0.15150000 0.15149900 10422.67830456 0 55.69091503 0 2873.50080926 0 -12.10194030 0 948.15196227 0 25020
0.15250000 0.15250500 10250.80260640 0 273.14207372 0 2843.38408575 0 402.21548583 0 926.84105869 0 25297
0.15350000 0.15350100 10305.42238473 0 2.52456756 0 2427.88402461 0 301.93565441 0 1010.18244760 0 25452
0.15450000 0.15450400 10169.29922341 0 -65.74347874 0 2543.02513040 0 156.36558555 0 561.67800063 0 26061
0.15550000 0.15549900 10185.89663832 0 242.74964932 0 2487.32026424 0 -16.77346487 0 773.20701567 0 26128
0.15650000 0.15649500 10105.78836825 0 157.04874800 0 2490.46480448 0 -21.36205772 0 1101.14381045 0 26331
0.15750000 0.15749700 9889.60122617 0 232.92074658 0 2528.68646976 0 -148.89619523 0 1167.75380932 0 27345
0.15850000 0.15849900 9764.81612546 0 222.45518516 0 2631.22726990 0 93.28267575 0 920.25856158 0 26980
0.15950000 0.15949700 9452.95302462 0 269.03534844 0 2854.40104895 0 -182.18846150 0 486.37954847 0 27777
0.16050000 0.16050000 9329.43016894 0 265.73579565 0 2888.82490681 0 -129.41222525 0 730.78229589 0 28224
0.16150000 0.16150500 9176.01203626 0 154.39471174 0 2997.83194465 0 18.23368306 0 485.14719872 0 28075
0.16250000 0.16249700 9115.50178112 0 163.43194325 0 2857.08055155 0 -42.47089137 0 666.02691142 0 28590
0.16350000 0.16349900 8963.39018276 0 173.73584873 0 2737.15620144 0 164.37198363 0 20.37385273 0 29163
0.16450000 0.16449100 8834.02113958 0 90.60273025 0 2819.06926045 0 58.73990112 0 194.91056271 0 28996
0.16550000 0.16550500 8707.56411783 0 86.71335471 0 2549.24777695 0 131.23362268 0 38.77661019 0 30777
0.16650000 0.16650700 8721.08342643 0 30.73422706 0 2744.98433509 0 187.19868848 0 93.76742213 0 29211
0.16750000 0.16749900 8641.17445822 0 23.20061726 0 2414.86297062 0 51.34004500 0 -67.58181683 0 30922
0.16850000 0.16850800 8577.28714401 0 122.30157825 0 2424.60661646 0 113.49575832 0 -103.92417641 0 30867
0.16950000 0.16949900 8600.22900104 0 131.88467538 0 2460.87955257 0 121.09690931 0 54.61557085 0 30852
0.17050000 0.17049200 8277.84719162 0 238.82008125 0 2253.33989617 0 215.43754569 0 200.57737855 0 31257
0.17150000 0.17149500 8223.43778746 0 99.82841273 0 2209.69279173 0 204.75718117 0 280.16303489 0 32608
0.17250000 0.17250900 8162.36284376 0 27.71247890 0 2164.79451459 0 359.84280598 0 231.57988805 0 32361
0.17350000 0.17350400 8084.63512353 0 41.39100753 0 2208.58555925 0 -38.41388083 0 227.68132248 0 32508
0.17450000 0.17449800 8063.45376615 0 176.42310196 0 2205.11992158 0 -234.43433339 0 303.76923140 0 32791
0.17550000 0.17549800 7914.40920177 0 255.01999969 0 2309.69802949 0 -335.92658437 0 546.06602264 0 33633
0.17650000 0.17650100 7910.60032203 0 96.28205782 0 2443.13061588 0 -152.00530404 0 451.13080241 0 33984
0.17750000 0.17750300 7770.71257027 0 -129.48973152 0 2475.94898665 0 227.41890838 0 549.82396968 0 34069
0.17850000 0.17849800 7995.10430505 0 -98.35014665 0 2319.41953069 0 324.06480279 0 108.32952228 0 34536
