### header ###
fiducial parameters:
Omega_m = 0.31
Omega_nu = 0
Omega_de = 0.69
Omega_k = 0
H_0 = 100
w_de = -1
zeff = 0
beta = 0
fgrowth = 0
b_1 = 2
gamma = 0.55
Lx = 3500 Ly = 3500 Lz = 3500
nx = 700 ny = 700 nz = 700
xoffset = -685.467585 yoffset = -31.7331281 zoffset = 572.489161
bins = 400 dk = 0.001
kx_ny = 0.628318531 ky_ny = 0.628318531 kz_ny = 0.628318531
############################
A(data) = 8.03251565 (not used)
A(ran) = 8.03430812 (used)
Ngal = 477610
weighted Ngal = 0
Nran = 23820508
weighted Nran = 0
SN(data) = 3481.65064
SN(ran) = 69.9817375
SN(data+ran) = 3551.63238
############################
13 columns: k_central k_mean P_0(k) sigma^{lin}_{P_0(k)} P^img_1(k) sigma^{lin}_{P_1(k)} P_2(k) sigma^{lin}_{P_2(k)} P^img_3(k) sigma^{lin}_{P_3(k)} P_4(k) sigma^{lin}_{P_4(k)} N_modes
### header ###
0.00050000 0 0 0 0 0 0 0 0 0 0 0 0
0.00150000 0.00179520 63814.12613654 0 -32982.57333953 0 37726.73235457 0 100639.23908113 0 -43146.41390680 0 3
0.00250000 0.00253879 111558.10147779 0 -21068.64111142 0 57008.41096351 0 -54042.46731434 0 -29204.69611141 0 6
0.00350000 0.00331552 97067.19637139 0 16574.16302103 0 39797.14637241 0 -76905.60010911 0 79817.40008992 0 7
0.00450000 0.00420575 81995.10493525 0 37795.82366144 0 31039.26961061 0 -1258.59116214 0 70861.77160685 0 24
0.00550000 0.00557378 62477.58580768 0 8047.76428189 0 54162.60203862 0 17852.35219810 0 20551.45281914 0 45
0.00650000 0.00659388 78038.18821481 0 1636.05778753 0 72767.87232438 0 42259.18851909 0 -33845.77178239 0 40
0.00750000 0.00754703 78153.67256267 0 -1679.29521594 0 69181.21414588 0 28066.79328979 0 3797.18736261 0 57
0.00850000 0.00846663 73302.00127364 0 -2037.81709357 0 49055.04932303 0 25118.56536033 0 -5731.96540142 0 75
0.00950000 0.00948925 73382.93996806 0 -4173.93428689 0 32629.25545457 0 28325.33207431 0 1760.83181591 0 112
0.01050000 0.01054430 83888.14030950 0 -1567.27650575 0 32137.75495587 0 31590.78210982 0 -21627.46134501 0 105
0.01150000 0.01145670 82477.96902059 0 -5578.19295433 0 10800.84248642 0 13985.45347843 0 -24158.26262881 0 144
0.01250000 0.01249090 77290.47411981 0 9428.44996980 0 16737.14764236 0 -3464.50829110 0 -7226.97284308 0 169
0.01350000 0.01339930 73527.21236045 0 9459.88429996 0 6946.64372332 0 -26152.27760540 0 4702.81495417 0 180
0.01450000 0.01448870 69978.97514906 0 -1344.68955993 0 15408.02577113 0 17961.85749055 0 5397.39296237 0 267
0.01550000 0.01550050 74687.37055495 0 -14635.06677554 0 3479.16804916 0 14503.63827994 0 -1384.93746064 0 238
0.01650000 0.01653350 83389.99641590 0 -5873.50292957 0 2814.34137775 0 17575.32263113 0 277.34291375 0 315
0.01750000 0.01747870 85815.49989068 0 2728.03260579 0 11732.34610109 0 5523.51781438 0 1834.67315012 0 297
0.01850000 0.01844180 79945.83905782 0 3879.86441203 0 17135.86205908 0 -4216.25271234 0 10071.65239084 0 388
0.01950000 0.01947590 79090.39124233 0 9193.52845412 0 15815.04443147 0 -7706.21627820 0 33127.17790166 0 399
0.02050000 0.02045430 67926.83046718 0 6594.44414316 0 19238.82871189 0 10244.60210450 0 29688.77815248 0 462
0.02150000 0.02154770 72793.00650172 0 137.42415949 0 27637.40853333 0 11403.83022372 0 37340.19749515 0 571
0.02250000 0.02255340 71955.49585244 0 -3830.96902563 0 31371.99297141 0 14647.79994908 0 30315.91463021 0 510
0.02350000 0.02348930 74965.95024738 0 2816.09080508 0 22330.77541749 0 11474.80382580 0 38525.82203674 0 555
0.02450000 0.02439640 73411.17439635 0 3865.59218534 0 28402.72762479 0 4859.87588173 0 38636.10239193 0 592
0.02550000 0.02547300 71977.75122533 0 -27.01370448 0 19944.24652608 0 6638.82202104 0 25294.83677145 0 837
0.02650000 0.02652900 72832.86687107 0 1843.16562326 0 20641.58154316 0 -2354.72917453 0 11943.82750512 0 723
0.02750000 0.02749970 71002.83302504 0 2456.52812891 0 19141.94586972 0 -15448.32903347 0 -8341.42448073 0 826
0.02850000 0.02848090 68835.20399530 0 -280.22946884 0 21098.75783492 0 -9953.14529830 0 -3196.23693307 0 831
0.02950000 0.02946900 70153.25354171 0 -341.77277187 0 18224.27158875 0 -8128.24901099 0 -21361.61482612 0 996
0.03050000 0.03053250 68143.51586388 0 943.97880304 0 12366.45814345 0 -1600.99173483 0 -26183.83373113 0 1041
0.03150000 0.03150510 67548.26768163 0 2745.89226573 0 13382.12249906 0 429.01383359 0 -37361.23491231 0 1036
0.03250000 0.03246190 63406.33241347 0 3243.71506190 0 13235.08202547 0 -1095.72169298 0 -28710.75970125 0 1059
0.03350000 0.03345080 59444.65459336 0 4743.51682021 0 12436.21378981 0 4644.88455072 0 -23569.76856470 0 1302
0.03450000 0.03451200 55840.72358813 0 2532.90502551 0 16221.39875231 0 722.21010202 0 -18554.11614510 0 1339
0.03550000 0.03553350 53360.63355201 0 2471.92973274 0 15165.87402735 0 6255.47599117 0 -10029.64399047 0 1365
0.03650000 0.03647120 53059.57704019 0 3254.87596531 0 15339.37735726 0 3723.62283651 0 -7827.03748663 0 1308
0.03750000 0.03744890 49399.73079463 0 2519.34142761 0 12052.11484185 0 3052.21920416 0 -1068.06413282 0 1579
0.03850000 0.03847530 49557.73286979 0 1489.73701505 0 14218.19374612 0 -2179.39891103 0 -128.07579564 0 1662
0.03950000 0.03950240 45595.72287994 0 3495.49972827 0 11181.38721811 0 2183.01956124 0 2033.84212896 0 1683
0.04050000 0.04050350 44896.39484439 0 2059.16453582 0 12633.30117158 0 -1667.61391326 0 -2620.18816206 0 1822
0.04150000 0.04152450 41105.12010324 0 857.11420037 0 7986.15786659 0 4917.18623499 0 -756.23203449 0 1887
0.04250000 0.04250150 41534.39413646 0 -1340.32706395 0 6587.25820436 0 8425.36377518 0 -2839.63056764 0 1920
0.04350000 0.04349210 42015.59737308 0 -2406.00511077 0 2031.92661677 0 9118.29200698 0 -648.25693732 0 2005
0.04450000 0.04448520 43681.76081179 0 -2080.97701572 0 -716.40488211 0 3926.06922349 0 -1205.57687090 0 2151
0.04550000 0.04548030 43930.99884345 0 -305.34150152 0 -786.25353600 0 1557.63251084 0 -1265.33420795 0 2274
0.04650000 0.04648670 43904.97888013 0 2449.34219011 0 -373.31228912 0 -6399.98090237 0 1565.20598101 0 2311
0.04750000 0.04749250 42259.52068883 0 2779.30854203 0 2731.18821837 0 -7821.18022680 0 1041.34329133 0 2568
0.04850000 0.04851840 41010.00883305 0 1962.19311506 0 7337.41928315 0 -5035.74868914 0 4150.40559665 0 2493
0.04950000 0.04949480 40318.54214812 0 891.63438746 0 11783.83241149 0 -5484.68717124 0 33.86636631 0 2644
0.05050000 0.05050630 39319.37555649 0 1090.11134600 0 12155.53035565 0 -210.59340359 0 -3160.52868553 0 2829
0.05150000 0.05149060 39395.55315124 0 1083.20442978 0 15431.49909975 0 -688.19370571 0 -4894.13365471 0 2784
0.05250000 0.05249300 38036.97889599 0 1919.53144753 0 12420.82325831 0 -268.97998682 0 -2813.28950690 0 3055
0.05350000 0.05348950 37768.80718888 0 -1021.37988969 0 14890.50530911 0 1129.29962523 0 -3106.11928137 0 3009
0.05450000 0.05448610 37698.83009603 0 -607.54289173 0 11807.63790985 0 2596.27194045 0 -2902.79818073 0 3336
0.05550000 0.05550870 38738.07850351 0 -1043.56107800 0 11418.77786222 0 2587.48051454 0 -4766.58047280 0 3349
0.05650000 0.05647670 38029.44971512 0 -389.87648705 0 9097.67533816 0 1805.05468123 0 -7205.22679714 0 3324
0.05750000 0.05747970 39229.68972546 0 1446.99784125 0 10786.44846415 0 -1514.15149127 0 -7694.31352902 0 3639
0.05850000 0.05849280 36850.57929167 0 1230.99892869 0 10752.07996792 0 -3640.10429040 0 -5442.42410741 0 3846
0.05950000 0.05951020 37250.51166412 0 993.70129210 0 12836.14616226 0 -1985.99861342 0 -4130.90723264 0 3787
0.06050000 0.06049470 36240.82636391 0 284.08042341 0 11946.37413983 0 -554.39794706 0 -4163.12769786 0 3930
0.06150000 0.06148310 36399.71422506 0 35.06339534 0 12266.80722008 0 1422.73837757 0 -5217.98808333 0 4083
0.06250000 0.06249100 35787.63610908 0 1578.22703500 0 13766.00000053 0 2498.50331230 0 -4665.91089555 0 4303
0.06350000 0.06350600 34490.18108684 0 2185.10115831 0 13992.76121281 0 740.37425088 0 -2228.28322510 0 4470
0.06450000 0.06451750 32290.44231511 0 1898.23936691 0 12220.08200935 0 1908.76914781 0 -324.82325704 0 4479
0.06550000 0.06550280 30945.48701939 0 1037.58866599 0 11909.61402143 0 591.88994613 0 -398.31913472 0 4636
0.06650000 0.06648880 30205.63427501 0 342.86561033 0 12440.97488948 0 13.91514422 0 181.95372821 0 4653
0.06750000 0.06749660 30045.74990463 0 376.34389166 0 12655.11365147 0 138.80487839 0 -30.81726950 0 5220
0.06850000 0.06852730 29642.49583474 0 736.27749070 0 12366.79031319 0 1027.23493505 0 158.25784587 0 5029
0.06950000 0.06949320 29652.68237357 0 127.87760103 0 11560.39289665 0 -259.99811693 0 -168.12218005 0 5040
0.07050000 0.07048030 29150.66316629 0 -129.79754215 0 10906.68283936 0 666.85179962 0 -779.51381188 0 5475
0.07150000 0.07148790 29163.39633983 0 900.33280584 0 11351.67957382 0 276.93323774 0 -1968.30503836 0 5509
0.07250000 0.07249820 27472.43089353 0 1471.42338980 0 12120.09891623 0 699.67349208 0 -66.82878801 0 5916
0.07350000 0.07351270 26744.20409021 0 1489.53771320 0 11429.85018704 0 102.35589232 0 159.50126794 0 5721
0.07450000 0.07449140 25412.20341452 0 608.06439823 0 9575.49044339 0 2492.76784805 0 789.54976710 0 6028
0.07550000 0.07549160 25097.52794318 0 474.04165693 0 10814.17356550 0 1809.91543183 0 1137.31598840 0 6183
0.07650000 0.07648840 24687.29830865 0 23.31931258 0 9372.02540252 0 1703.89792169 0 614.83955378 0 6330
0.07750000 0.07749960 24648.65589503 0 -145.49699151 0 9719.43066603 0 961.42103633 0 999.87411319 0 6583
0.07850000 0.07848650 24605.69527473 0 1026.23953305 0 8748.87496173 0 137.91909241 0 2471.28753790 0 6549
0.07950000 0.07947320 24229.01478440 0 -121.99930378 0 8995.30062289 0 -432.99654882 0 1525.93244488 0 6828
0.08050000 0.08048110 24491.53960585 0 -344.84977094 0 9635.55780553 0 -158.42393074 0 1412.39682619 0 7147
0.08150000 0.08149960 25029.76531529 0 -302.78711619 0 10333.52394512 0 -196.76406989 0 1165.48398274 0 7386
0.08250000 0.08250610 24881.83905571 0 431.73541103 0 9711.15963939 0 475.75565281 0 1507.78490450 0 7227
0.08350000 0.08350160 24749.19260438 0 371.44328069 0 9118.59095975 0 298.21313881 0 487.83223749 0 7798
0.08450000 0.08449610 24319.80784792 0 536.88817260 0 8862.56559296 0 1979.80918385 0 -1269.44204046 0 7371
0.08550000 0.08548940 24110.65163209 0 334.50821956 0 8479.14205682 0 600.87513772 0 126.90323644 0 8256
0.08650000 0.08650700 22953.15079555 0 1411.44460626 0 7550.86048867 0 662.85911929 0 -1063.66288370 0 8037
0.08750000 0.08749060 22204.99380755 0 747.04200489 0 6690.17546355 0 337.31173221 0 527.96166433 0 8155
0.08850000 0.08849210 21516.73809683 0 498.76283655 0 5995.69710627 0 872.56673689 0 -1063.40711300 0 8718
0.08950000 0.08949900 20808.77364792 0 705.13657715 0 5925.18854183 0 350.61291601 0 51.37614077 0 8571
0.09050000 0.09049190 20238.77036626 0 321.20482129 0 5832.25851962 0 599.18439372 0 -388.86004763 0 8932
0.09150000 0.09150830 20026.95679248 0 18.77733421 0 5351.83034574 0 986.03370717 0 -931.81917593 0 9285
0.09250000 0.09250820 19888.55273225 0 163.40426244 0 5620.74389861 0 -91.26075851 0 -408.53224714 0 9204
0.09350000 0.09350330 19682.49676737 0 662.41733353 0 5474.33454754 0 -453.04410014 0 -1505.85831999 0 9349
0.09450000 0.09448040 19230.63519152 0 533.27527301 0 5226.35876090 0 -609.85700762 0 276.25118253 0 9564
0.09550000 0.09549270 18736.92022786 0 359.35783815 0 4908.40588141 0 -65.58226569 0 -1038.82433744 0 10155
0.09650000 0.09649430 18485.79990097 0 -194.32815843 0 5095.62782176 0 1270.69321316 0 -415.27861465 0 9913
0.09750000 0.09749140 18637.38002774 0 -42.45085046 0 4350.60430169 0 1296.71317649 0 -1899.60126286 0 10476
0.09850000 0.09850240 18312.29657106 0 447.36178304 0 4276.40865308 0 1174.47471049 0 -1254.38367870 0 10575
0.09950000 0.09950330 17878.15071492 0 626.05138990 0 3621.58029098 0 251.68944438 0 -936.85376202 0 10882
0.10050000 0.10051200 17460.83479251 0 430.85959013 0 4351.15791793 0 -132.58112461 0 428.39156893 0 10875
0.10150000 0.10150300 17064.22411750 0 432.19712697 0 4774.40860645 0 -238.62520833 0 243.51474697 0 11118
0.10250000 0.10250800 17003.21560775 0 463.01915757 0 5628.79347876 0 -620.03025966 0 611.32741235 0 11575
0.10350000 0.10349800 16594.31465220 0 349.73266619 0 6215.96993621 0 -651.02280406 0 1036.73498974 0 11364
0.10450000 0.10450100 16373.86466506 0 348.18475518 0 6253.88157639 0 -441.78686750 0 1147.72397373 0 12093
0.10550000 0.10551000 16332.45417024 0 283.83018887 0 6464.72078559 0 -160.67604161 0 476.25169296 0 12067
0.10650000 0.10649700 16108.90393215 0 272.90291150 0 5603.50428887 0 1021.30791957 0 -288.81162780 0 12054
0.10750000 0.10749900 15756.80400292 0 130.77190674 0 5473.70342502 0 131.52371759 0 276.08399042 0 12807
0.10850000 0.10850100 15736.98454149 0 29.29847870 0 4795.13599851 0 891.54359440 0 -300.97014769 0 12736
0.10950000 0.10950300 15422.41979340 0 217.58225501 0 5059.17772846 0 520.92630914 0 -935.08440451 0 12933
0.11050000 0.11050200 15121.91689782 0 425.70763739 0 4430.80115035 0 113.13922946 0 -805.24589476 0 13428
0.11150000 0.11150900 14957.04998127 0 252.14451693 0 4429.91536437 0 94.16979041 0 -713.70655656 0 13453
0.11250000 0.11250000 14714.56606774 0 122.78765331 0 4078.44655765 0 74.61108224 0 345.02582091 0 13668
0.11350000 0.11349100 14786.42545581 0 -117.00347082 0 4389.84462085 0 315.20362124 0 -18.79338908 0 13791
0.11450000 0.11448600 14989.60261624 0 -217.09839442 0 4429.86000274 0 1115.09383249 0 370.07141965 0 14205
0.11550000 0.11549300 14667.61941051 0 116.45206905 0 4367.99892398 0 482.28610999 0 -218.28091871 0 14776
0.11650000 0.11649800 14802.48032680 0 439.12286615 0 4107.24567450 0 227.84962182 0 663.54117450 0 14553
0.11750000 0.11747300 14229.48751744 0 397.91831656 0 3814.81450372 0 200.89183258 0 1008.49834699 0 14568
0.11850000 0.11849100 13962.20159631 0 467.28310986 0 4023.30638005 0 69.76616507 0 1026.18860035 0 16015
0.11950000 0.11950300 13704.10570479 0 228.12532270 0 3439.34089679 0 296.40392093 0 1198.62345092 0 15270
0.12050000 0.12050700 13643.65081128 0 -239.88634613 0 3068.10799027 0 616.59562450 0 915.08335696 0 15999
0.12150000 0.12150000 13938.06392821 0 -303.22225855 0 2629.68821675 0 302.67971464 0 -26.68718162 0 15670
0.12250000 0.12250700 13976.15272558 0 -38.43071077 0 3009.38037943 0 -371.16647257 0 -536.79184337 0 16887
0.12350000 0.12352200 14229.37679419 0 188.60708819 0 3037.74767562 0 -837.72988131 0 -748.59988099 0 16407
0.12450000 0.12449800 13713.73862738 0 269.21804180 0 3398.38436729 0 -1208.98714695 0 -604.09275532 0 16306
0.12550000 0.12549900 13951.90433423 0 369.29967861 0 4002.22467360 0 -788.19230008 0 -841.62512519 0 17523
0.12650000 0.12650100 13640.55056033 0 251.98286099 0 4567.32291537 0 -100.90940381 0 -637.58543066 0 17154
0.12750000 0.12750600 13539.46023474 0 376.12908855 0 4427.29122339 0 284.47459817 0 -922.57267747 0 18007
0.12850000 0.12850300 13114.28296170 0 63.20481610 0 4538.28020737 0 626.05249713 0 -569.06434852 0 17496
0.12950000 0.12949900 13260.21620281 0 102.52673829 0 4363.41498151 0 508.78439774 0 -1396.35302753 0 18405
0.13050000 0.13049000 12844.67185237 0 299.24618671 0 3872.16914628 0 277.18015058 0 -533.31956231 0 18100
0.13150000 0.13148800 12441.30705922 0 408.65625717 0 3584.78695561 0 346.40100365 0 -929.45523458 0 19059
0.13250000 0.13249300 12236.80121982 0 128.39467860 0 3508.59828853 0 322.58554020 0 -863.00689164 0 18957
0.13350000 0.13349100 12105.26200098 0 102.22955709 0 3269.20355363 0 202.87931488 0 -1288.22070335 0 19468
0.13450000 0.13450700 12067.83754309 0 157.64554630 0 3638.17770589 0 30.70964650 0 -618.97949603 0 19953
0.13550000 0.13551000 11989.44548337 0 137.67550126 0 3372.29797002 0 -158.60108793 0 -310.93524002 0 19956
0.13650000 0.13649900 11922.56864147 0 130.07435027 0 3652.81531930 0 182.28811242 0 168.76658935 0 19723
0.13750000 0.13749600 11890.45889950 0 178.64531755 0 3581.05558215 0 225.82670807 0 423.11782062 0 20946
0.13850000 0.13851100 11740.76106795 0 270.03075044 0 3623.98298547 0 445.95559779 0 518.03643236 0 20955
0.13950000 0.13949800 11555.41035048 0 77.79725443 0 3418.08203314 0 404.62039478 0 698.86521237 0 20506
0.14050000 0.14048300 11255.90396414 0 158.38296314 0 3196.85698326 0 498.10071152 0 758.80302831 0 21447
0.14150000 0.14148400 11104.43456062 0 196.35993003 0 2588.15592636 0 831.12413233 0 509.58160513 0 21771
0.14250000 0.14249400 10910.71316559 0 18.91031283 0 2179.03352431 0 406.44400668 0 582.09536760 0 22470
0.14350000 0.14350900 10939.76694592 0 -39.72406903 0 2006.30525714 0 613.40236602 0 565.54888539 0 22519
0.14450000 0.14449900 10833.25118116 0 51.42009790 0 1934.99948531 0 -29.61271128 0 -43.55874728 0 22218
0.14550000 0.14550500 10746.75417968 0 237.13930234 0 2333.66961273 0 -216.06423928 0 227.74332750 0 23559
0.14650000 0.14650700 10701.53480512 0 281.12743438 0 2139.89285608 0 -624.33185785 0 274.49621904 0 23044
0.14750000 0.14750500 10415.72488458 0 349.67730456 0 2569.94195203 0 -568.13538047 0 474.23320815 0 23649
0.14850000 0.14849900 10313.02907188 0 210.28780742 0 2867.02349924 0 -476.40449104 0 810.51853584 0 23640
0.14950000 0.14949500 10196.47070852 0 67.84201646 0 3214.07444836 0 220.34590729 0 614.64025194 0 24457
0.15050000 0.15050000 10246.56190600 0 88.82562212 0 3058.08753631 0 193.32611303 0 553.21763724 0 24591
0.15150000 0.15149900 10199.93634619 0 46.52546599 0 3243.82578514 0 179.48349254 0 314.41970064 0 25020
0.15250000 0.15250500 10037.38354552 0 157.99543177 0 3208.85938337 0 -212.75139969 0 503.15301334 0 25297
0.15350000 0.15350100 9927.08104568 0 194.10228300 0 3238.52214156 0 90.35393511 0 442.10685768 0 25452
0.15450000 0.15450400 9763.24385534 0 149.64911332 0 3115.54182980 0 -54.52976033 0 572.71267955 0 26061
0.15550000 0.15549900 9632.34683133 0 163.89808813 0 2959.32239893 0 253.95041311 0 394.58665403 0 26128
0.15650000 0.15649500 9651.94484626 0 13.62604581 0 3138.83800121 0 191.91328438 0 72.32265414 0 26331
0.15750000 0.15749700 9496.91015415 0 180.60844074 0 2939.29256333 0 36.39860699 0 121.05926340 0 27345
0.15850000 0.15849900 9377.07438264 0 218.95854499 0 2979.96121239 0 -72.50567967 0 109.72574244 0 26980
0.15950000 0.15949700 9169.43507531 0 50.68135239 0 2972.24380199 0 145.52799402 0 352.39223861 0 27777
0.16050000 0.16050000 9247.20708484 0 6.10021985 0 2793.02715248 0 300.90260650 0 171.96206229 0 28224
0.16150000 0.16150500 9260.56030857 0 86.43809672 0 2891.18331200 0 101.56953581 0 -75.69639152 0 28075
0.16250000 0.16249700 9073.88091213 0 167.66157133 0 2578.70016096 0 168.86734751 0 -223.86137042 0 28590
0.16350000 0.16349900 8919.12302814 0 162.93701033 0 2427.61828881 0 -52.80325272 0 -108.37071133 0 29163
0.16450000 0.16449100 8925.57819351 0 13.03467295 0 2336.90273157 0 124.95450728 0 -489.89168990 0 28996
0.16550000 0.16550500 8809.83918218 0 61.62235944 0 2287.95198355 0 49.97139493 0 -560.23195501 0 30777
0.16650000 0.16650700 8854.51601282 0 230.62213195 0 2197.18106469 0 -0.04419153 0 -470.01797409 0 29211
0.16750000 0.16749900 8422.15280098 0 233.96818851 0 2076.43736254 0 -37.69772286 0 -627.73327604 0 30922
0.16850000 0.16850800 8423.20467184 0 219.87090455 0 2094.83956639 0 -20.94130938 0 -523.66338783 0 30867
0.16950000 0.16949900 8322.49080529 0 89.70841857 0 2509.92995151 0 9.39037224 0 -579.68824418 0 30852
0.17050000 0.17049200 8236.92387909 0 47.95567819 0 2326.64975879 0 211.62202256 0 -346.53387155 0 31257
0.17150000 0.17149500 8282.94046103 0 -93.15357244 0 2278.70659233 0 210.19812159 0 -134.17111045 0 32608
0.17250000 0.17250900 8321.85968277 0 69.11035127 0 2396.47183910 0 58.27143106 0 -200.66595715 0 32361
0.17350000 0.17350400 8318.08402001 0 105.43410934 0 2179.19960918 0 19.07086154 0 -38.97491553 0 32508
0.17450000 0.17449800 8105.17428607 0 161.26619652 0 2288.51667212 0 127.65283283 0 -75.54868670 0 32791
0.17550000 0.17549800 8145.97580303 0 36.14671160 0 2232.42427459 0 77.17997232 0 46.46600761 0 33633
0.17650000 0.17650100 7935.26946173 0 95.65237471 0 2191.84420412 0 164.22140001 0 -235.64786019 0 33984
0.17750000 0.17750300 7885.10075797 0 219.31839554 0 2112.48885215 0 20.74477561 0 -169.19508832 0 34069
