### header ###
fiducial parameters:
Omega_m = 0.31
Omega_nu = 0
Omega_de = 0.69
Omega_k = 0
H_0 = 100
w_de = -1
zeff = 0
beta = 0
fgrowth = 0
b_1 = 2
gamma = 0.55
Lx = 3500 Ly = 3500 Lz = 3500
nx = 700 ny = 700 nz = 700
xoffset = -685.467585 yoffset = -31.7331281 zoffset = 572.489161
bins = 400 dk = 0.001
kx_ny = 0.628318531 ky_ny = 0.628318531 kz_ny = 0.628318531
############################
A(data) = 8.05356991 (not used)
A(ran) = 8.04730474 (used)
Ngal = 478351
weighted Ngal = 0
Nran = 23820508
weighted Nran = 0
SN(data) = 3495.81901
SN(ran) = 70.0949428
SN(data+ran) = 3565.91396
############################
13 columns: k_central k_mean P_0(k) sigma^{lin}_{P_0(k)} P^img_1(k) sigma^{lin}_{P_1(k)} P_2(k) sigma^{lin}_{P_2(k)} P^img_3(k) sigma^{lin}_{P_3(k)} P_4(k) sigma^{lin}_{P_4(k)} N_modes
### header ###
0.00050000 0 0 0 0 0 0 0 0 0 0 0 0
0.00150000 0.00179520 99871.26263171 0 -89251.02083541 0 69901.57959858 0 39353.58904018 0 -123713.29966370 0 3
0.00250000 0.00253879 163385.43948891 0 -65618.80435873 0 42217.77802426 0 -31866.92589080 0 124251.41464989 0 6
0.00350000 0.00331552 152040.73547972 0 6953.38676914 0 3320.93345518 0 -51661.25313884 0 51933.30015963 0 7
0.00450000 0.00420575 119336.40966289 0 58715.76345054 0 -25785.78365390 0 -36900.73692310 0 55503.57129741 0 24
0.00550000 0.00557378 64928.77707603 0 22704.13421038 0 -16819.96863201 0 -2046.60851948 0 11535.25871931 0 45
0.00650000 0.00659388 51318.56468570 0 -1601.45677247 0 -9515.53380450 0 -2656.67147234 0 4383.12371968 0 40
0.00750000 0.00754703 45048.63931065 0 4583.26706311 0 -9398.61005441 0 17778.72123805 0 -5093.69016492 0 57
0.00850000 0.00846663 53182.03695268 0 -4956.07223975 0 -12346.41723553 0 -9711.91255748 0 7764.92174439 0 75
0.00950000 0.00948925 46574.84856365 0 -3714.41066226 0 -7281.43760886 0 -15442.46070132 0 -800.76049598 0 112
0.01050000 0.01054430 56332.99914957 0 -400.31547489 0 -4545.41078455 0 -7508.78565436 0 27138.71102349 0 105
0.01150000 0.01145670 58515.90798757 0 -2193.88151189 0 5445.30291186 0 -17066.54930572 0 5658.21264580 0 144
0.01250000 0.01249090 61631.88163803 0 -498.58235765 0 6442.87508872 0 -7435.13254967 0 17150.92042083 0 169
0.01350000 0.01339930 63107.93325960 0 928.71560328 0 14387.26814610 0 -1395.83262826 0 -13605.56201390 0 180
0.01450000 0.01448870 65879.44688496 0 -3667.29792016 0 15255.55985838 0 368.46261085 0 97.36515263 0 267
0.01550000 0.01550050 60661.72453742 0 848.18326318 0 13170.19820204 0 11423.42823865 0 6598.67377125 0 238
0.01650000 0.01653350 70008.31680983 0 -2094.09772063 0 8781.98121293 0 6245.62162208 0 -6366.49819212 0 315
0.01750000 0.01747870 69517.59137387 0 -5969.82108317 0 4195.19315054 0 13300.85163490 0 -11557.07119921 0 297
0.01850000 0.01844180 73080.22260752 0 4139.73187552 0 13316.79578263 0 -3620.20732270 0 6539.07144675 0 388
0.01950000 0.01947590 73978.63104330 0 -1894.44155950 0 8864.29287564 0 2974.95652157 0 -1227.22326592 0 399
0.02050000 0.02045430 75809.77212181 0 -819.06969230 0 6981.42189558 0 -2753.36608498 0 -7477.92708509 0 462
0.02150000 0.02154770 75630.06829000 0 4819.78299356 0 18577.14658072 0 -6359.67764003 0 2515.01214861 0 571
0.02250000 0.02255340 70653.61190026 0 5886.15859684 0 22642.46136114 0 -5847.62690647 0 2643.94937112 0 510
0.02350000 0.02348930 64332.53238455 0 8131.02816452 0 24852.05450195 0 7750.89310885 0 6432.53353734 0 555
0.02450000 0.02439640 62166.89637327 0 4796.99614908 0 23694.88583515 0 8009.57583359 0 5149.31752481 0 592
0.02550000 0.02547300 55857.77496836 0 1352.73914007 0 18266.12497657 0 10549.58929163 0 6037.41762619 0 837
0.02650000 0.02652900 57061.33667614 0 -814.59536584 0 18379.06268972 0 6982.27446459 0 4738.25746592 0 723
0.02750000 0.02749970 58041.12669934 0 -211.39393267 0 10364.57074391 0 4671.85673398 0 10948.83517994 0 826
0.02850000 0.02848090 58564.29404703 0 -753.95445727 0 20363.99835996 0 -2174.63781136 0 9644.85855838 0 831
0.02950000 0.02946900 61084.90879199 0 -481.79339153 0 18785.52773381 0 -2621.37290081 0 12589.56548855 0 996
0.03050000 0.03053250 59448.08701405 0 3717.31161136 0 25296.05472718 0 -1756.92328525 0 16564.08720545 0 1041
0.03150000 0.03150510 59273.91934465 0 4759.84849931 0 21444.98943200 0 -544.98536374 0 9166.91058526 0 1036
0.03250000 0.03246190 54361.12882262 0 1428.85030087 0 29601.74967940 0 2956.11142473 0 7266.85535708 0 1059
0.03350000 0.03345080 51746.95293294 0 4204.82607313 0 22869.11185018 0 3150.71860574 0 7062.91420624 0 1302
0.03450000 0.03451200 48142.35758823 0 2244.00592635 0 22391.11958776 0 6523.28231156 0 5705.85685949 0 1339
0.03550000 0.03553350 45849.27911828 0 -13.97283103 0 14825.51076242 0 8686.52670067 0 896.46302831 0 1365
0.03650000 0.03647120 46152.10720207 0 -1720.78321704 0 14573.06175656 0 5974.06178358 0 -6223.26659827 0 1308
0.03750000 0.03744890 46894.06368817 0 -1691.89552159 0 7948.29051571 0 1228.10905191 0 -7063.95500477 0 1579
0.03850000 0.03847530 46006.61685396 0 824.72765028 0 7565.04413677 0 268.05655493 0 -6065.00985964 0 1662
0.03950000 0.03950240 44174.36854297 0 843.61260749 0 7420.05204327 0 -609.46615455 0 -4760.28031998 0 1683
0.04050000 0.04050350 46191.08178544 0 487.96067646 0 5969.99824037 0 1856.81779976 0 -2620.07743881 0 1822
0.04150000 0.04152450 44239.80598265 0 1619.56002355 0 8123.00072903 0 381.05073694 0 -5663.22840894 0 1887
0.04250000 0.04250150 42888.20729203 0 2339.96976555 0 8733.16333281 0 -213.60175424 0 -5265.11189776 0 1920
0.04350000 0.04349210 42688.68399880 0 1781.01666405 0 10076.09239309 0 -3035.45570438 0 -4319.63500917 0 2005
0.04450000 0.04448520 40572.76272596 0 1484.17870799 0 10755.26879746 0 -1152.38542248 0 917.36093418 0 2151
0.04550000 0.04548030 39499.85445103 0 1670.04982472 0 15065.33731799 0 -1887.42170556 0 -489.96808894 0 2274
0.04650000 0.04648670 39506.49784592 0 684.75021269 0 10106.15375497 0 4033.61471446 0 323.06829356 0 2311
0.04750000 0.04749250 38765.87003880 0 -1201.33617050 0 11000.53186452 0 3137.19929714 0 -1840.40861438 0 2568
0.04850000 0.04851840 39138.34304570 0 625.93734495 0 8082.09956115 0 2707.38272001 0 -3728.63859965 0 2493
0.04950000 0.04949480 37684.21462727 0 1778.33716145 0 8944.11326525 0 -621.84722816 0 -2958.63591479 0 2644
0.05050000 0.05050630 37615.89838314 0 521.98814509 0 6918.65288618 0 -1497.00046013 0 -1418.59732809 0 2829
0.05150000 0.05149060 35661.19015966 0 -79.65397258 0 7203.89811816 0 -447.57437168 0 -1816.17129535 0 2784
0.05250000 0.05249300 37274.20643924 0 625.91962923 0 8381.25163310 0 -200.27953302 0 -4238.46379593 0 3055
0.05350000 0.05348950 36315.12166344 0 1226.56999876 0 10007.88687221 0 -263.21130559 0 -4391.23973378 0 3009
0.05450000 0.05448610 35077.23574872 0 288.86034603 0 9500.54187669 0 105.40111382 0 -3712.04118475 0 3336
0.05550000 0.05550870 34904.61820480 0 -187.71244435 0 10951.29323605 0 -1176.56737988 0 -3562.07761741 0 3349
0.05650000 0.05647670 34993.86114284 0 1175.13904998 0 10904.66767624 0 2015.50635906 0 -4944.70096216 0 3324
0.05750000 0.05747970 35119.08913653 0 868.80103922 0 9991.76556727 0 -753.53592339 0 -4445.28375122 0 3639
0.05850000 0.05849280 33396.01394826 0 1027.14524922 0 10301.63564964 0 448.90083619 0 805.67660820 0 3846
0.05950000 0.05951020 34352.77353584 0 841.23537935 0 11745.85433736 0 305.96265895 0 -273.95367513 0 3787
0.06050000 0.06049470 32144.17690426 0 149.23943730 0 11458.85967807 0 2405.42934988 0 5071.12476694 0 3930
0.06150000 0.06148310 33339.76653818 0 159.99841533 0 12455.36891174 0 2895.06969801 0 2510.29533823 0 4083
0.06250000 0.06249100 32939.61271923 0 -525.56450600 0 11578.99440235 0 3278.61502972 0 3736.92069862 0 4303
0.06350000 0.06350600 32530.26887069 0 1254.99265657 0 12571.29615259 0 -378.20736392 0 5016.97002625 0 4470
0.06450000 0.06451750 31961.04065176 0 1661.15874789 0 12605.39891304 0 -1077.01389297 0 5969.49998575 0 4479
0.06550000 0.06550280 30447.78601880 0 804.15859246 0 13175.73436444 0 -807.49025500 0 6047.73703292 0 4636
0.06650000 0.06648880 29612.04694148 0 949.79509527 0 12597.75900891 0 -26.91560368 0 5070.44935513 0 4653
0.06750000 0.06749660 29813.67397643 0 -297.44361223 0 12071.38068703 0 816.29607493 0 3412.76731723 0 5220
0.06850000 0.06852730 28543.56759648 0 250.71507980 0 11383.56786930 0 1619.49358960 0 508.71021317 0 5029
0.06950000 0.06949320 29631.75567966 0 691.53976227 0 10400.45614865 0 -206.64833425 0 891.43508561 0 5040
0.07050000 0.07048030 27823.20214378 0 993.18089284 0 9495.21608845 0 1549.58293069 0 856.58383602 0 5475
0.07150000 0.07148790 27513.95211160 0 705.56396888 0 9570.38610165 0 335.22459898 0 866.61314784 0 5509
0.07250000 0.07249820 26682.30979447 0 -153.50228236 0 9087.38914841 0 1714.37234097 0 -1093.67109843 0 5916
0.07350000 0.07351270 27408.54357933 0 175.63696690 0 9721.88872214 0 546.16124463 0 -1023.39948173 0 5721
0.07450000 0.07449140 26891.57673354 0 274.29691720 0 8497.04600605 0 -162.81410753 0 -1410.19343355 0 6028
0.07550000 0.07549160 26937.63760479 0 307.18725807 0 9355.94838688 0 -1110.18879259 0 -420.11057720 0 6183
0.07650000 0.07648840 26883.82610617 0 -478.10077120 0 8734.28163762 0 134.02717023 0 -661.14180171 0 6330
0.07750000 0.07749960 26918.92537584 0 520.55317179 0 10598.16358061 0 340.41198315 0 -3011.39554255 0 6583
0.07850000 0.07848650 26314.37644075 0 1064.22425057 0 8831.40807093 0 346.40986151 0 -2306.65314017 0 6549
0.07950000 0.07947320 25015.92490926 0 1354.04567440 0 9668.34295932 0 226.77782077 0 -2524.83330072 0 6828
0.08050000 0.08048110 24172.21375808 0 917.51483949 0 8585.67996623 0 1215.88520531 0 -1272.46478513 0 7147
0.08150000 0.08149960 23257.30755832 0 206.95503765 0 8520.03215238 0 2068.12204660 0 -587.46212344 0 7386
0.08250000 0.08250610 23576.41195959 0 66.32355783 0 7658.94852355 0 1510.78550453 0 47.73899280 0 7227
0.08350000 0.08350160 22823.82604167 0 459.38079163 0 6687.36309304 0 1121.98081852 0 467.02955362 0 7798
0.08450000 0.08449610 22532.84534543 0 785.63459304 0 5861.02441950 0 1144.60157813 0 2063.47167018 0 7371
0.08550000 0.08548940 21946.89791603 0 41.65884707 0 5606.32773170 0 986.75119382 0 2605.53947632 0 8256
0.08650000 0.08650700 22540.37452631 0 -84.56067332 0 6029.70021579 0 -475.37808653 0 1555.65056469 0 8037
0.08750000 0.08749060 22037.13736330 0 369.47019241 0 6256.99289967 0 -217.69076379 0 2306.85244202 0 8155
0.08850000 0.08849210 21803.73275613 0 402.62626908 0 6434.03937352 0 -1612.28550614 0 1459.12203693 0 8718
0.08950000 0.08949900 21236.27610917 0 434.59096360 0 6708.83233087 0 -109.69330053 0 781.87553877 0 8571
0.09050000 0.09049190 20933.66947188 0 667.53828376 0 6531.54226587 0 782.75468136 0 937.08074468 0 8932
0.09150000 0.09150830 19988.42510211 0 902.43322586 0 6383.79316349 0 345.45653434 0 -86.97809400 0 9285
0.09250000 0.09250820 19412.88565804 0 729.93969197 0 5610.04803284 0 788.86992635 0 -17.66534063 0 9204
0.09350000 0.09350330 18868.12727696 0 631.50118817 0 5366.41259753 0 -248.58365727 0 -916.94793646 0 9349
0.09450000 0.09448040 18281.18333832 0 550.44512710 0 5776.24362837 0 -544.23466011 0 553.59520352 0 9564
0.09550000 0.09549270 18255.16337500 0 -66.18814330 0 5587.91445553 0 -76.76509231 0 -421.61419891 0 10155
0.09650000 0.09649430 17852.13075160 0 -9.80624876 0 5654.91309300 0 583.66874496 0 -444.18624028 0 9913
0.09750000 0.09749140 18247.96636387 0 -152.96970353 0 5175.32641581 0 784.32805871 0 -530.17280759 0 10476
0.09850000 0.09850240 18199.91247415 0 -171.21910930 0 5054.57164134 0 557.64767440 0 17.83762601 0 10575
0.09950000 0.09950330 18332.00530924 0 233.42343013 0 5139.35243247 0 976.51261506 0 -52.70891651 0 10882
0.10050000 0.10051200 18028.95577895 0 113.89214755 0 4397.96063494 0 1251.20592148 0 446.86463566 0 10875
0.10150000 0.10150300 17709.62993118 0 348.91885031 0 4226.08493678 0 9.81622493 0 779.61899897 0 11118
0.10250000 0.10250800 17422.41382539 0 552.53668926 0 4099.41754086 0 11.76932767 0 701.41073984 0 11575
0.10350000 0.10349800 17178.26906314 0 533.83442541 0 4572.62655895 0 -1083.26311310 0 958.46251114 0 11364
0.10450000 0.10450100 16715.44588572 0 268.93348306 0 5072.92955589 0 -944.00316216 0 427.92099513 0 12093
0.10550000 0.10551000 16489.12756642 0 111.15396162 0 5276.54960930 0 -534.91065538 0 546.59527976 0 12067
0.10650000 0.10649700 16519.90862942 0 347.22146292 0 5859.15319661 0 -199.95068497 0 -100.53017668 0 12054
0.10750000 0.10749900 16502.74652595 0 164.82705618 0 5891.44009578 0 300.78081093 0 -171.40069543 0 12807
0.10850000 0.10850100 16158.72939384 0 252.70145487 0 5729.79522575 0 593.25848548 0 425.06433532 0 12736
0.10950000 0.10950300 16180.87404347 0 193.12238225 0 5994.12483615 0 821.86877601 0 255.00560567 0 12933
0.11050000 0.11050200 16053.43158481 0 48.99603383 0 5346.84779957 0 414.28874881 0 304.92075318 0 13428
0.11150000 0.11150900 15878.93174567 0 442.32830418 0 5439.12455461 0 374.40069865 0 1054.87035056 0 13453
0.11250000 0.11250000 15626.15057006 0 480.14582960 0 5239.77841858 0 12.57362134 0 1589.72010816 0 13668
0.11350000 0.11349100 15120.03460260 0 403.65931698 0 5147.54595284 0 557.99645263 0 1534.25883315 0 13791
0.11450000 0.11448600 14655.10768346 0 308.04979217 0 5221.15476823 0 578.78695694 0 1390.24110423 0 14205
0.11550000 0.11549300 14739.03590559 0 85.67842451 0 4220.68164227 0 344.75344172 0 345.77984623 0 14776
0.11650000 0.11649800 14331.79579876 0 255.35992006 0 4221.48992198 0 32.38732516 0 511.52922706 0 14553
0.11750000 0.11747300 14031.62507293 0 359.67561387 0 3767.80141254 0 -272.54084648 0 18.83081354 0 14568
0.11850000 0.11849100 13754.48478272 0 318.99146356 0 4143.07571762 0 -513.42370184 0 -345.18858408 0 16015
0.11950000 0.11950300 13727.46831016 0 35.38770374 0 4167.84450823 0 -62.64411357 0 -404.16200053 0 15270
0.12050000 0.12050700 13636.89669314 0 -94.27309520 0 4106.55919036 0 422.64946128 0 -580.26732677 0 15999
0.12150000 0.12150000 13722.37504074 0 46.32262100 0 4189.03693794 0 308.82374768 0 494.71479459 0 15670
0.12250000 0.12250700 13712.74211815 0 -23.33392805 0 4104.62153352 0 703.28306997 0 18.12163114 0 16887
0.12350000 0.12352200 13845.27784623 0 4.66933224 0 3850.37881103 0 813.20025291 0 1013.40781582 0 16407
0.12450000 0.12449800 13608.10864861 0 53.62160825 0 3566.82764475 0 266.52303794 0 420.40399381 0 16306
0.12550000 0.12549900 13693.03337997 0 52.51581517 0 3484.48276508 0 342.05954509 0 412.62125669 0 17523
0.12650000 0.12650100 13578.76698784 0 140.67277959 0 3649.78150230 0 -127.16675777 0 533.20551736 0 17154
0.12750000 0.12750600 13433.49808622 0 307.66336804 0 3277.09812122 0 -174.71353501 0 685.09566922 0 18007
0.12850000 0.12850300 13127.68047473 0 432.31117192 0 3352.94354623 0 142.52850123 0 959.44019742 0 17496
0.12950000 0.12949900 13058.92133761 0 107.89061533 0 3236.83914818 0 -152.12267068 0 499.49028829 0 18405
0.13050000 0.13049000 12960.48836997 0 29.03628605 0 3387.77708011 0 373.34993502 0 479.73172465 0 18100
0.13150000 0.13148800 12769.38004360 0 267.12869411 0 3680.98331363 0 -92.30565381 0 309.74053617 0 19059
0.13250000 0.13249300 12655.00292822 0 231.05838155 0 3761.16908997 0 -160.91631105 0 534.27842564 0 18957
0.13350000 0.13349100 12502.09412248 0 123.45420726 0 3536.13516036 0 148.85633486 0 651.06487889 0 19468
0.13450000 0.13450700 12447.39683787 0 121.04486938 0 3687.18381553 0 22.18229554 0 269.20143332 0 19953
0.13550000 0.13551000 12410.52599623 0 195.98457822 0 3678.70241472 0 -42.39216714 0 -9.31385141 0 19956
0.13650000 0.13649900 12057.76172751 0 313.47744580 0 3714.54353016 0 103.38296117 0 -25.46834010 0 19723
0.13750000 0.13749600 11919.46839052 0 99.13019193 0 3139.75700417 0 295.30554631 0 -539.52560037 0 20946
0.13850000 0.13851100 11819.04240442 0 139.19905316 0 3120.87869036 0 8.75122229 0 -1008.71425733 0 20955
0.13950000 0.13949800 11465.28162646 0 310.58203286 0 3289.46590805 0 -232.75687618 0 -1071.57516702 0 20506
0.14050000 0.14048300 11374.26711645 0 315.31323726 0 3265.32823994 0 92.15053054 0 -1028.75073632 0 21447
0.14150000 0.14148400 11086.60811766 0 14.29293194 0 3040.73720332 0 184.82810373 0 -785.97229895 0 21771
0.14250000 0.14249400 11245.82814855 0 30.85712987 0 2982.14246038 0 230.64206213 0 -880.76690065 0 22470
0.14350000 0.14350900 11075.31434635 0 210.68751835 0 3036.70687709 0 135.11336530 0 -895.59052912 0 22519
0.14450000 0.14449900 10908.44333901 0 335.44825994 0 2821.19514682 0 -48.23215414 0 -457.06889021 0 22218
0.14550000 0.14550500 10544.71746871 0 299.69240140 0 2750.54264215 0 245.39482772 0 54.48137427 0 23559
0.14650000 0.14650700 10541.78330264 0 -13.27383516 0 2716.20736289 0 33.18464327 0 -587.43665709 0 23044
0.14750000 0.14750500 10522.24064933 0 -17.80584843 0 2689.56734937 0 443.06461378 0 -903.02338077 0 23649
0.14850000 0.14849900 10513.10598136 0 154.49436266 0 2681.22988878 0 -95.57752579 0 -909.10651602 0 23640
0.14950000 0.14949500 10400.85475234 0 198.25219034 0 2740.62183911 0 -396.94395198 0 -648.33112190 0 24457
0.15050000 0.15050000 10174.66930095 0 268.63342305 0 2826.50986273 0 -292.48099625 0 -550.42298245 0 24591
0.15150000 0.15149900 10128.96274410 0 125.30107104 0 3070.01243014 0 138.78384097 0 -252.72581399 0 25020
0.15250000 0.15250500 9978.57842841 0 59.81192361 0 3032.27794716 0 313.04119620 0 -602.64338800 0 25297
0.15350000 0.15350100 9954.39647101 0 47.11694959 0 3003.40132403 0 536.46078086 0 -346.33014077 0 25452
0.15450000 0.15450400 9917.78029283 0 64.94981449 0 3046.55017385 0 500.21331110 0 -57.68160831 0 26061
0.15550000 0.15549900 9652.08878648 0 203.65991378 0 2558.92498884 0 195.56825881 0 272.80436781 0 26128
0.15650000 0.15649500 9556.47926167 0 314.00338123 0 2846.13002231 0 16.24586859 0 200.33378741 0 26331
0.15750000 0.15749700 9233.02343675 0 285.46114231 0 2727.40148328 0 203.17273149 0 438.58696562 0 27345
0.15850000 0.15849900 9023.61255745 0 250.66303987 0 2840.51635363 0 -90.22826422 0 574.73780776 0 26980
0.15950000 0.15949700 8897.37698219 0 48.83205270 0 2693.75268815 0 163.60245706 0 865.11063336 0 27777
0.16050000 0.16050000 8992.04535939 0 -10.57061564 0 2813.97599103 0 19.85921107 0 531.69968119 0 28224
0.16150000 0.16150500 8951.58708451 0 41.42278510 0 2671.10978390 0 107.22173619 0 715.74607879 0 28075
0.16250000 0.16249700 8908.47145166 0 199.84328342 0 2757.93895513 0 11.79202593 0 487.22768855 0 28590
0.16350000 0.16349900 8717.51813784 0 81.72505093 0 2737.10083982 0 -55.70309459 0 561.30707775 0 29163
0.16450000 0.16449100 8677.65776849 0 148.20417493 0 2628.73599682 0 34.23175303 0 728.92768148 0 28996
0.16550000 0.16550500 8720.72911204 0 -13.26453441 0 2760.69596401 0 111.70204170 0 608.31574000 0 30777
0.16650000 0.16650700 8580.45382891 0 101.73108103 0 2475.51716598 0 327.87036083 0 780.11614635 0 29211
0.16750000 0.16749900 8593.09842385 0 60.63625819 0 2320.01743623 0 282.32878162 0 500.53883745 0 30922
0.16850000 0.16850800 8549.39595779 0 -48.68534440 0 2143.97854393 0 197.13831447 0 547.56964435 0 30867
0.16950000 0.16949900 8513.72092723 0 85.59870377 0 2193.36111262 0 118.83926228 0 172.01410222 0 30852
0.17050000 0.17049200 8389.91019111 0 117.83278795 0 1834.66207780 0 147.46454363 0 466.40839620 0 31257
0.17150000 0.17149500 8339.25430506 0 120.41596133 0 1852.69889493 0 35.57814772 0 303.34073243 0 32608
0.17250000 0.17250900 8122.46925744 0 160.25086433 0 1828.38406963 0 -82.65590128 0 278.96168764 0 32361
0.17350000 0.17350400 8091.65497747 0 158.84357185 0 1938.59799087 0 38.91612149 0 60.52752796 0 32508
0.17450000 0.17449800 7915.29498776 0 158.33645937 0 1797.85767010 0 -18.37352653 0 220.15657053 0 32791
0.17550000 0.17549800 7901.88640240 0 99.78678079 0 1928.98721293 0 -62.31637276 0 3.62145850 0 33633
0.17650000 0.17650100 7876.70793576 0 -31.37088574 0 1939.94881450 0 -53.97547975 0 137.51495255 0 33984
0.17750000 0.17750300 7873.71840806 0 48.72354392 0 2006.01737669 0 61.47155437 0 115.68032801 0 34069
0.17850000 0.17849800 7792.59148412 0 145.60660753 0 1998.23353235 0 156.49070282 0 104.25357807 0 34536
