### header ###
fiducial parameters:
Omega_m = 0.31
Omega_nu = 0
Omega_de = 0.69
Omega_k = 0
H_0 = 100
w_de = -1
zeff = 0
beta = 0
fgrowth = 0
b_1 = 2
gamma = 0.55
Lx = 3500 Ly = 3500 Lz = 3500
nx = 700 ny = 700 nz = 700
xoffset = -685.467585 yoffset = -31.7331281 zoffset = 572.489161
bins = 400 dk = 0.001
kx_ny = 0.628318531 ky_ny = 0.628318531 kz_ny = 0.628318531
############################
A(data) = 8.03769915 (not used)
A(ran) = 8.02921387 (used)
Ngal = 476914
weighted Ngal = 0
Nran = 23820508
weighted Nran = 0
SN(data) = 3497.56593
SN(ran) = 69.9373648
SN(data+ran) = 3567.5033
############################
13 columns: k_central k_mean P_0(k) sigma^{lin}_{P_0(k)} P^img_1(k) sigma^{lin}_{P_1(k)} P_2(k) sigma^{lin}_{P_2(k)} P^img_3(k) sigma^{lin}_{P_3(k)} P_4(k) sigma^{lin}_{P_4(k)} N_modes
### header ###
0.00050000 0 0 0 0 0 0 0 0 0 0 0 0
0.00150000 0.00179520 236.00771074 0 -619.19208467 0 -9834.39461462 0 18929.91084945 0 28032.80125260 0 3
0.00250000 0.00253879 11651.85029965 0 -16092.07399843 0 -2460.72454002 0 -19701.76261255 0 14689.54261365 0 6
0.00350000 0.00331552 19617.61294393 0 -17546.31314011 0 -17253.89304165 0 1638.20581854 0 -46046.47722330 0 7
0.00450000 0.00420575 44118.78547238 0 -21226.86463308 0 -6799.94649180 0 -25533.44537129 0 -5988.93191581 0 24
0.00550000 0.00557378 58898.23536356 0 -8569.01611737 0 698.33484801 0 -22480.58397229 0 12653.34207950 0 45
0.00650000 0.00659388 70503.36045247 0 1957.08877332 0 17301.39331512 0 -6472.60428086 0 12597.53756241 0 40
0.00750000 0.00754703 66913.15913003 0 -6213.56724173 0 7758.54408530 0 -590.92443941 0 -20705.80102711 0 57
0.00850000 0.00846663 69699.73111714 0 4595.98916432 0 17581.96602602 0 8411.20227173 0 -6661.58672086 0 75
0.00950000 0.00948925 59865.95655271 0 1978.12619048 0 7272.59082133 0 -7953.29520653 0 -23713.26589435 0 112
0.01050000 0.01054430 70088.25899502 0 6300.38534063 0 23489.38348652 0 -22174.76636080 0 -12210.78125650 0 105
0.01150000 0.01145670 60781.19492221 0 8104.19992149 0 31484.59851481 0 -22554.21493233 0 -20995.89593736 0 144
0.01250000 0.01249090 62461.30949020 0 -687.13297699 0 47490.52982615 0 -30160.45918975 0 -20945.40613619 0 169
0.01350000 0.01339930 59925.85782997 0 -6155.36003016 0 48935.68966148 0 -22599.27929435 0 -26477.91467832 0 180
0.01450000 0.01448870 80332.37391724 0 -11375.48507218 0 61425.27205692 0 5859.30820916 0 -42418.18710348 0 267
0.01550000 0.01550050 82331.26071675 0 -7511.40979535 0 51654.94191369 0 3461.35267853 0 -7381.13282153 0 238
0.01650000 0.01653350 93933.39627796 0 3605.08252700 0 59983.98753527 0 12556.45923734 0 -18142.77927809 0 315
0.01750000 0.01747870 92726.18070299 0 1030.69835825 0 49506.91089888 0 3820.50567867 0 -6494.73785817 0 297
0.01850000 0.01844180 92461.21997008 0 3221.78078643 0 53152.58456866 0 14486.69762297 0 -24842.75374910 0 388
0.01950000 0.01947590 85818.04652539 0 2397.85587970 0 44691.99972824 0 11500.82378913 0 -3843.51396965 0 399
0.02050000 0.02045430 86310.43281007 0 1220.03732712 0 38477.54670053 0 2203.66944703 0 -3885.30092351 0 462
0.02150000 0.02154770 85779.07194202 0 2191.83313180 0 40133.52360040 0 8899.13748184 0 -4038.61940528 0 571
0.02250000 0.02255340 83336.84925678 0 -154.69920067 0 36923.65663548 0 11979.70183753 0 -3004.92930486 0 510
0.02350000 0.02348930 77485.67920636 0 10627.59381998 0 21286.98735684 0 10286.80980671 0 -7717.13359048 0 555
0.02450000 0.02439640 71988.15921066 0 4867.17254378 0 19880.91282812 0 8849.02413971 0 -1132.73204592 0 592
0.02550000 0.02547300 70941.49234555 0 -4726.13327024 0 12747.56756371 0 10717.04713219 0 -7211.57123926 0 837
0.02650000 0.02652900 72563.03431524 0 -1086.95794789 0 12994.48040716 0 771.42658583 0 -645.17440209 0 723
0.02750000 0.02749970 71201.80270204 0 2118.57863080 0 9256.35282514 0 2723.73654376 0 -2875.38310448 0 826
0.02850000 0.02848090 70968.17664836 0 2162.30324151 0 10703.56104056 0 -4422.37511117 0 14051.99815059 0 831
0.02950000 0.02946900 68974.38311827 0 2461.52174741 0 13771.75760943 0 1438.69359764 0 7982.10539571 0 996
0.03050000 0.03053250 68944.70928775 0 4335.74524178 0 22154.17183664 0 -6213.99906240 0 5481.47619704 0 1041
0.03150000 0.03150510 62683.53104931 0 5693.01296270 0 20764.59507190 0 -655.95109584 0 9679.29348856 0 1036
0.03250000 0.03246190 58891.14907567 0 5487.86492846 0 21522.05281274 0 -1021.29131109 0 6629.99737816 0 1059
0.03350000 0.03345080 56705.36143322 0 707.99323695 0 22704.02348713 0 -294.02226386 0 10521.65381612 0 1302
0.03450000 0.03451200 58761.04925905 0 -1426.50296801 0 23559.13913287 0 7778.45212532 0 -3646.36015393 0 1339
0.03550000 0.03553350 55418.31439630 0 749.42144749 0 19133.64162611 0 456.92605722 0 3139.26982188 0 1365
0.03650000 0.03647120 56069.92071188 0 2836.48602739 0 18004.48594110 0 2972.64240569 0 -4078.18082185 0 1308
0.03750000 0.03744890 55097.77059280 0 216.12070814 0 19720.91773449 0 -82.20182524 0 1835.16033242 0 1579
0.03850000 0.03847530 53471.57824669 0 2282.44903812 0 20503.95254567 0 3142.18184331 0 870.74201776 0 1662
0.03950000 0.03950240 52797.71655823 0 1729.33105180 0 20560.75357199 0 473.79806578 0 5186.56482550 0 1683
0.04050000 0.04050350 50409.85898784 0 1196.88509592 0 22236.21776354 0 6233.13203968 0 6760.39614755 0 1822
0.04150000 0.04152450 51694.35939005 0 899.13478029 0 21842.15372325 0 -799.01549759 0 4621.65481325 0 1887
0.04250000 0.04250150 47074.76402921 0 2036.14517252 0 19732.21150581 0 1900.96315881 0 5478.36487377 0 1920
0.04350000 0.04349210 45059.26874247 0 3112.03190283 0 18035.93134359 0 -1353.19310539 0 2716.01913336 0 2005
0.04450000 0.04448520 42709.38924621 0 2186.68450076 0 14892.71977407 0 1063.21334732 0 -2163.83122233 0 2151
0.04550000 0.04548030 41105.00937999 0 1795.15602285 0 14076.13581870 0 1822.98077512 0 -5130.70494679 0 2274
0.04650000 0.04648670 39774.22666004 0 -20.78076067 0 11832.99353369 0 -193.24639229 0 -9936.76932990 0 2311
0.04750000 0.04749250 38442.89032384 0 818.11636513 0 10160.10919381 0 413.97540202 0 -8443.02413326 0 2568
0.04850000 0.04851840 38398.60102457 0 1409.55123871 0 11739.76455871 0 -1095.21125881 0 -6752.04761463 0 2493
0.04950000 0.04949480 36894.64714445 0 1736.81594338 0 9987.66880709 0 435.17336788 0 -2516.16367039 0 2644
0.05050000 0.05050630 36619.38914946 0 1199.05527159 0 12268.13589906 0 2099.09133912 0 -263.21352005 0 2829
0.05150000 0.05149060 35028.84968926 0 1003.24895780 0 11853.80950435 0 1700.80874307 0 3174.60161038 0 2784
0.05250000 0.05249300 36245.36601709 0 -1262.87615184 0 11777.41046310 0 4449.97841694 0 2803.43513781 0 3055
0.05350000 0.05348950 35350.27927875 0 -641.49285409 0 11806.64140062 0 2715.78661454 0 4392.33589393 0 3009
0.05450000 0.05448610 36783.14883353 0 -239.86641594 0 10506.50687576 0 1171.87271416 0 1858.96583078 0 3336
0.05550000 0.05550870 37322.14960570 0 -1277.15945086 0 8965.66000935 0 -977.30650075 0 1378.07261925 0 3349
0.05650000 0.05647670 38110.72057928 0 976.47939808 0 9460.82544757 0 -2742.74772548 0 -568.02022829 0 3324
0.05750000 0.05747970 36644.74477330 0 1244.95005796 0 9957.16455221 0 -2428.43764085 0 51.98788672 0 3639
0.05850000 0.05849280 36289.43386987 0 1562.57076771 0 9742.28394446 0 -764.52742024 0 -3018.02786512 0 3846
0.05950000 0.05951020 34508.45042279 0 766.47836387 0 11082.95425047 0 530.92683291 0 -5785.56652586 0 3787
0.06050000 0.06049470 34243.26824338 0 1223.99014708 0 10831.57926011 0 1333.97154950 0 -5731.92111212 0 3930
0.06150000 0.06148310 32265.97247727 0 1596.70674512 0 9702.66716625 0 538.87233320 0 -6553.23295019 0 4083
0.06250000 0.06249100 31567.86239745 0 1024.70490883 0 10847.35732298 0 167.34711731 0 -4498.47519964 0 4303
0.06350000 0.06350600 30523.85289030 0 567.87628807 0 10491.95784095 0 -1336.30781004 0 -4101.02302795 0 4470
0.06450000 0.06451750 29981.86259043 0 1375.68099709 0 11620.95851341 0 -331.74678175 0 -4387.63015588 0 4479
0.06550000 0.06550280 29473.31071151 0 810.63036632 0 11259.33638483 0 -1089.42818356 0 -4052.09442458 0 4636
0.06650000 0.06648880 29323.50215671 0 155.16313108 0 12469.76293401 0 -478.38865165 0 -2186.23053544 0 4653
0.06750000 0.06749660 29375.32063686 0 344.16550127 0 13317.79229187 0 533.94625589 0 -2427.00931095 0 5220
0.06850000 0.06852730 29007.83017613 0 20.10213788 0 12975.87890147 0 2262.17561137 0 -2002.93927039 0 5029
0.06950000 0.06949320 29154.98137297 0 -6.38749132 0 12569.52458062 0 1466.45191596 0 -3507.52427303 0 5040
0.07050000 0.07048030 29091.86912150 0 532.44484865 0 12802.04340182 0 949.09643157 0 -3398.53937984 0 5475
0.07150000 0.07148790 28354.89518157 0 288.59350300 0 12439.75693375 0 516.33461604 0 -36.00598235 0 5509
0.07250000 0.07249820 28307.94852434 0 443.01921725 0 11563.60387085 0 1955.18433345 0 -791.24604726 0 5916
0.07350000 0.07351270 27749.68190699 0 657.89871777 0 11350.57234134 0 570.58347148 0 -359.26815232 0 5721
0.07450000 0.07449140 28082.18382129 0 949.52493054 0 10155.12664764 0 1368.67221548 0 -1224.98665631 0 6028
0.07550000 0.07549160 26169.66115537 0 646.41782417 0 9601.63220228 0 -293.18851780 0 942.08100657 0 6183
0.07650000 0.07648840 25983.75682166 0 695.52912090 0 10623.05416680 0 1363.53465677 0 -1093.76521319 0 6330
0.07750000 0.07749960 25202.05068947 0 94.08309411 0 8526.95235539 0 643.81582783 0 -486.37069061 0 6583
0.07850000 0.07848650 25069.18279164 0 310.97067146 0 8750.89012484 0 1985.82145622 0 -2445.36722550 0 6549
0.07950000 0.07947320 24383.14154588 0 133.67728477 0 7585.60544396 0 652.00491927 0 -1535.88646489 0 6828
0.08050000 0.08048110 24757.71829449 0 185.48579983 0 7350.98288105 0 158.36303295 0 -263.11719083 0 7147
0.08150000 0.08149960 24569.37804933 0 -74.86231329 0 7222.16745411 0 1269.46418511 0 1499.81283063 0 7386
0.08250000 0.08250610 24378.82333920 0 -609.97880319 0 7220.41802679 0 1650.73969024 0 1133.98321863 0 7227
0.08350000 0.08350160 25285.97891159 0 65.12918616 0 7568.62049768 0 133.21446159 0 1097.10684082 0 7798
0.08450000 0.08449610 24939.41514477 0 1214.76690050 0 7744.54866673 0 -327.24145278 0 1909.03488361 0 7371
0.08550000 0.08548940 23788.44697987 0 1243.52172806 0 8590.67358472 0 -1011.69714163 0 2735.73894387 0 8256
0.08650000 0.08650700 23174.92946167 0 1009.36641726 0 9146.68144781 0 -1058.91949975 0 2466.12783453 0 8037
0.08750000 0.08749060 22801.90283853 0 469.46546508 0 9789.36346958 0 -111.36433579 0 2012.73827786 0 8155
0.08850000 0.08849210 21689.68781049 0 829.00267489 0 8978.60355706 0 470.01686685 0 -927.03814607 0 8718
0.08950000 0.08949900 21769.40854919 0 -88.04435888 0 9028.47330805 0 -308.65212664 0 -170.29789187 0 8571
0.09050000 0.09049190 21443.32858328 0 -32.05072648 0 8831.98383182 0 861.15449170 0 28.62129532 0 8932
0.09150000 0.09150830 21338.80583699 0 164.74179928 0 8629.62602343 0 127.52550110 0 -1058.32823761 0 9285
0.09250000 0.09250820 21282.55842691 0 322.62650780 0 8771.73931248 0 1306.05821863 0 -32.17739388 0 9204
0.09350000 0.09350330 20756.73372128 0 473.82242489 0 8235.53983849 0 1175.39371345 0 -312.29492151 0 9349
0.09450000 0.09448040 20117.08551650 0 934.90835455 0 7860.06623156 0 1125.65683036 0 1121.94760155 0 9564
0.09550000 0.09549270 19525.71264794 0 360.46617787 0 7559.68513155 0 920.76235236 0 657.11701164 0 10155
0.09650000 0.09649430 18863.91979353 0 381.68739561 0 6734.19902703 0 739.77523811 0 1995.97477808 0 9913
0.09750000 0.09749140 18918.17418514 0 256.48929719 0 6030.03238553 0 646.80424830 0 676.06286664 0 10476
0.09850000 0.09850240 18349.16741271 0 480.98179012 0 5575.33629453 0 -546.86544449 0 -258.44356252 0 10575
0.09950000 0.09950330 17914.91083332 0 545.43600736 0 5548.40840057 0 16.70160548 0 -27.44962190 0 10882
0.10050000 0.10051200 17711.95511940 0 85.72559261 0 5231.15307754 0 14.52744378 0 -1211.54485398 0 10875
0.10150000 0.10150300 17697.45037388 0 -115.84419842 0 4582.86845941 0 516.26928932 0 -975.63347247 0 11118
0.10250000 0.10250800 17389.75046717 0 200.17656040 0 4921.07262100 0 911.91999376 0 -1785.23521981 0 11575
0.10350000 0.10349800 17193.77031788 0 656.31316086 0 4922.88848227 0 205.53667284 0 -652.40463020 0 11364
0.10450000 0.10450100 16692.96906634 0 768.02627488 0 4846.32335615 0 -88.73327893 0 372.35674749 0 12093
0.10550000 0.10551000 15801.09330219 0 591.00526738 0 5031.54120571 0 541.56401537 0 986.64379226 0 12067
0.10650000 0.10649700 15442.12853157 0 247.24169150 0 5013.33830371 0 589.24587497 0 1560.48917064 0 12054
0.10750000 0.10749900 15891.33274947 0 -284.23322149 0 5100.57715096 0 601.55608570 0 801.19342388 0 12807
0.10850000 0.10850100 15724.25136795 0 -125.87129577 0 4556.64919424 0 451.18062787 0 984.82239483 0 12736
0.10950000 0.10950300 15845.16115497 0 347.04873465 0 4190.34347227 0 -236.84145680 0 530.68434900 0 12933
0.11050000 0.11050200 15348.78883335 0 286.21295317 0 4040.08095215 0 -134.58964433 0 1276.18508627 0 13428
0.11150000 0.11150900 15184.36480980 0 404.61928755 0 3659.77981161 0 451.69327651 0 -140.50669472 0 13453
0.11250000 0.11250000 14974.32280799 0 -45.91327716 0 3493.20775703 0 121.02272473 0 458.21044690 0 13668
0.11350000 0.11349100 15008.31484518 0 125.09180410 0 3668.33871869 0 521.59507756 0 -571.34856913 0 13791
0.11450000 0.11448600 15008.64701492 0 47.51522111 0 3596.51254759 0 -14.90733524 0 753.82158937 0 14205
0.11550000 0.11549300 14738.92518234 0 421.78581994 0 3758.51173201 0 204.90222863 0 192.15023214 0 14776
0.11650000 0.11649800 14546.37745374 0 296.13375620 0 4065.84625201 0 100.21981942 0 1903.29941935 0 14553
0.11750000 0.11747300 14424.91405048 0 21.08358875 0 3978.91742985 0 -139.58658452 0 1073.47739242 0 14568
0.11850000 0.11849100 14471.97143096 0 -112.60222171 0 4267.90510762 0 872.19913571 0 1242.20412140 0 16015
0.11950000 0.11950300 14542.61286331 0 -102.67787553 0 4128.19451306 0 88.57760204 0 1206.01976390 0 15270
0.12050000 0.12050700 14576.49417725 0 308.70859550 0 3873.44246363 0 -132.59551863 0 1105.23946340 0 15999
0.12150000 0.12150000 14159.39970133 0 404.94149220 0 3762.05487596 0 124.75963436 0 1584.81506827 0 15670
0.12250000 0.12250700 13900.08585408 0 237.97747733 0 3713.50273163 0 89.30272859 0 1757.33296127 0 16887
0.12350000 0.12352200 13743.74462764 0 168.26058411 0 3500.73693791 0 305.92833474 0 1482.78359506 0 16407
0.12450000 0.12449800 13705.21293727 0 114.15456165 0 3363.28509761 0 877.03774165 0 1378.21655948 0 16306
0.12550000 0.12549900 13652.06577814 0 141.37033605 0 3243.29431355 0 7.46548179 0 1053.25268391 0 17523
0.12650000 0.12650100 13343.70153194 0 267.17630511 0 3682.62201771 0 -26.73091730 0 1237.63125125 0 17154
0.12750000 0.12750600 13174.29496222 0 349.30195275 0 3555.84389853 0 -685.73454237 0 757.10342645 0 18007
0.12850000 0.12850300 12843.34317339 0 150.73863008 0 3682.94311513 0 -153.24872612 0 977.96198237 0 17496
0.12950000 0.12949900 12626.98994643 0 435.48007128 0 3928.23939916 0 -252.67931022 0 22.72982200 0 18405
0.13050000 0.13049000 12574.28568030 0 301.44182872 0 3702.99509537 0 -95.27801940 0 -373.70092772 0 18100
0.13150000 0.13148800 12269.79674778 0 9.64556719 0 3658.73901307 0 -131.97103951 0 -602.66221095 0 19059
0.13250000 0.13249300 12211.99921223 0 36.52261703 0 3618.77899280 0 257.05287852 0 -287.46301864 0 18957
0.13350000 0.13349100 12360.14691830 0 11.86277809 0 3920.98702640 0 327.34996157 0 -367.52589217 0 19468
0.13450000 0.13450700 12249.09150037 0 14.16715033 0 3619.34368137 0 583.05533816 0 -308.52368768 0 19953
0.13550000 0.13551000 12318.29353049 0 225.63847855 0 4091.34581606 0 -80.83550036 0 -144.14948958 0 19956
0.13650000 0.13649900 12206.79521956 0 284.04167027 0 3665.89173491 0 -148.06134194 0 -307.19057977 0 19723
0.13750000 0.13749600 12021.99811834 0 256.01207999 0 4495.55210589 0 -663.64082542 0 536.47960381 0 20946
0.13850000 0.13851100 11826.12869230 0 284.49785005 0 4609.02129063 0 -385.06777638 0 611.72823051 0 20955
0.13950000 0.13949800 11764.78801280 0 -7.73332133 0 4702.46063978 0 368.34967314 0 739.99779184 0 20506
0.14050000 0.14048300 11608.00389337 0 92.72928095 0 4302.06322969 0 470.79746575 0 95.76475880 0 21447
0.14150000 0.14148400 11400.17635653 0 250.89555869 0 3938.24878080 0 534.45447560 0 4.34738226 0 21771
0.14250000 0.14249400 11272.18028162 0 101.16827476 0 3891.27997891 0 482.08902260 0 29.98341272 0 22470
0.14350000 0.14350900 11005.61406161 0 208.80190143 0 3339.28029741 0 427.40834649 0 404.68239980 0 22519
0.14450000 0.14449900 10913.64733167 0 237.67077393 0 3217.67295392 0 147.47893765 0 -138.62772119 0 22218
0.14550000 0.14550500 10727.52155147 0 165.97747073 0 3009.54646431 0 -9.40587350 0 267.59373175 0 23559
0.14650000 0.14650700 10602.98004191 0 23.13706211 0 3062.14000720 0 101.01038341 0 292.76887669 0 23044
0.14750000 0.14750500 10623.97316976 0 -71.45513749 0 2816.93230176 0 187.41127711 0 -261.38215753 0 23649
0.14850000 0.14849900 10627.53845836 0 7.15314258 0 2755.87950271 0 303.00745545 0 -290.91979845 0 23640
0.14950000 0.14949500 10497.01789339 0 185.01190432 0 2451.12483440 0 61.27092385 0 -359.61028716 0 24457
0.15050000 0.15050000 10387.91120463 0 227.40672882 0 2617.45329783 0 213.57628789 0 172.62308009 0 24591
0.15150000 0.15149900 10184.86691211 0 214.04354000 0 2283.77771709 0 642.85696451 0 548.44435801 0 25020
0.15250000 0.15250500 10050.27173161 0 14.97122256 0 2260.94658332 0 544.15604661 0 575.87272105 0 25297
0.15350000 0.15350100 10155.25951554 0 -23.12145013 0 2049.40981766 0 565.71939919 0 974.82962168 0 25452
0.15450000 0.15450400 9979.74102252 0 273.38898656 0 2268.11037748 0 -148.93605560 0 747.45278814 0 26061
0.15550000 0.15549900 9729.03037165 0 462.26845395 0 2236.12243107 0 -120.46025063 0 1398.61178179 0 26128
0.15650000 0.15649500 9422.61485462 0 228.91367223 0 2272.86040482 0 -223.98205876 0 1350.40287953 0 26331
0.15750000 0.15749700 9303.07803587 0 136.66127631 0 2432.96622170 0 -56.38216027 0 1217.64570496 0 27345
0.15850000 0.15849900 9193.31807995 0 95.05114747 0 2532.38462625 0 -128.43896790 0 809.96602683 0 26980
0.15950000 0.15949700 9235.99081980 0 146.44699698 0 2406.32620819 0 6.13361398 0 472.79380592 0 27777
0.16050000 0.16050000 8953.19257161 0 118.85808523 0 2490.30979194 0 -194.01259717 0 319.95364859 0 28224
0.16150000 0.16150500 9188.19159356 0 45.00401784 0 2595.85119211 0 -122.97588283 0 40.83960575 0 28075
0.16250000 0.16249700 8973.54350462 0 9.66905159 0 2545.06243816 0 -142.65804743 0 -11.70045781 0 28590
0.16350000 0.16349900 8956.56963068 0 155.78761020 0 2466.64823380 0 153.37827232 0 -229.15283445 0 29163
0.16450000 0.16449100 8932.71984302 0 -30.48598554 0 2389.47412981 0 157.40638409 0 -233.35699618 0 28996
0.16550000 0.16550500 8963.94379900 0 -51.46084406 0 2275.45132883 0 285.33602504 0 -467.97070123 0 30777
0.16650000 0.16650700 9016.90272861 0 14.42956443 0 2226.07983246 0 224.06731566 0 -171.33979764 0 29211
0.16750000 0.16749900 8877.30285730 0 142.84849142 0 2041.38238216 0 6.29727402 0 -277.07164180 0 30922
0.16850000 0.16850800 8846.02353969 0 215.54826894 0 2151.54094178 0 -51.09047479 0 138.77276865 0 30867
0.16950000 0.16949900 8580.89672190 0 235.36108697 0 2155.47161710 0 239.78226627 0 -55.60599030 0 30852
0.17050000 0.17049200 8382.32564861 0 165.74938084 0 2130.09384861 0 165.36295670 0 357.00607636 0 31257
0.17150000 0.17149500 8261.95840550 0 109.03327925 0 2003.76969476 0 293.86614408 0 53.10873816 0 32608
0.17250000 0.17250900 8219.24137635 0 130.08431536 0 2131.48896154 0 124.40974889 0 -188.79421048 0 32361
0.17350000 0.17350400 8032.77235408 0 84.52634911 0 1634.69589158 0 -72.32531150 0 -7.03714891 0 32508
0.17450000 0.17449800 8028.67559390 0 108.89587170 0 1875.82898148 0 -13.70222341 0 282.72295638 0 32791
0.17550000 0.17549800 7968.91825685 0 -17.10718474 0 1791.61287891 0 162.42546893 0 84.10194690 0 33633
0.17650000 0.17650100 7967.65601182 0 -35.88772993 0 1475.08832931 0 496.08444117 0 87.57644243 0 33984
0.17750000 0.17750300 8023.82591563 0 61.64527915 0 1485.93920764 0 219.85761776 0 1.09445945 0 34069
0.17850000 0.17849800 7898.56470495 0 145.33644280 0 1408.72081435 0 116.79974005 0 91.04008708 0 34536
