### header ###
fiducial parameters:
Omega_m = 0.31
Omega_nu = 0
Omega_de = 0.69
Omega_k = 0
H_0 = 100
w_de = -1
zeff = 0
beta = 0
fgrowth = 0
b_1 = 2
gamma = 0.55
Lx = 3500 Ly = 3500 Lz = 3500
nx = 700 ny = 700 nz = 700
xoffset = -685.467585 yoffset = -31.7331281 zoffset = 572.489161
bins = 400 dk = 0.001
kx_ny = 0.628318531 ky_ny = 0.628318531 kz_ny = 0.628318531
############################
A(data) = 8.03493418 (not used)
A(ran) = 8.03700825 (used)
Ngal = 477217
weighted Ngal = 0
Nran = 23820508
weighted Nran = 0
SN(data) = 3483.46208
SN(ran) = 70.0052566
SN(data+ran) = 3553.46734
############################
13 columns: k_central k_mean P_0(k) sigma^{lin}_{P_0(k)} P^img_1(k) sigma^{lin}_{P_1(k)} P_2(k) sigma^{lin}_{P_2(k)} P^img_3(k) sigma^{lin}_{P_3(k)} P_4(k) sigma^{lin}_{P_4(k)} N_modes
### header ###
0.00050000 0 0 0 0 0 0 0 0 0 0 0 0
0.00150000 0.00179520 18169.02068791 0 -21154.78379851 0 -1743.71400174 0 -18048.22162414 0 -26531.17256070 0 3
0.00250000 0.00253879 31953.62219413 0 -15734.77007653 0 -7561.19096773 0 3125.25225866 0 28513.34014973 0 6
0.00350000 0.00331552 40445.09882080 0 -9620.21156333 0 -2851.35615962 0 -20927.91186297 0 761.01084988 0 7
0.00450000 0.00420575 40564.79065209 0 -3452.38409543 0 -11192.79171267 0 -11379.80327886 0 15921.22802648 0 24
0.00550000 0.00557378 55087.36260747 0 -11466.72102869 0 -14801.37309432 0 1675.26488971 0 -8227.82242809 0 45
0.00650000 0.00659388 60275.74329424 0 -17623.81941384 0 -8540.59345956 0 -1411.59961880 0 -3805.27015972 0 40
0.00750000 0.00754703 75105.01864710 0 -4050.09033379 0 -20664.94414853 0 -7683.97197764 0 -34513.98658520 0 57
0.00850000 0.00846663 79258.69057957 0 -7420.55029788 0 2256.19655597 0 -40490.16318281 0 -928.87836645 0 75
0.00950000 0.00948925 76793.43745870 0 11918.47188129 0 28864.88646272 0 -35801.58723836 0 -17030.01063382 0 112
0.01050000 0.01054430 66257.67750077 0 13582.19940854 0 21804.39709562 0 -18652.32766624 0 7396.10260468 0 105
0.01150000 0.01145670 59122.00704814 0 74.56491064 0 20790.83648172 0 4216.80632858 0 -15393.29957912 0 144
0.01250000 0.01249090 59826.09618336 0 -9920.03904709 0 22987.36427924 0 18037.70291556 0 -13209.50495514 0 169
0.01350000 0.01339930 72370.26514015 0 -10317.80124388 0 23769.40258118 0 6523.64769827 0 -53477.66802534 0 180
0.01450000 0.01448870 73192.38525793 0 -630.94867916 0 7624.18142362 0 3051.08982703 0 -20844.64798034 0 267
0.01550000 0.01550050 67722.43535102 0 8458.34823081 0 -13578.10264835 0 -7615.71109514 0 6290.71920106 0 238
0.01650000 0.01653350 67149.55326491 0 1629.99015353 0 -122.85076556 0 -1552.19599935 0 539.54774502 0 315
0.01750000 0.01747870 72111.17273939 0 -5394.41450699 0 -2974.91223227 0 17923.99013967 0 -2578.05796612 0 297
0.01850000 0.01844180 72079.61661366 0 -309.58663086 0 16562.42635672 0 1153.31549776 0 -3446.98080092 0 388
0.01950000 0.01947590 72752.70323938 0 5569.71155352 0 8160.94558618 0 -3205.24980548 0 17905.72080372 0 399
0.02050000 0.02045430 73061.17820883 0 372.69556063 0 11166.77174935 0 -2253.39525779 0 19226.64915459 0 462
0.02150000 0.02154770 75051.87148797 0 -2778.54455162 0 14899.36316896 0 4574.19882908 0 18052.20766107 0 571
0.02250000 0.02255340 75192.93290616 0 -510.92024920 0 20031.49644565 0 5224.63147823 0 22429.31910838 0 510
0.02350000 0.02348930 78968.15277633 0 912.12815347 0 23666.42996037 0 1146.57245195 0 13491.07417528 0 555
0.02450000 0.02439640 74516.19241325 0 3925.74812608 0 28462.96107180 0 -2282.34938719 0 8397.43937198 0 592
0.02550000 0.02547300 73023.64302770 0 6393.89112372 0 27917.53835124 0 -5877.55540046 0 9604.09025839 0 837
0.02650000 0.02652900 67589.89962294 0 4801.71295945 0 31274.55651300 0 3623.20792273 0 16462.77543336 0 723
0.02750000 0.02749970 63054.23248423 0 1845.11435243 0 30210.50609793 0 3667.98440430 0 13454.75694987 0 826
0.02850000 0.02848090 66104.10435553 0 1731.15798540 0 28659.38411409 0 11567.25773804 0 15060.57621832 0 831
0.02950000 0.02946900 60767.46523944 0 -1256.35455252 0 17529.48320638 0 12609.16350347 0 3346.93127386 0 996
0.03050000 0.03053250 60680.54748961 0 -939.85657651 0 11390.21126419 0 7852.54812301 0 3922.91361092 0 1041
0.03150000 0.03150510 60744.76697356 0 954.98690838 0 6868.03021711 0 -61.48118730 0 -3936.53257045 0 1036
0.03250000 0.03246190 56324.36273621 0 3003.16880521 0 5274.97733918 0 -1404.36939070 0 -3496.17514009 0 1059
0.03350000 0.03345080 57625.58234890 0 4862.84326478 0 9324.44762277 0 -11208.95730691 0 799.45506888 0 1302
0.03450000 0.03451200 52790.74099359 0 2967.23911117 0 15906.05894147 0 -6327.33537924 0 -291.54095587 0 1339
0.03550000 0.03553350 51884.47120718 0 3186.10575586 0 21335.59486279 0 -1183.53187219 0 1712.05822508 0 1365
0.03650000 0.03647120 51509.11939583 0 503.60254973 0 23512.41392214 0 5610.85631255 0 1490.86639218 0 1308
0.03750000 0.03744890 48097.40394946 0 2784.64540259 0 23702.19356953 0 6774.93411003 0 4815.48693153 0 1579
0.03850000 0.03847530 48678.92244894 0 1115.32635131 0 19222.88456415 0 4227.93401503 0 -153.23101040 0 1662
0.03950000 0.03950240 47207.74265028 0 -883.42758031 0 21440.22833233 0 1462.84233807 0 -566.81666658 0 1683
0.04050000 0.04050350 46351.51977206 0 1736.63878618 0 21687.80551528 0 -3809.03475016 0 -5175.18247559 0 1822
0.04150000 0.04152450 45294.99853786 0 2630.83973853 0 18585.22937784 0 -2773.57307777 0 -6717.08121286 0 1887
0.04250000 0.04250150 44130.96502968 0 1938.68656947 0 24452.89719224 0 -4244.95217827 0 -3331.20857261 0 1920
0.04350000 0.04349210 42010.28265716 0 944.41394541 0 22894.02458102 0 2131.16786412 0 -4263.57582862 0 2005
0.04450000 0.04448520 41674.90193841 0 572.49455475 0 23277.90208248 0 4160.69178640 0 -5222.67167673 0 2151
0.04550000 0.04548030 41185.50518142 0 805.23482244 0 21320.86867079 0 5351.65318855 0 -966.23196146 0 2274
0.04650000 0.04648670 41481.46842382 0 958.76810730 0 22222.82025051 0 3562.65337830 0 -2033.46566992 0 2311
0.04750000 0.04749250 38526.59709947 0 2733.70163610 0 18576.26079474 0 1906.52146587 0 758.08000550 0 2568
0.04850000 0.04851840 37196.14654926 0 1850.37370672 0 17541.88421018 0 -340.71647209 0 283.38286694 0 2493
0.04950000 0.04949480 35779.66403521 0 711.34482967 0 16587.22836432 0 -934.56289802 0 4074.90341371 0 2644
0.05050000 0.05050630 36854.56532861 0 -734.92334537 0 16318.28159447 0 756.81443877 0 -2848.96453746 0 2829
0.05150000 0.05149060 37264.57351664 0 -1650.62896699 0 13251.46906620 0 94.28261740 0 -4590.81838863 0 2784
0.05250000 0.05249300 37262.46977493 0 182.88158903 0 14684.78151398 0 -44.06630265 0 -8411.57873078 0 3055
0.05350000 0.05348950 38795.10097632 0 35.96324318 0 14912.31778900 0 -1092.76648949 0 -9188.65663120 0 3009
0.05450000 0.05448610 38057.24125041 0 -72.52051659 0 14897.70232024 0 11.21028599 0 -9934.10089961 0 3336
0.05550000 0.05550870 36801.08599973 0 2099.32385794 0 13869.63696083 0 -416.88410175 0 -7693.94814231 0 3349
0.05650000 0.05647670 35593.64897826 0 2022.73658717 0 14949.18863065 0 332.56945549 0 -7129.46995073 0 3324
0.05750000 0.05747970 34159.78291425 0 304.07150587 0 13037.21958096 0 1554.27759642 0 -6969.37520617 0 3639
0.05850000 0.05849280 34657.26246835 0 -155.18749019 0 12451.38287481 0 2097.00974205 0 -7540.72931147 0 3846
0.05950000 0.05951020 35148.76296705 0 -818.07429030 0 10978.43150418 0 1242.38127860 0 -6610.66509902 0 3787
0.06050000 0.06049470 35485.58308803 0 -227.80643975 0 11684.40293462 0 649.68415999 0 -7974.91945690 0 3930
0.06150000 0.06148310 35543.71279333 0 -46.33015019 0 9912.69809574 0 545.76706987 0 -5350.85598116 0 4083
0.06250000 0.06249100 35053.87314335 0 640.01580596 0 11056.36959858 0 526.93747428 0 -4354.04779471 0 4303
0.06350000 0.06350600 33773.80167107 0 1524.67019985 0 11737.77154025 0 13.15015729 0 -5107.85166836 0 4470
0.06450000 0.06451750 32886.46556010 0 1891.67347829 0 12853.41898897 0 488.94722060 0 -3673.14410766 0 4479
0.06550000 0.06550280 30290.22683663 0 1713.53084428 0 13818.37209692 0 -28.53780999 0 -526.91865133 0 4636
0.06650000 0.06648880 31485.37357755 0 -44.72864912 0 12690.54509089 0 2651.05780365 0 699.90711813 0 4653
0.06750000 0.06749660 30102.21876121 0 -136.38668265 0 13352.11649881 0 2645.59914752 0 2334.38931384 0 5220
0.06850000 0.06852730 30818.93034672 0 360.18826251 0 10810.91830200 0 2387.17108625 0 923.34995467 0 5029
0.06950000 0.06949320 29950.52791119 0 880.40040670 0 12072.82008926 0 -93.76210741 0 2316.25284579 0 5040
0.07050000 0.07048030 29496.78404012 0 1086.58702501 0 10026.41087163 0 -537.43957437 0 2338.79609912 0 5475
0.07150000 0.07148790 27944.66554704 0 1470.47116987 0 10553.48674997 0 1418.20979672 0 3797.60811095 0 5509
0.07250000 0.07249820 27729.08738283 0 -9.94563826 0 9037.49725277 0 1036.79699476 0 3341.83800444 0 5916
0.07350000 0.07351270 27608.50976555 0 -551.52800047 0 8314.93947976 0 3393.19144695 0 855.99257387 0 5721
0.07450000 0.07449140 26927.89395895 0 203.86253733 0 6607.24375065 0 1298.51796543 0 -429.67263691 0 6028
0.07550000 0.07549160 26634.25590476 0 703.27421211 0 5357.65438860 0 316.77146243 0 -1335.57703660 0 6183
0.07650000 0.07648840 26112.52795930 0 391.37346536 0 4730.82793596 0 -44.41784897 0 -1175.61515994 0 6330
0.07750000 0.07749960 25908.90790589 0 -578.51347052 0 3975.89468518 0 49.57378774 0 -1996.82734709 0 6583
0.07850000 0.07848650 25873.80863621 0 505.06963276 0 5477.02512247 0 -823.85625832 0 -2465.08703600 0 6549
0.07950000 0.07947320 25990.95383279 0 544.82370779 0 3857.99657051 0 -474.92079952 0 -3513.25973728 0 6828
0.08050000 0.08048110 24953.03410429 0 758.73880883 0 5647.59428630 0 -149.62696867 0 -1914.63747997 0 7147
0.08150000 0.08149960 24736.68087734 0 400.32876168 0 5091.68607413 0 -277.48906844 0 -1536.45115346 0 7386
0.08250000 0.08250610 24467.51266100 0 182.83951420 0 6453.07269988 0 -316.27874398 0 -1291.22130338 0 7227
0.08350000 0.08350160 24151.39778742 0 738.37458902 0 6591.27745827 0 -1059.64805872 0 -2064.56783033 0 7798
0.08450000 0.08449610 23992.06703328 0 1215.77448206 0 7526.40172315 0 -1482.57322089 0 -2048.11435565 0 7371
0.08550000 0.08548940 22759.27438798 0 772.75637205 0 8395.74530629 0 -1063.00408038 0 -222.65005808 0 8256
0.08650000 0.08650700 22639.69327993 0 362.23774984 0 8924.98028797 0 561.36354661 0 -375.68508833 0 8037
0.08750000 0.08749060 22773.11479400 0 -175.23947044 0 8942.74029698 0 1903.38799795 0 -1439.69010687 0 8155
0.08850000 0.08849210 22709.89181928 0 -191.25005213 0 8113.02456437 0 811.77303024 0 -2140.10323025 0 8718
0.08950000 0.08949900 22156.38630160 0 847.14025018 0 8471.45786340 0 439.04535987 0 -864.55037372 0 8571
0.09050000 0.09049190 21767.41553072 0 1049.19910579 0 8326.49898687 0 -103.85419932 0 -90.78431638 0 8932
0.09150000 0.09150830 20942.30588524 0 611.13475390 0 8207.38291647 0 391.52072728 0 1043.01521238 0 9285
0.09250000 0.09250820 20137.12642442 0 541.07018968 0 8310.06765684 0 259.54636607 0 -17.69866833 0 9204
0.09350000 0.09350330 20134.13689672 0 314.80058862 0 8394.01802361 0 767.33093288 0 -671.54867981 0 9349
0.09450000 0.09448040 19383.87616701 0 517.49610291 0 8795.16835179 0 -350.70481631 0 -189.29910849 0 9564
0.09550000 0.09549270 19373.57890493 0 624.03401231 0 9131.25769934 0 -17.60089970 0 -327.78399670 0 10155
0.09650000 0.09649430 18505.50863915 0 343.02062288 0 8425.61843865 0 1391.11581789 0 1555.84986654 0 9913
0.09750000 0.09749140 18348.17090348 0 521.66372597 0 7849.42572741 0 1356.35979028 0 1488.35297445 0 10476
0.09850000 0.09850240 18055.19718877 0 53.67641626 0 7171.23475994 0 929.57924461 0 1109.59088705 0 10575
0.09950000 0.09950330 18057.30093049 0 210.14497443 0 7315.23034421 0 1360.89944346 0 1182.66823085 0 10882
0.10050000 0.10051200 17493.05525773 0 617.34743536 0 6145.23992527 0 -207.24291810 0 1501.73941515 0 10875
0.10150000 0.10150300 16936.67093559 0 392.10534604 0 6714.13597445 0 -117.06769031 0 2228.87005832 0 11118
0.10250000 0.10250800 16999.45101732 0 -14.20911444 0 6349.77898165 0 174.90840793 0 910.73193331 0 11575
0.10350000 0.10349800 16759.40301525 0 -24.57690723 0 6504.48150401 0 552.59315812 0 792.23591310 0 11364
0.10450000 0.10450100 16831.26240332 0 179.72708369 0 5993.65979850 0 724.75452226 0 29.50497756 0 12093
0.10550000 0.10551000 16231.91746089 0 417.81417703 0 5410.70189680 0 134.72915563 0 645.84759944 0 12067
0.10650000 0.10649700 16251.73692231 0 248.01011085 0 5406.73800452 0 519.36511134 0 609.41190016 0 12054
0.10750000 0.10749900 15993.64103079 0 98.94738785 0 5321.70254991 0 -35.20401387 0 1077.63837209 0 12807
0.10850000 0.10850100 15826.44892603 0 544.79159805 0 5592.35445778 0 -117.00900699 0 475.09020609 0 12736
0.10950000 0.10950300 15615.41041499 0 340.60353437 0 5840.47418464 0 -522.45982613 0 1488.08723865 0 12933
0.11050000 0.11050200 15304.61025733 0 210.04310904 0 6299.88708601 0 8.63200657 0 1135.62192270 0 13428
0.11150000 0.11150900 15084.27099343 0 120.17347742 0 6138.28650529 0 861.00833701 0 1508.18350820 0 13453
0.11250000 0.11250000 15240.83366637 0 -109.00980592 0 5646.64206636 0 1335.36666243 0 1751.22103797 0 13668
0.11350000 0.11349100 15098.33284595 0 -79.35601631 0 4785.71345009 0 1753.87839592 0 1626.76810701 0 13791
0.11450000 0.11448600 14955.61057904 0 232.86317049 0 3858.58340373 0 1661.74558111 0 1653.76243491 0 14205
0.11550000 0.11549300 14771.03492432 0 27.54584041 0 3028.15904233 0 610.53906282 0 1175.53765367 0 14776
0.11650000 0.11649800 14498.32356403 0 117.42532640 0 2511.60187256 0 330.40481598 0 1514.42829940 0 14553
0.11750000 0.11747300 14440.63675173 0 403.46665853 0 2541.07640123 0 -634.89153403 0 555.44871069 0 14568
0.11850000 0.11849100 14219.30097860 0 59.87326429 0 2465.29741017 0 -699.63031001 0 242.99766940 0 16015
0.11950000 0.11950300 14132.16178228 0 281.06764382 0 2909.75160072 0 -729.63298857 0 -125.55241282 0 15270
0.12050000 0.12050700 14076.68943494 0 94.66726997 0 2788.85288602 0 -377.99920422 0 -651.57309860 0 15999
0.12150000 0.12150000 13817.04341794 0 188.83960701 0 3333.24588038 0 -185.55112654 0 -791.88049147 0 15670
0.12250000 0.12250700 13808.40700458 0 399.28685591 0 3358.00359867 0 -282.19148479 0 -1183.78653566 0 16887
0.12350000 0.12352200 13297.86210719 0 446.18147322 0 3358.43541934 0 170.32225099 0 -569.85491251 0 16407
0.12450000 0.12449800 13228.21718408 0 186.86098257 0 3203.57788443 0 266.01038930 0 -1191.68110326 0 16306
0.12550000 0.12549900 13065.34328600 0 -109.13746983 0 3173.00719560 0 359.03784796 0 -921.40343997 0 17523
0.12650000 0.12650100 13296.42270497 0 15.34214544 0 3096.75209458 0 53.44755130 0 -1439.19185225 0 17154
0.12750000 0.12750600 13252.46557544 0 95.60343503 0 3471.57243434 0 -691.11458500 0 -1351.79799246 0 18007
0.12850000 0.12850300 13092.02758882 0 463.46758672 0 3648.55247424 0 -545.34410706 0 -1131.24835440 0 17496
0.12950000 0.12949900 12807.35811773 0 393.42073822 0 3829.50747875 0 -292.86409869 0 -799.13618593 0 18405
0.13050000 0.13049000 12715.78999148 0 91.71461311 0 4202.20193215 0 99.91776640 0 -495.37691962 0 18100
0.13150000 0.13148800 12512.83427755 0 115.65596889 0 4326.03481292 0 727.30558590 0 -531.09402502 0 19059
0.13250000 0.13249300 12488.03226996 0 154.93614842 0 3724.58612877 0 1196.01038226 0 -93.88644962 0 18957
0.13350000 0.13349100 12286.95885125 0 88.37796802 0 3568.37777023 0 797.72667898 0 -148.13884821 0 19468
0.13450000 0.13450700 12043.03553550 0 -8.15322818 0 3101.02601196 0 681.56249037 0 541.84746688 0 19953
0.13550000 0.13551000 12101.71885704 0 195.02239319 0 2915.01095501 0 475.29725856 0 54.75641082 0 19956
0.13650000 0.13649900 11918.58260454 0 257.03184111 0 2617.45329783 0 -3.11987111 0 486.64971320 0 19723
0.13750000 0.13749600 11677.75953973 0 183.68876151 0 2909.70731142 0 -544.84917414 0 623.03971755 0 20946
0.13850000 0.13851100 11469.48910989 0 231.37837174 0 2896.28765374 0 -51.78360233 0 747.79492297 0 20955
0.13950000 0.13949800 11561.50012913 0 137.68878805 0 3390.36800412 0 -96.64345850 0 647.72989466 0 20506
0.14050000 0.14048300 11315.91596466 0 64.18726348 0 3419.70966489 0 105.97942134 0 805.92794997 0 21447
0.14150000 0.14148400 11261.88301954 0 365.09994580 0 3671.58290986 0 -108.10840796 0 601.93475921 0 21771
0.14250000 0.14249400 11054.44301406 0 401.59322117 0 3801.89310065 0 -76.43757294 0 1016.40620138 0 22470
0.14350000 0.14350900 10746.66560108 0 210.26234107 0 4043.34728797 0 -84.61924592 0 1262.26717398 0 22519
0.14450000 0.14449900 10773.63778434 0 68.26852241 0 4232.73940400 0 -202.33012757 0 761.43713438 0 22218
0.14550000 0.14550500 10445.18834092 0 164.11289123 0 4186.42386928 0 -17.34767563 0 1311.19577735 0 23559
0.14650000 0.14650700 10684.36162933 0 22.12471945 0 4363.00530549 0 124.64226772 0 1273.83775341 0 23044
0.14750000 0.14750500 10668.70536203 0 -139.40721286 0 4011.18218438 0 402.51111690 0 861.23864137 0 23649
0.14850000 0.14849900 10707.43635425 0 46.87955894 0 4197.38547085 0 235.93131170 0 966.04594640 0 23640
0.14950000 0.14949500 10573.02940327 0 162.40664597 0 3719.84717375 0 2.77879922 0 496.75099513 0 24457
0.15050000 0.15050000 10376.66172262 0 165.14040297 0 3972.09687777 0 -93.95565165 0 750.93724876 0 24591
0.15150000 0.15149900 10316.25111841 0 170.71864022 0 3690.77124877 0 358.73225180 0 560.26517199 0 25020
0.15250000 0.15250500 10200.36816685 0 96.34450573 0 3555.30135462 0 250.09835131 0 363.31730151 0 25297
0.15350000 0.15350100 9951.18549681 0 233.57290651 0 3304.54641445 0 202.62132972 0 324.16777541 0 25452
0.15450000 0.15450400 9943.41272479 0 241.52062127 0 3253.31476751 0 79.69394367 0 169.14526286 0 26061
0.15550000 0.15549900 9465.43153469 0 300.00464096 0 3089.18969673 0 112.32209189 0 381.69736071 0 26128
0.15650000 0.15649500 9538.90748219 0 93.46957659 0 2983.47113936 0 377.70025145 0 362.75039848 0 26331
0.15750000 0.15749700 9339.68314173 0 -44.23548778 0 2940.41086814 0 236.30334181 0 284.23322149 0 27345
0.15850000 0.15849900 9369.56734641 0 152.44708980 0 2682.43677219 0 213.18211313 0 -119.93542244 0 26980
0.15950000 0.15949700 9156.10399623 0 177.23138167 0 2866.11556861 0 28.75770636 0 197.27450406 0 27777
0.16050000 0.16050000 9068.57726854 0 192.12587302 0 2558.99142279 0 66.67333257 0 167.77561628 0 28224
0.16150000 0.16150500 9049.64359310 0 -36.92033494 0 2891.81443451 0 -0.95255210 0 -6.69262245 0 28075
0.16250000 0.16249700 9045.13715690 0 -66.38733442 0 2697.20725350 0 -23.30458639 0 -126.47252301 0 28590
0.16350000 0.16349900 9095.25049903 0 111.23146790 0 3018.65898763 0 -116.97800448 0 -61.19264251 0 29163
0.16450000 0.16449100 8992.45503541 0 230.49812191 0 3079.05851952 0 -416.63165274 0 -314.19493245 0 28996
0.16550000 0.16550500 8886.72540572 0 207.21302282 0 3107.97943194 0 -160.87202176 0 178.48476884 0 30777
0.16650000 0.16650700 8784.27318417 0 115.90731067 0 3198.91643568 0 140.43029567 0 194.12332042 0 29211
0.16750000 0.16749900 8592.41193971 0 150.13851008 0 3059.91446991 0 404.00034459 0 227.14763642 0 30922
0.16850000 0.16850800 8600.24007336 0 25.55315411 0 2919.20736611 0 451.71542116 0 -13.09856026 0 30867
0.16950000 0.16949900 8385.74699697 0 40.84403468 0 2443.06418194 0 510.01453303 0 146.26873255 0 30852
0.17050000 0.17049200 8467.54933273 0 -17.86242801 0 2374.07252599 0 278.86757288 0 169.80849512 0 31257
0.17150000 0.17149500 8496.11593077 0 -63.55857688 0 2204.38914814 0 323.10151053 0 632.40911881 0 32608
0.17250000 0.17250900 8464.15012902 0 40.35441648 0 1968.10573651 0 145.79372982 0 293.86503685 0 32361
0.17350000 0.17350400 8519.54497008 0 74.19044462 0 1975.50204949 0 160.21211120 0 531.26786052 0 32508
0.17450000 0.17449800 8412.90740975 0 180.83874510 0 1791.44679403 0 52.59188204 0 487.08817726 0 32791
0.17550000 0.17549800 8303.41318962 0 176.53714691 0 2162.61326660 0 -49.83199436 0 593.72241589 0 33633
0.17650000 0.17650100 8197.04136509 0 182.42540925 0 2133.96916230 0 -118.39415482 0 383.06257836 0 33984
0.17750000 0.17750300 7897.85607617 0 285.45006999 0 2174.31671394 0 19.00199168 0 604.08500469 0 34069
0.17850000 0.17849800 7745.96592430 0 205.70386495 0 2255.54328881 0 -59.03686087 0 477.51836692 0 34536
