### header ###
fiducial parameters:
Omega_m = 0.31
Omega_nu = 0
Omega_de = 0.69
Omega_k = 0
H_0 = 100
w_de = -1
zeff = 0
beta = 0
fgrowth = 0
b_1 = 2
gamma = 0.55
Lx = 3500 Ly = 3500 Lz = 3500
nx = 700 ny = 700 nz = 700
xoffset = -685.467585 yoffset = -31.7331281 zoffset = 572.489161
bins = 400 dk = 0.001
kx_ny = 0.628318531 ky_ny = 0.628318531 kz_ny = 0.628318531
############################
A(data) = 8.05510907 (not used)
A(ran) = 8.04566666 (used)
Ngal = 478177
weighted Ngal = 0
Nran = 23820508
weighted Nran = 0
SN(data) = 3498.20619
SN(ran) = 70.0806746
SN(data+ran) = 3568.28686
############################
13 columns: k_central k_mean P_0(k) sigma^{lin}_{P_0(k)} P^img_1(k) sigma^{lin}_{P_1(k)} P_2(k) sigma^{lin}_{P_2(k)} P^img_3(k) sigma^{lin}_{P_3(k)} P_4(k) sigma^{lin}_{P_4(k)} N_modes
### header ###
0.00050000 0 0 0 0 0 0 0 0 0 0 0 0
0.00150000 0.00179520 8586.18929317 0 -10368.44605760 0 -19498.58545213 0 21790.66741284 0 -9307.28551931 0 3
0.00250000 0.00253879 16132.82015376 0 -14138.58373067 0 3706.19499725 0 -6892.47791031 0 -4019.32034312 0 6
0.00350000 0.00331552 28734.67592285 0 -18886.72878265 0 -13896.09981715 0 8931.00363267 0 -15347.23870788 0 7
0.00450000 0.00420575 48653.45610185 0 -21978.78621151 0 -7660.31041951 0 14760.84838548 0 -1160.93325724 0 24
0.00550000 0.00557378 68430.17835343 0 -12330.47308779 0 -8206.25353934 0 -7328.42855539 0 2235.76811668 0 45
0.00650000 0.00659388 80702.41101267 0 9424.48607751 0 19285.88609237 0 21062.21916302 0 51384.66646487 0 40
0.00750000 0.00754703 66560.61630780 0 11159.90690796 0 16229.81371917 0 -1777.17456734 0 11177.84407417 0 57
0.00850000 0.00846663 64429.96884295 0 2877.58649712 0 28532.93816466 0 37851.07456229 0 41100.24828032 0 75
0.00950000 0.00948925 75178.31743740 0 -21751.36065973 0 20138.45510340 0 21658.35313126 0 1596.23063516 0 112
0.01050000 0.01054430 89456.96607703 0 -14080.45402538 0 13844.17061375 0 -3069.72454970 0 8512.31474198 0 105
0.01150000 0.01145670 103359.70928907 0 4776.00302122 0 32159.12454277 0 -22080.76232309 0 2140.55719556 0 144
0.01250000 0.01249090 87165.99134881 0 15820.58059387 0 20026.51389949 0 -21102.63314861 0 13927.87738938 0 169
0.01350000 0.01339930 83095.80474547 0 16903.67540763 0 55304.93379016 0 -18607.92764372 0 -1135.31189760 0 180
0.01450000 0.01448870 82289.29660568 0 -5268.38930591 0 36173.17445927 0 17474.89664503 0 196.26027911 0 267
0.01550000 0.01550050 87448.33563168 0 -18740.68481830 0 38511.98163071 0 8272.75392220 0 -4884.39000887 0 238
0.01650000 0.01653350 101994.15946919 0 -2814.69569215 0 32316.13010869 0 25928.39519757 0 3064.98559467 0 315
0.01750000 0.01747870 104840.30056382 0 1378.09476390 0 43866.00429677 0 5845.84426218 0 2174.07312279 0 297
0.01850000 0.01844180 97250.44334713 0 8361.26608680 0 19573.87726090 0 13194.44659339 0 4769.29319238 0 388
0.01950000 0.01947590 89669.55471355 0 9320.89340651 0 22483.46277674 0 -3926.25745302 0 17860.76716496 0 399
0.02050000 0.02045430 83186.04419275 0 6875.86942308 0 22239.65018424 0 8364.12274660 0 2745.01755206 0 462
0.02150000 0.02154770 73885.95568457 0 2952.26932802 0 19696.22645015 0 11088.71185938 0 -11486.42976686 0 571
0.02250000 0.02255340 67222.96277845 0 5714.32718798 0 8928.52343191 0 1375.07201923 0 -17397.83326429 0 510
0.02350000 0.02348930 66413.68655746 0 1508.16136355 0 2898.24745523 0 -7893.21677207 0 -27195.51204981 0 555
0.02450000 0.02439640 65348.86107965 0 -3142.19291563 0 7541.05040889 0 -607.13985911 0 -16874.88736311 0 592
0.02550000 0.02547300 66501.37937002 0 -2549.46922344 0 3466.01412728 0 -7131.83942824 0 -24402.18594457 0 837
0.02650000 0.02652900 74437.80035353 0 -5900.77406560 0 7493.49477379 0 -6513.92619708 0 -27389.72062713 0 723
0.02750000 0.02749970 72149.37226001 0 3212.81220333 0 8417.55778618 0 -4655.62470580 0 -28718.84249836 0 826
0.02850000 0.02848090 70138.74879620 0 7129.01598541 0 11692.59645499 0 -10521.35486335 0 -21853.11532482 0 831
0.02950000 0.02946900 65394.36833466 0 6928.95014826 0 15164.32390187 0 -5098.90522991 0 -15646.63437097 0 996
0.03050000 0.03053250 58785.51909690 0 2243.90627542 0 16255.83368250 0 7353.09769509 0 -14514.93205126 0 1041
0.03150000 0.03150510 57086.24940698 0 3111.57793751 0 21068.75183466 0 4224.18049691 0 -10226.39920250 0 1036
0.03250000 0.03246190 55860.21087982 0 4379.04910415 0 21388.74202192 0 1226.58107108 0 -2086.74569695 0 1059
0.03350000 0.03345080 51802.86817327 0 4214.08253668 0 22266.77738004 0 9659.26365297 0 7070.04478342 0 1302
0.03450000 0.03451200 49688.49702590 0 1530.06242204 0 22417.47172082 0 3492.52127290 0 10191.88676604 0 1339
0.03550000 0.03553350 48145.12566943 0 250.27993743 0 22030.71541491 0 6249.86232248 0 16079.00865514 0 1365
0.03650000 0.03647120 49169.86933140 0 654.02561855 0 22243.63622117 0 2637.94817107 0 13389.31951020 0 1308
0.03750000 0.03744890 47213.72170569 0 1564.26483340 0 22663.16660855 0 1114.90560296 0 16635.50370053 0 1579
0.03850000 0.03847530 47349.13623822 0 805.70871794 0 25936.25654819 0 -2763.77407031 0 10786.26023463 0 1662
0.03950000 0.03950240 45380.25543897 0 333.50174524 0 22972.08447099 0 -2711.20267207 0 4139.90903272 0 1683
0.04050000 0.04050350 48307.00305828 0 -1204.63572329 0 25276.12454250 0 -2211.35364046 0 2275.48454580 0 1822
0.04150000 0.04152450 46597.76827602 0 789.20098887 0 22477.92661433 0 -178.03301799 0 -3571.79911860 0 1887
0.04250000 0.04250150 48424.03753161 0 624.72935431 0 24398.64280062 0 2549.29206625 0 -4326.35591034 0 1920
0.04350000 0.04349210 46407.87790539 0 203.18491105 0 21164.41672110 0 3718.26383130 0 -9129.18717460 0 2005
0.04450000 0.04448520 47049.18695888 0 1179.99980057 0 20593.74909994 0 5571.42776387 0 -6606.53512187 0 2151
0.04550000 0.04548030 44192.85932541 0 2086.13671908 0 16158.17577760 0 2273.80155243 0 -4114.24338379 0 2274
0.04650000 0.04648670 42374.89431344 0 3572.40809646 0 15744.07082938 0 3822.64263736 0 -2816.31225157 0 2311
0.04750000 0.04749250 40632.11038699 0 1337.83579086 0 15360.96839065 0 1909.05702826 0 -3410.86287736 0 2568
0.04850000 0.04851840 36937.71848800 0 2676.01482379 0 13146.28198043 0 1409.56231104 0 -3481.42680343 0 2493
0.04950000 0.04949480 37151.19291050 0 1784.27192755 0 13789.25188265 0 -1254.69370380 0 -936.14624046 0 2644
0.05050000 0.05050630 34602.89735349 0 -698.14883295 0 15274.71498032 0 -1138.32356996 0 -2879.21412887 0 2829
0.05150000 0.05149060 36302.38848990 0 1358.98393127 0 15739.30972971 0 2255.47685486 0 -2105.03717755 0 2784
0.05250000 0.05249300 36491.39307456 0 -79.05174883 0 16077.45852967 0 -2122.64217401 0 -4125.37107023 0 3055
0.05350000 0.05348950 35356.81195039 0 -1080.65004444 0 16679.90372305 0 -1428.28561231 0 -1119.73313658 0 3009
0.05450000 0.05448610 38028.34248263 0 -483.56496350 0 19961.51935280 0 -841.73806290 0 -5160.29019870 0 3336
0.05550000 0.05550870 37562.75122401 0 1183.49865522 0 18856.05844291 0 -31.87135482 0 -5940.65657960 0 3349
0.05650000 0.05647670 36808.61518061 0 815.76349611 0 19681.61098138 0 -89.54299804 0 -3181.75433221 0 3324
0.05750000 0.05747970 36026.02326243 0 517.38870136 0 17953.44252369 0 -753.86255697 0 -5994.04732987 0 3639
0.05850000 0.05849280 36208.71662194 0 920.45343450 0 19799.42051746 0 2466.85860797 0 -4144.14973312 0 3846
0.05950000 0.05951020 34588.06043823 0 1291.68634102 0 17221.11896019 0 1839.84392582 0 -6751.49399839 0 3787
0.06050000 0.06049470 34203.07570429 0 680.55490882 0 17744.50775436 0 1620.53438813 0 -4922.24628743 0 3930
0.06150000 0.06148310 32816.15629750 0 1156.72577380 0 16707.69525834 0 360.54368414 0 -4678.93194954 0 4083
0.06250000 0.06249100 31448.50273590 0 2045.10268330 0 16326.80728458 0 308.91121905 0 -3497.16057699 0 4303
0.06350000 0.06350600 30709.97867050 0 1014.64459450 0 16816.64693456 0 732.33463583 0 -972.90082270 0 4470
0.06450000 0.06451750 29973.00473057 0 229.76291954 0 15577.54306411 0 1047.88703530 0 -1218.46505699 0 4479
0.06550000 0.06550280 29715.79462503 0 -157.04985523 0 15127.45306023 0 3721.35300992 0 -235.99220949 0 4636
0.06650000 0.06648880 30270.18592870 0 -628.51719663 0 13681.96105515 0 2328.13345032 0 -1543.70352622 0 4653
0.06750000 0.06749660 31146.89260784 0 -1023.19132203 0 11964.31130604 0 3377.86734940 0 -276.54349190 0 5220
0.06850000 0.06852730 31566.42299522 0 -639.40904256 0 11558.62132468 0 964.37734705 0 1361.24268553 0 5029
0.06950000 0.06949320 31534.86686949 0 710.59855498 0 11401.83720525 0 1612.09727662 0 599.66714709 0 5040
0.07050000 0.07048030 30825.79518810 0 1920.74940327 0 11947.81354206 0 522.82410561 0 1215.63054184 0 5475
0.07150000 0.07148790 29173.58287867 0 1837.41908668 0 11799.55511274 0 -780.86795721 0 2294.04176220 0 5509
0.07250000 0.07249820 28213.83376339 0 212.51002301 0 10985.20776697 0 684.26081593 0 2591.12330941 0 5916
0.07350000 0.07351270 28599.15066707 0 -951.01858716 0 12623.55752574 0 1518.60256585 0 3194.83074782 0 5721
0.07450000 0.07449140 28883.37724517 0 -432.35656845 0 11409.14493963 0 466.16037612 0 1727.39339496 0 6028
0.07550000 0.07549160 29322.28420098 0 590.49704767 0 11392.42572915 0 809.90734351 0 103.72553890 0 6183
0.07650000 0.07648840 28637.46091095 0 1273.42807739 0 10772.81843230 0 -279.11780742 0 2127.08217626 0 6330
0.07750000 0.07749960 26696.81453998 0 1580.80688668 0 11946.04197009 0 -116.41553038 0 1196.95152987 0 6583
0.07850000 0.07848650 25779.02953577 0 1195.70035717 0 11791.47231562 0 952.27640326 0 2167.20828140 0 6549
0.07950000 0.07947320 25152.22522778 0 741.78265060 0 11333.63168437 0 1357.52238439 0 1309.80066442 0 6828
0.08050000 0.08048110 24239.09059999 0 548.60712118 0 10394.31100838 0 886.08161656 0 1769.26892742 0 7147
0.08150000 0.08149960 24314.60385525 0 125.57012854 0 11300.08254017 0 618.17121632 0 2813.22307295 0 7386
0.08250000 0.08250610 23636.09179036 0 522.62812546 0 10214.43001937 0 931.23344994 0 2887.75089130 0 7227
0.08350000 0.08350160 23742.93972486 0 -119.62207564 0 9724.13640408 0 1377.69616021 0 3554.70344908 0 7798
0.08450000 0.08449610 23493.48024670 0 -340.88366419 0 8907.31992988 0 1243.20063064 0 2025.39394513 0 7371
0.08550000 0.08548940 23573.31170864 0 592.15346746 0 8736.81720000 0 498.13614296 0 1889.07148196 0 8256
0.08650000 0.08650700 22700.92323618 0 644.05941898 0 7318.60740328 0 595.45302026 0 663.90434675 0 8037
0.08750000 0.08749060 21954.42709691 0 926.26861949 0 7234.85633835 0 -323.56322648 0 392.88040877 0 8155
0.08850000 0.08849210 21084.03164291 0 592.05160208 0 6470.62233472 0 -58.43917678 0 -976.38528332 0 8718
0.08950000 0.08949900 20728.94218598 0 314.08753090 0 6530.74505848 0 420.30212842 0 -1143.76008144 0 8571
0.09050000 0.09049190 20510.15304756 0 618.57535618 0 5809.47167515 0 -236.91785584 0 -2676.24734262 0 8932
0.09150000 0.09150830 19942.91784710 0 575.77639182 0 5962.32511927 0 332.01916094 0 -1094.55134825 0 9285
0.09250000 0.09250820 19547.96802082 0 201.12435140 0 5472.20866117 0 1046.66797234 0 -1053.61032000 0 9204
0.09350000 0.09350330 19469.13306811 0 -326.54168185 0 5949.73588595 0 1260.41809573 0 504.74299918 0 9349
0.09450000 0.09448040 19949.33979550 0 -282.07079645 0 5314.14015206 0 1390.11930866 0 -370.50324031 0 9564
0.09550000 0.09549270 19474.22633753 0 320.88483110 0 5699.41276645 0 485.42179237 0 -328.17374253 0 10155
0.09650000 0.09649430 19186.78878524 0 751.42553828 0 5032.18340055 0 -119.66747217 0 473.26105803 0 9913
0.09750000 0.09749140 18544.37249926 0 851.95006808 0 5644.33902280 0 -584.47923913 0 630.73498329 0 10476
0.09850000 0.09850240 18196.25860696 0 753.50049195 0 4917.67341728 0 -18.16547754 0 1090.49334120 0 10575
0.09950000 0.09950330 17515.08918412 0 417.05683001 0 5245.41423191 0 -304.12908196 0 712.33358828 0 10882
0.10050000 0.10051200 17008.19815392 0 636.24567936 0 5714.69257470 0 553.24199635 0 1135.89873082 0 10875
0.10150000 0.10150300 16898.80358471 0 3.43131346 0 5413.97930495 0 402.89643380 0 796.14112206 0 11118
0.10250000 0.10250800 16905.22553311 0 -269.85470048 0 5009.06438633 0 835.25632395 0 794.60206891 0 11575
0.10350000 0.10349800 17140.73388200 0 -184.53911605 0 5506.96468878 0 48.52822811 0 602.32671951 0 11364
0.10450000 0.10450100 16965.01608713 0 599.36597985 0 5742.78306276 0 417.71120441 0 899.48798745 0 12093
0.10550000 0.10551000 16574.16302103 0 208.52620054 0 5471.81005748 0 -187.07910737 0 1043.97296848 0 12067
0.10650000 0.10649700 16532.42035647 0 220.24847083 0 5626.90011121 0 -119.95645985 0 413.31327699 0 12054
0.10750000 0.10749900 16348.28759473 0 -29.27721984 0 5140.92470260 0 475.76561790 0 154.10683129 0 12807
0.10850000 0.10850100 16436.53402354 0 -131.32330851 0 5104.46353697 0 453.88559683 0 356.67612108 0 12736
0.10950000 0.10950300 16567.74107264 0 13.22832791 0 4380.56601265 0 422.17335131 0 -152.33858102 0 12933
0.11050000 0.11050200 16271.77783023 0 285.63940674 0 4700.15759622 0 212.95070154 0 149.77423059 0 13428
0.11150000 0.11150900 16177.77379252 0 671.74908889 0 4616.45082059 0 -640.37233482 0 -159.70942765 0 13453
0.11250000 0.11250000 15705.64986226 0 321.00330498 0 4910.98573309 0 -141.80104949 0 641.61132796 0 13668
0.11350000 0.11349100 15341.59182222 0 433.29328713 0 4871.70112463 0 69.41849407 0 478.64220789 0 13791
0.11450000 0.11448600 15258.77083258 0 327.85707404 0 5239.03657281 0 39.52365995 0 696.98623885 0 14205
0.11550000 0.11549300 14903.12775940 0 241.74871116 0 5005.21121729 0 359.28586804 0 162.94033203 0 14776
0.11650000 0.11649800 14574.94405178 0 113.03293514 0 4754.31233690 0 718.69463889 0 405.02896356 0 14553
0.11750000 0.11747300 14525.00786684 0 151.14719887 0 4587.57419746 0 293.68566519 0 -247.77759202 0 14568
0.11850000 0.11849100 14187.30195988 0 265.22425424 0 4249.79078422 0 609.10298230 0 -701.68090457 0 16015
0.11950000 0.11950300 14026.86397325 0 272.00051703 0 4024.64613136 0 -12.81754466 0 -954.58719745 0 15270
0.12050000 0.12050700 13818.03992717 0 326.07775144 0 3694.77943036 0 -500.79571538 0 -1260.15235993 0 15999
0.12150000 0.12150000 13783.05138075 0 -85.21283325 0 4442.41601909 0 -410.75778442 0 -1009.02317519 0 15670
0.12250000 0.12250700 13642.98647179 0 175.32915627 0 4692.26302862 0 -533.72148770 0 -387.74285006 0 16887
0.12350000 0.12352200 13684.61841311 0 341.02981888 0 4718.06154545 0 138.70412024 0 232.58304068 0 16407
0.12450000 0.12449800 13606.33707664 0 22.71022399 0 4594.88193184 0 677.73700215 0 493.12037982 0 16306
0.12550000 0.12549900 13585.96399898 0 -299.52410206 0 5018.89661077 0 635.84264673 0 589.86592516 0 17523
0.12650000 0.12650100 13811.83942528 0 240.25505454 0 5216.46010251 0 1007.72217702 0 1204.02674543 0 17154
0.12750000 0.12750600 13408.25318564 0 330.68826750 0 4880.84686493 0 388.33743390 0 1284.37860664 0 18007
0.12850000 0.12850300 12988.94424475 0 457.04231663 0 4631.70848419 0 56.82040289 0 1984.00559495 0 17496
0.12950000 0.12949900 13128.12336772 0 9.87588262 0 4732.47771236 0 -0.92918507 0 1798.21198450 0 18405
0.13050000 0.13049000 12874.12423638 0 -2.86258350 0 4411.64602842 0 269.88127406 0 1392.59950942 0 18100
0.13150000 0.13148800 12891.83995609 0 113.91539943 0 4165.37537980 0 -29.86892488 0 1089.36839300 0 19059
0.13250000 0.13249300 12972.88937377 0 -23.96560418 0 3994.30796135 0 -27.45493662 0 1320.78441064 0 18957
0.13350000 0.13349100 12765.50472991 0 143.60030227 0 4054.88465044 0 304.79342145 0 827.51344720 0 19468
0.13450000 0.13450700 12719.11168892 0 80.62567980 0 3777.83293882 0 409.19215770 0 931.54790397 0 19953
0.13550000 0.13551000 12589.78693504 0 178.76932759 0 3294.57024979 0 567.27063190 0 1053.80962185 0 19956
0.13650000 0.13649900 12447.61828437 0 227.19967635 0 3858.27337863 0 372.32242328 0 862.06352957 0 19723
0.13750000 0.13749600 12192.29047405 0 370.45341485 0 3273.47747101 0 226.90072358 0 1083.72704351 0 20946
0.13850000 0.13851100 11826.90375504 0 332.32586434 0 3575.96231273 0 -235.75083281 0 1151.11210512 0 20955
0.13950000 0.13949800 11688.38897156 0 212.84994338 0 3315.65195624 0 -161.75116435 0 1016.06849547 0 20506
0.14050000 0.14048300 11515.99287413 0 89.64054522 0 3559.29846388 0 35.15894951 0 810.84516942 0 21447
0.14150000 0.14148400 11456.75593635 0 175.52845812 0 3285.60166669 0 -112.45163809 0 139.78145744 0 21771
0.14250000 0.14249400 11318.13042962 0 182.52395294 0 3447.64514041 0 -366.84051526 0 -72.42507315 0 22470
0.14350000 0.14350900 11159.02112198 0 232.27301558 0 3423.10886861 0 -299.35801719 0 -512.62760169 0 22519
0.14450000 0.14449900 10825.92130213 0 289.99636656 0 3564.20350377 0 -211.41164839 0 -501.23860838 0 22218
0.14550000 0.14550500 10670.59872958 0 361.87014865 0 3480.17563072 0 -37.01312102 0 -541.51751160 0 23559
0.14650000 0.14650700 10511.43406031 0 -34.94093543 0 3351.17197426 0 508.13223781 0 -319.35352858 0 23044
0.14750000 0.14750500 10525.58449143 0 -1.38250155 0 3147.00937693 0 509.76429849 0 -529.87939099 0 23649
0.14850000 0.14849900 10690.11923823 0 -108.00122785 0 3159.68718885 0 232.18332975 0 -176.54711200 0 23640
0.14950000 0.14949500 10612.79012170 0 159.94194647 0 3409.92172975 0 36.42584491 0 -398.77974344 0 24457
0.15050000 0.15050000 10292.42347540 0 411.47527107 0 3248.43187227 0 -210.99090005 0 129.40004569 0 24591
0.15150000 0.15149900 10204.21026357 0 134.29512049 0 3340.32109594 0 76.96815874 0 217.39623995 0 25020
0.15250000 0.15250500 10031.83631079 0 -70.66202687 0 3291.95718113 0 442.58407488 0 88.51725787 0 25297
0.15350000 0.15350100 10121.12353813 0 -22.18583869 0 3007.43165027 0 667.06217379 0 -151.46829629 0 25452
0.15450000 0.15450400 10048.04619432 0 215.02786968 0 2938.84967034 0 107.99746326 0 -463.71449957 0 26061
0.15550000 0.15549900 9782.94152119 0 340.93681135 0 2671.06549460 0 115.47881170 0 -227.44991089 0 26128
0.15650000 0.15649500 9530.48144300 0 198.69286887 0 2615.23883286 0 -325.87402067 0 -418.68999792 0 26331
0.15750000 0.15749700 9291.86177083 0 235.81948122 0 2763.81835961 0 -207.25841935 0 -355.51684867 0 27345
0.15850000 0.15849900 9231.79440869 0 254.59150072 0 2891.07258875 0 -278.78010152 0 -620.14430461 0 26980
0.15950000 0.15949700 9174.73871890 0 127.54986021 0 2898.59069730 0 -158.36967635 0 -657.37942574 0 27777
0.16050000 0.16050000 9102.44751016 0 -40.24967229 0 2803.45728246 0 197.86133728 0 -93.49659306 0 28224
0.16150000 0.16150500 9162.39307673 0 -103.18620596 0 2665.20823477 0 347.88580241 0 -344.02266828 0 28075
0.16250000 0.16249700 9308.54776434 0 -118.63774597 0 2626.67654440 0 514.78116886 0 -276.08952659 0 28590
0.16350000 0.16349900 9399.32975552 0 -156.49734622 0 2322.08796097 0 539.72158052 0 -521.02153113 0 29163
0.16450000 0.16449100 9155.84933276 0 229.56140323 0 2066.58299345 0 230.94655107 0 -458.93014801 0 28996
0.16550000 0.16550500 9139.57301528 0 298.77672014 0 2028.64920862 0 -51.63667258 0 -245.55205474 0 30777
0.16650000 0.16650700 8890.23533269 0 3.32459839 0 1907.80585555 0 208.58266940 0 42.86185516 0 29211
0.16750000 0.16749900 8913.81938455 0 29.58746638 0 1753.41335828 0 -0.72358418 0 -471.47841373 0 30922
0.16850000 0.16850800 8843.16687988 0 204.80700664 0 1764.38603218 0 129.86619057 0 -331.31053215 0 30867
0.16950000 0.16949900 8620.59100638 0 279.79764817 0 1866.79396442 0 -208.39443988 0 -141.17657037 0 30852
0.17050000 0.17049200 8523.80781514 0 207.15876843 0 1749.07300695 0 126.25439821 0 187.90621003 0 31257
0.17150000 0.17149500 8342.39884531 0 54.27398963 0 1982.53297575 0 -163.56702562 0 166.02729619 0 32608
0.17250000 0.17250900 8291.93118879 0 122.82972814 0 2080.89950944 0 122.17867544 0 37.44095565 0 32361
0.17350000 0.17350400 8351.37850074 0 74.29762472 0 2389.34126191 0 -182.85722991 0 88.19881781 0 32508
0.17450000 0.17449800 8171.55287336 0 128.52754649 0 2210.62286702 0 -140.62738306 0 50.06240944 0 32791
0.17550000 0.17549800 8191.20624991 0 178.84683387 0 2505.99927620 0 -124.68655702 0 55.52870547 0 33633
0.17650000 0.17650100 8127.89469660 0 44.08147174 0 2473.75666633 0 -73.51536497 0 95.36028678 0 33984
0.17750000 0.17750300 7989.87816773 0 178.28768146 0 2648.22328850 0 -16.19283215 0 -66.82480198 0 34069
