### header ###
fiducial parameters:
Omega_m = 0.31
Omega_nu = 0
Omega_de = 0.69
Omega_k = 0
H_0 = 100
w_de = -1
zeff = 0
beta = 0
fgrowth = 0
b_1 = 2
gamma = 0.55
Lx = 3500 Ly = 3500 Lz = 3500
nx = 700 ny = 700 nz = 700
xoffset = -685.467585 yoffset = -31.7331281 zoffset = 572.489161
bins = 400 dk = 0.001
kx_ny = 0.628318531 ky_ny = 0.628318531 kz_ny = 0.628318531
############################
A(data) = 8.01170145 (not used)
A(ran) = 8.0007185 (used)
Ngal = 475349
weighted Ngal = 0
Nran = 23820508
weighted Nran = 0
SN(data) = 3496.3452
SN(ran) = 69.6891598
SN(data+ran) = 3566.03436
############################
13 columns: k_central k_mean P_0(k) sigma^{lin}_{P_0(k)} P^img_1(k) sigma^{lin}_{P_1(k)} P_2(k) sigma^{lin}_{P_2(k)} P^img_3(k) sigma^{lin}_{P_3(k)} P_4(k) sigma^{lin}_{P_4(k)} N_modes
### header ###
0.00050000 0 0 0 0 0 0 0 0 0 0 0 0
0.00150000 0.00179520 24341.17743482 0 -20076.67153091 0 -322.20575946 0 -17514.53556788 0 -3923.89904783 0 3
0.00250000 0.00253879 44436.33974818 0 -20605.81793400 0 6062.14212751 0 -19003.76325599 0 9065.65417479 0 6
0.00350000 0.00331552 60086.51726309 0 -14664.51915956 0 23818.56370338 0 -28001.13440362 0 8527.30666978 0 7
0.00450000 0.00420575 60255.48093983 0 7089.89746182 0 42742.16332768 0 -13035.11583925 0 36252.67375147 0 24
0.00550000 0.00557378 58123.94768899 0 14668.72664299 0 54958.03785359 0 30277.05077009 0 9419.44816972 0 45
0.00650000 0.00659388 54217.63149297 0 -3489.39887730 0 61502.00326791 0 22921.92683956 0 8526.44302845 0 40
0.00750000 0.00754703 62395.42915752 0 2780.24968964 0 47163.56407426 0 43779.64016318 0 -21182.35388730 0 57
0.00850000 0.00846663 62323.34832296 0 -5038.52784267 0 48501.87597509 0 17218.01870924 0 3930.32099623 0 75
0.00950000 0.00948925 76626.79897018 0 -5933.65887031 0 42366.03645359 0 18071.03061326 0 1603.66016511 0 112
0.01050000 0.01054430 73014.89589109 0 1395.51153084 0 35727.62410857 0 5059.88635725 0 4089.66282269 0 105
0.01150000 0.01145670 77926.13628765 0 5983.56183827 0 40627.68145706 0 15590.16551440 0 5022.35117611 0 144
0.01250000 0.01249090 70693.14009987 0 3242.24244270 0 33682.78716106 0 22211.74792569 0 10925.10718786 0 169
0.01350000 0.01339930 69253.73787344 0 -5767.83973383 0 28107.76089162 0 31822.08297529 0 5083.51469841 0 180
0.01450000 0.01448870 77609.91069083 0 -8471.84539476 0 27306.23529800 0 25635.64292936 0 12428.35243919 0 267
0.01550000 0.01550050 89439.58252707 0 -5204.57949798 0 35870.56782198 0 17893.09835343 0 28294.10811832 0 238
0.01650000 0.01653350 87829.44505194 0 3346.66553806 0 25249.32951644 0 14023.32082931 0 20529.08672300 0 315
0.01750000 0.01747870 79625.07380782 0 9226.43540348 0 17082.05056046 0 -530.56808959 0 33806.24358279 0 297
0.01850000 0.01844180 78994.61563265 0 6699.03332340 0 32475.12869309 0 -12634.29768081 0 14268.90499379 0 388
0.01950000 0.01947590 69818.42643919 0 8839.45765107 0 22658.62695537 0 1835.06068149 0 12181.10742599 0 399
0.02050000 0.02045430 71451.92651969 0 3084.00784871 0 26574.35462749 0 -7655.51610286 0 -163.45519514 0 462
0.02150000 0.02154770 66657.72059646 0 243.78380446 0 19343.01928843 0 573.94502930 0 668.34545624 0 571
0.02250000 0.02255340 70941.60306880 0 -6331.95253869 0 15503.91210406 0 7861.23989799 0 -24451.78995975 0 510
0.02350000 0.02348930 71477.50359002 0 61.01548532 0 15597.25180228 0 4489.90522023 0 -21070.08051364 0 555
0.02450000 0.02439640 74075.29243897 0 2981.56669949 0 9755.84754236 0 -6482.34792670 0 -15810.06188530 0 592
0.02550000 0.02547300 70930.19857423 0 3550.36309775 0 21325.62977046 0 -9999.75978579 0 -19942.14278437 0 837
0.02650000 0.02652900 69120.20563613 0 6652.49634219 0 29852.09494355 0 -7613.21982205 0 -2981.11273417 0 723
0.02750000 0.02749970 62371.62365916 0 4098.60926114 0 26739.33226729 0 2515.18930580 0 -9042.66802847 0 826
0.02850000 0.02848090 61944.34264441 0 1400.83731908 0 28257.12655343 0 8857.30623868 0 4041.91895807 0 831
0.02950000 0.02946900 62379.59573303 0 -1007.62363333 0 29277.21983897 0 12187.86154412 0 1405.18874273 0 996
0.03050000 0.03053250 62443.15087749 0 1503.21203435 0 24707.89283281 0 14058.75226873 0 5368.17309717 0 1041
0.03150000 0.03150510 59218.00410432 0 4551.51163553 0 20041.35081474 0 5076.48377215 0 12565.87071343 0 1036
0.03250000 0.03246190 57571.10651079 0 2254.33640540 0 14959.92878572 0 2268.18788375 0 6164.17360071 0 1059
0.03350000 0.03345080 54211.20954457 0 1041.86258337 0 24594.51222667 0 1695.63796738 0 14691.20346237 0 1302
0.03450000 0.03451200 53776.73151869 0 2598.67463494 0 21849.68290412 0 2464.47805813 0 5613.02648821 0 1339
0.03550000 0.03553350 52566.85858576 0 2100.38680112 0 27846.45402590 0 -3126.31520184 0 15813.82647574 0 1365
0.03650000 0.03647120 50578.37977158 0 2976.71702122 0 27271.57892132 0 504.42854516 0 14910.10332404 0 1308
0.03750000 0.03744890 51792.57091119 0 2306.36525972 0 31830.05504916 0 -354.05308733 0 14618.45828831 0 1579
0.03850000 0.03847530 47596.49197467 0 2486.35697198 0 31164.71905080 0 574.45435624 0 11644.65328852 0 1662
0.03950000 0.03950240 48751.22473000 0 1313.59847183 0 33420.15161636 0 2031.38407285 0 9136.26239016 0 1683
0.04050000 0.04050350 46753.77733272 0 -388.73271590 0 30275.61136787 0 1132.43309315 0 3845.54020509 0 1822
0.04150000 0.04152450 46550.26800255 0 459.28446241 0 28627.38509536 0 1714.05124355 0 -1285.14259705 0 1887
0.04250000 0.04250150 47071.88522476 0 1148.18901137 0 28327.10364628 0 997.08056564 0 -8934.13710059 0 1920
0.04350000 0.04349210 43972.29861503 0 2288.07377912 0 23528.80096287 0 1331.67957826 0 -8392.32395792 0 2005
0.04450000 0.04448520 42003.08564603 0 1707.90610328 0 19397.71657303 0 2611.81748450 0 -13719.93912928 0 2151
0.04550000 0.04548030 40694.77974546 0 -1487.72185193 0 17031.56075929 0 3746.40968099 0 -15618.06777294 0 2274
0.04650000 0.04648670 42353.30328004 0 -797.09887816 0 16000.17370243 0 2054.42558080 0 -18837.01404422 0 2311
0.04750000 0.04749250 40985.31754870 0 1051.77009962 0 11731.34959185 0 2502.87688061 0 -16854.95717843 0 2568
0.04850000 0.04851840 41135.34754999 0 1202.44340298 0 10790.03589739 0 749.15571169 0 -12457.14048371 0 2493
0.04950000 0.04949480 39575.92132254 0 175.84955554 0 8362.65012740 0 1931.91030668 0 -8074.34893378 0 2644
0.05050000 0.05050630 38966.83273426 0 942.50729107 0 11202.97825151 0 2812.00511722 0 -8562.16234831 0 2829
0.05150000 0.05149060 38350.43641161 0 988.32346394 0 11031.26863822 0 518.98865229 0 -5661.45683697 0 2784
0.05250000 0.05249300 37882.29851828 0 1444.07474750 0 13563.15500985 0 -187.73348177 0 -2139.94821770 0 3055
0.05350000 0.05348950 37482.36614583 0 1183.76439101 0 14529.21535028 0 655.20925007 0 2669.14998241 0 3009
0.05450000 0.05448610 36340.92018027 0 526.31188793 0 14238.01320755 0 485.30442573 0 883.90701197 0 3336
0.05550000 0.05550870 37437.19106057 0 -876.45201567 0 17474.45375204 0 1347.15868836 0 49.20530077 0 3349
0.05650000 0.05647670 37147.31759681 0 -244.17908646 0 15518.41684957 0 2705.15718272 0 1300.95387689 0 3324
0.05750000 0.05747970 38513.86392593 0 -695.76274695 0 13603.23682569 0 869.86176794 0 -3264.43138163 0 3639
0.05850000 0.05849280 37460.88583568 0 -195.32134596 0 13911.37962540 0 -118.17824449 0 -896.51728271 0 3846
0.05950000 0.05951020 38625.58368335 0 1271.08074453 0 12627.43283943 0 888.95267039 0 -2605.89379072 0 3787
0.06050000 0.06049470 37015.55693147 0 1631.50706203 0 13323.21773103 0 -447.55001256 0 -1877.52304717 0 3930
0.06150000 0.06148310 36382.44139834 0 1136.47449171 0 11726.14559919 0 -475.90734366 0 -2790.25907127 0 4083
0.06250000 0.06249100 34912.92244841 0 1170.82084330 0 13685.83636884 0 536.91585341 0 -1076.71936913 0 4303
0.06350000 0.06350600 34236.51412524 0 706.06222350 0 12118.54879076 0 1885.17402362 0 -2515.79828367 0 4470
0.06450000 0.06451750 33558.33423010 0 -405.62244017 0 12340.43818013 0 1662.09989550 0 -2553.46633270 0 4479
0.06550000 0.06550280 33871.57029922 0 927.22305389 0 12191.95830431 0 159.93198138 0 -5374.60611789 0 4636
0.06650000 0.06648880 33128.83875038 0 1502.91308158 0 11902.30628705 0 -566.94510555 0 -1586.48698931 0 4653
0.06750000 0.06749660 31403.10620415 0 1609.96031793 0 12860.94816985 0 -543.32340778 0 739.13193604 0 5220
0.06850000 0.06852730 30890.90045804 0 764.90720098 0 11720.83088327 0 1291.05521850 0 573.68372243 0 5029
0.06950000 0.06949320 30542.34367275 0 -685.82422820 0 13327.86810745 0 1572.48049842 0 -755.12923093 0 5040
0.07050000 0.07048030 30004.78230280 0 714.17380866 0 11523.63277825 0 1506.54480412 0 -2510.77144820 0 5475
0.07150000 0.07148790 30512.11622599 0 352.05342547 0 12550.59090518 0 -1169.47001967 0 -1644.21809092 0 5509
0.07250000 0.07249820 29409.64484380 0 1430.78795772 0 12079.90637714 0 -1331.60207199 0 -2299.73293716 0 5916
0.07350000 0.07351270 28630.59606956 0 1037.15463085 0 12733.28426469 0 -1246.30088159 0 -2787.18096497 0 5721
0.07450000 0.07449140 27405.33260513 0 925.76039978 0 11610.21835834 0 977.61984754 0 -2046.03275859 0 6028
0.07550000 0.07549160 27274.01483278 0 -366.53602633 0 11356.55139674 0 2634.03964041 0 -3541.61596114 0 6183
0.07650000 0.07648840 27656.67437851 0 -452.97434449 0 9175.85702371 0 3235.33331201 0 -4286.78342144 0 6330
0.07750000 0.07749960 27900.26552452 0 -204.81918619 0 8925.10208354 0 1533.20696229 0 -5303.89825160 0 6583
0.07850000 0.07848650 27023.33739888 0 763.53201824 0 7695.46505081 0 192.35839184 0 -2580.67103478 0 6549
0.07950000 0.07947320 26507.58850883 0 646.03361450 0 8351.66638118 0 337.91406668 0 -1109.93412912 0 6828
0.08050000 0.08048110 26498.17703274 0 226.49547649 0 8623.35908758 0 338.30381251 0 -205.70940111 0 7147
0.08150000 0.08149960 26232.44123709 0 920.83764417 0 9514.91375431 0 -195.54057799 0 -404.88391611 0 7386
0.08250000 0.08250610 25193.74644585 0 1245.34866165 0 9989.97185065 0 196.35660833 0 787.64643446 0 7227
0.08350000 0.08350160 24364.20787044 0 964.47256905 0 9663.53757035 0 278.50550786 0 991.70384471 0 7798
0.08450000 0.08449610 23401.13705771 0 322.77155525 0 10335.66090381 0 771.31143366 0 721.68527382 0 7371
0.08550000 0.08548940 23295.39635569 0 485.96765799 0 9573.82959467 0 849.81200216 0 640.65025017 0 8256
0.08650000 0.08650700 22628.84240161 0 765.27037324 0 8975.34829357 0 442.32608972 0 9.85469019 0 8037
0.08750000 0.08749060 22237.87861227 0 382.54550079 0 7653.25734860 0 1355.10861758 0 1284.57790848 0 8155
0.08850000 0.08849210 21714.60054134 0 -260.76100011 0 6897.27222695 0 1665.34408667 0 219.28517857 0 8718
0.08950000 0.08949900 21697.65988436 0 327.04436540 0 6075.98253353 0 1816.23772930 0 116.31587945 0 8571
0.09050000 0.09049190 21139.28254376 0 699.89050965 0 5726.99392757 0 1073.05221515 0 -468.68154448 0 8932
0.09150000 0.09150830 19916.23354429 0 989.13949428 0 4669.32117160 0 438.12967861 0 1312.18121426 0 9285
0.09250000 0.09250820 19677.62494445 0 562.70994131 0 5252.24585632 0 -604.84345894 0 1387.87162672 0 9204
0.09350000 0.09350330 19177.93092538 0 179.77026576 0 5347.32390954 0 -63.34964211 0 1986.80689313 0 9349
0.09450000 0.09448040 19279.35342072 0 164.59121566 0 4938.74405141 0 753.89909565 0 2110.27438719 0 9564
0.09550000 0.09549270 19229.74940554 0 -298.24414132 0 5555.89329215 0 187.36034442 0 1601.71143594 0 10155
0.09650000 0.09649430 19270.71700736 0 289.35195725 0 5868.08856274 0 333.96456841 0 576.57581368 0 9913
0.09750000 0.09749140 18580.57900142 0 1169.39251340 0 6177.47146282 0 -764.99467235 0 858.82155286 0 10476
0.09850000 0.09850240 18013.67597070 0 663.74711974 0 6449.88387033 0 4.01679585 0 2066.38369160 0 10575
0.09950000 0.09950330 17876.26841970 0 -150.64562255 0 6830.60575922 0 -203.95443762 0 1327.26172066 0 10882
0.10050000 0.10051200 17784.92173995 0 31.30345528 0 7052.68337811 0 423.02259863 0 1468.61101930 0 10875
0.10150000 0.10150300 17871.06442704 0 606.01712537 0 7296.90564663 0 -109.48303708 0 1857.20533113 0 11118
0.10250000 0.10250800 17069.42811017 0 723.42695051 0 6967.29360911 0 287.46080417 0 2088.18509917 0 11575
0.10350000 0.10349800 16802.69580529 0 311.14450696 0 6960.16303192 0 411.34683211 0 3319.44976366 0 11364
0.10450000 0.10450100 16508.17196511 0 428.90643203 0 7020.70650403 0 807.50243456 0 1934.13584397 0 12093
0.10550000 0.10551000 16231.80673764 0 149.41548727 0 7090.51751201 0 283.90105174 0 2024.40850822 0 12067
0.10650000 0.10649700 15833.53521391 0 167.30614971 0 7179.51685891 0 -430.54735057 0 1752.77116344 0 12054
0.10750000 0.10749900 16022.20762882 0 217.42392077 0 7407.86141364 0 -720.32116340 0 1861.56782711 0 12807
0.10850000 0.10850100 15435.81730643 0 207.17094798 0 6804.44185568 0 -701.18264995 0 1142.33175154 0 12736
0.10950000 0.10950300 15568.57448100 0 261.91916528 0 7532.25898298 0 -37.38958006 0 953.18433390 0 12933
0.11050000 0.11050200 15396.06766033 0 285.11900748 0 7150.06447489 0 512.26000050 0 254.71883245 0 13428
0.11150000 0.11150900 15183.47902381 0 185.65963533 0 6620.92914413 0 843.73551030 0 15.20274487 0 13453
0.11250000 0.11250000 14774.57806826 0 43.44625246 0 6123.64889188 0 802.32169378 0 45.49452183 0 13668
0.11350000 0.11349100 14973.10485226 0 214.87174990 0 5748.58496097 0 754.68855241 0 -535.57831657 0 13791
0.11450000 0.11448600 14564.09317345 0 143.65787836 0 5512.75551466 0 690.91860485 0 -291.52434738 0 14205
0.11550000 0.11549300 14417.82776260 0 256.37303778 0 4860.37413634 0 647.84836853 0 465.85920888 0 14776
0.11650000 0.11649800 14195.16331050 0 27.26836795 0 4967.77568708 0 435.30402132 0 1031.05488711 0 14553
0.11750000 0.11747300 14326.03818985 0 90.96944565 0 4907.06613010 0 956.49938795 0 975.94903372 0 14568
0.11850000 0.11849100 13995.19712427 0 235.93574063 0 4920.06503944 0 338.99140388 0 1409.94984241 0 16015
0.11950000 0.11950300 13909.05443718 0 494.13681924 0 4960.87762872 0 254.12646308 0 2173.34234935 0 15270
0.12050000 0.12050700 13613.75553427 0 140.94848048 0 4524.06334230 0 651.74804134 0 2159.44658171 0 15999
0.12150000 0.12150000 13446.89559925 0 -275.24913713 0 4396.75375154 0 553.50219599 0 2378.86684264 0 15670
0.12250000 0.12250700 13550.31111306 0 59.09897661 0 3850.47846196 0 388.96855641 0 1702.04884345 0 16887
0.12350000 0.12352200 13685.72564559 0 157.87031450 0 3547.42893167 0 263.06404367 0 1822.60431607 0 16407
0.12450000 0.12449800 13247.04013628 0 148.69135722 0 3171.12490039 0 15.66944336 0 806.89013500 0 16306
0.12550000 0.12549900 13298.30500019 0 132.19691494 0 2855.18718401 0 -88.56509031 0 1049.50691642 0 17523
0.12650000 0.12650100 13197.76829083 0 268.95562770 0 3254.89810996 0 -250.24450599 0 329.93977834 0 17154
0.12750000 0.12750600 12988.72279826 0 -24.42311264 0 3144.94992451 0 -187.21972589 0 915.29705283 0 18007
0.12850000 0.12850300 13174.07351572 0 -16.40852104 0 3609.69968645 0 249.23913890 0 844.05107155 0 17496
0.12950000 0.12949900 13028.25099786 0 163.09091565 0 3452.68304820 0 -169.27370183 0 554.48984736 0 18405
0.13050000 0.13049000 12944.98711522 0 298.11127342 0 3766.94884353 0 54.75286767 0 508.49098113 0 18100
0.13150000 0.13148800 12790.86035375 0 222.72645712 0 3835.80763157 0 -400.82590906 0 425.01340263 0 19059
0.13250000 0.13249300 12749.11768918 0 -5.59072683 0 3939.95391882 0 -30.15835545 0 836.66472367 0 18957
0.13350000 0.13349100 12660.64981388 0 -110.16830327 0 3927.87401244 0 261.77633229 0 600.60054407 0 19468
0.13450000 0.13450700 12891.83995609 0 142.99243164 0 3759.74076007 0 622.32555259 0 804.22613365 0 19953
0.13550000 0.13551000 12642.82337092 0 71.57051112 0 3205.12800990 0 417.57833651 0 871.55694087 0 19956
0.13650000 0.13649900 12568.97096438 0 176.98003990 0 3204.96192503 0 726.98448848 0 658.60956103 0 19723
0.13750000 0.13749600 12175.90343332 0 390.67369444 0 3167.06135718 0 109.22870578 0 1079.37672709 0 20946
0.13850000 0.13851100 11940.50580768 0 416.96935865 0 3219.07913917 0 -149.88052491 0 579.02390469 0 20955
0.13950000 0.13949800 11461.95992901 0 453.85459432 0 3194.32142088 0 -317.51220096 0 1096.00514450 0 20506
0.14050000 0.14048300 11401.61575875 0 208.09327264 0 3409.06916074 0 -381.53791923 0 989.99981392 0 21447
0.14150000 0.14148400 11232.54135877 0 66.92733171 0 3685.43438821 0 46.76318881 0 721.65427131 0 21771
0.14250000 0.14249400 11238.63113742 0 39.62596823 0 3627.08323642 0 -7.73947754 0 674.66000308 0 22470
0.14350000 0.14350900 11223.79422217 0 17.26009354 0 3709.89315374 0 266.36138200 0 520.92630914 0 22519
0.14450000 0.14449900 11325.88105699 0 169.27038013 0 4032.14209526 0 -29.24964975 0 582.71763225 0 22218
0.14550000 0.14550500 11114.62109945 0 -44.21146083 0 3564.55781817 0 359.79298052 0 870.65565363 0 23559
0.14650000 0.14650700 11215.93287154 0 -23.21866514 0 3560.91502330 0 410.61827313 0 804.48522605 0 23044
0.14750000 0.14750500 11312.81571371 0 83.86654928 0 3183.92450788 0 393.45063350 0 145.77047793 0 23649
0.14850000 0.14849900 11120.15726186 0 169.89707371 0 3186.80331233 0 -24.58997257 0 211.49690529 0 23640
0.14950000 0.14949500 10872.65758519 0 293.81521139 0 2730.94462722 0 108.90627968 0 125.29664211 0 24457
0.15050000 0.15050000 10706.69450848 0 208.36011567 0 2868.34110589 0 -121.62727367 0 -86.43599297 0 24591
0.15150000 0.15149900 10581.09005574 0 75.28682622 0 2972.78634591 0 92.32348025 0 249.01104901 0 25020
0.15250000 0.15250500 10469.34815367 0 180.50989705 0 2701.97942549 0 111.51824111 0 -190.59899943 0 25297
0.15350000 0.15350100 10359.56605310 0 292.48653241 0 3297.77015166 0 -190.16496430 0 -223.51259218 0 25452
0.15450000 0.15450400 10053.75951393 0 348.78487518 0 3070.62140801 0 -246.85526737 0 -249.09409145 0 26061
0.15550000 0.15549900 9907.32801820 0 304.86982049 0 3234.91256367 0 -206.99268355 0 179.65400634 0 26128
0.15650000 0.15649500 9585.33374015 0 158.11058395 0 3077.38659847 0 323.37942589 0 212.15460139 0 26331
0.15750000 0.15749700 9519.09909309 0 1.09744455 0 3039.39745202 0 428.12140421 0 51.66446411 0 27345
0.15850000 0.15849900 9485.52780424 0 96.41127185 0 2654.09162065 0 459.88458241 0 -182.82290571 0 26980
0.15950000 0.15949700 9276.54874561 0 179.85552266 0 2473.45771356 0 256.46161638 0 -187.82316760 0 27777
0.16050000 0.16050000 9194.80177147 0 152.97191800 0 2321.96616539 0 -17.37602078 0 -287.89816100 0 28224
0.16150000 0.16150500 8996.82860372 0 47.78317137 0 2315.96496534 0 44.89473400 0 189.01344251 0 28075
0.16250000 0.16249700 9034.20877230 0 53.38676424 0 2481.73981253 0 -90.08764570 0 -19.19243567 0 28590
0.16350000 0.16349900 8973.42170905 0 156.24600445 0 2697.48406162 0 71.66285431 0 135.58615357 0 29163
0.16450000 0.16449100 9061.92280132 0 35.14876297 0 2665.42968127 0 -0.84656117 0 141.32161782 0 28996
0.16550000 0.16550500 8844.25196771 0 128.81542694 0 2829.46617346 0 -34.48619505 0 180.40692443 0 30777
0.16650000 0.16650700 8859.64249921 0 293.88939596 0 2936.71271165 0 -333.13303682 0 56.97430820 0 29211
0.16750000 0.16749900 8585.93462970 0 269.40516409 0 3090.09762736 0 -174.20420807 0 248.65341292 0 30922
0.16850000 0.16850800 8356.18388971 0 142.73001754 0 2942.30423568 0 141.03927354 0 675.15161430 0 30867
0.16950000 0.16949900 8383.80934013 0 -24.78805646 0 2824.78258006 0 292.60611352 0 230.25120907 0 30852
0.17050000 0.17049200 8407.95808056 0 -113.34517470 0 2801.46426399 0 586.26077620 0 -42.14315055 0 31257
0.17150000 0.17149500 8333.31953896 0 81.25071254 0 2639.49829654 0 395.36836016 0 -93.19431860 0 32608
0.17250000 0.17250900 8153.52712855 0 274.94132650 0 2309.14441325 0 74.93871233 0 161.91835645 0 32361
0.17350000 0.17350400 8024.61205069 0 196.27910206 0 2179.26604313 0 96.13501734 0 292.91613861 0 32508
0.17450000 0.17449800 7869.59950323 0 82.49956005 0 2216.87873054 0 -27.28896247 0 429.35818289 0 32791
0.17550000 0.17549800 7824.00366963 0 129.55616547 0 2058.88772770 0 164.43288142 0 327.47729330 0 33633
0.17650000 0.17650100 7776.55875778 0 43.96798041 0 2127.68008180 0 71.04070038 0 484.27912845 0 33984
0.17750000 0.17750300 7818.94361718 0 30.17396743 0 2100.50859670 0 -120.30523808 0 282.27452723 0 34069
0.17850000 0.17849800 7698.04490249 0 179.85330819 0 2116.33094886 0 27.80426847 0 239.67375749 0 34536
