### header ###
fiducial parameters:
Omega_m = 0.31
Omega_nu = 0
Omega_de = 0.69
Omega_k = 0
H_0 = 100
w_de = -1
zeff = 0
beta = 0
fgrowth = 0
b_1 = 2
gamma = 0.55
Lx = 3500 Ly = 3500 Lz = 3500
nx = 700 ny = 700 nz = 700
xoffset = -685.467585 yoffset = -31.7331281 zoffset = 572.489161
bins = 400 dk = 0.001
kx_ny = 0.628318531 ky_ny = 0.628318531 kz_ny = 0.628318531
############################
A(data) = 8.02842111 (not used)
A(ran) = 8.03137398 (used)
Ngal = 477229
weighted Ngal = 0
Nran = 23820508
weighted Nran = 0
SN(data) = 3480.67609
SN(ran) = 69.9561801
SN(data+ran) = 3550.63227
############################
13 columns: k_central k_mean P_0(k) sigma^{lin}_{P_0(k)} P^img_1(k) sigma^{lin}_{P_1(k)} P_2(k) sigma^{lin}_{P_2(k)} P^img_3(k) sigma^{lin}_{P_3(k)} P_4(k) sigma^{lin}_{P_4(k)} N_modes
### header ###
0.00050000 0 0 0 0 0 0 0 0 0 0 0 0
0.00150000 0.00179520 58951.60396918 0 -60569.60279493 0 -3397.52072595 0 -70106.19616123 0 -32808.62711663 0 3
0.00250000 0.00253879 82715.91328095 0 -23620.92270536 0 10421.15032374 0 14409.85568873 0 75768.69379673 0 6
0.00350000 0.00331552 93461.05090120 0 -377.39576251 0 25402.79193843 0 -87907.61566516 0 61154.88588484 0 7
0.00450000 0.00420575 69859.94765726 0 28606.67984795 0 10418.67012298 0 -16083.99120131 0 52068.16107593 0 24
0.00550000 0.00557378 60891.14310766 0 -10336.93422117 0 -8823.40278008 0 33151.86918601 0 1308.66021497 0 45
0.00650000 0.00659388 58192.81754936 0 -26031.36781838 0 21273.47912056 0 6611.96056103 0 -12955.50582380 0 40
0.00750000 0.00754703 92026.96339069 0 -14169.14334717 0 -19889.99213447 0 -13890.01003850 0 -39906.43021837 0 57
0.00850000 0.00846663 92691.52432630 0 -5137.73587305 0 -20219.06162808 0 -13157.02213550 0 -9065.36629434 0 75
0.00950000 0.00948925 92662.62555853 0 12679.25131958 0 -11478.78986274 0 -49475.13332665 0 -6196.52693383 0 112
0.01050000 0.01054430 88027.52894295 0 1703.77612612 0 1323.06530955 0 -13446.78487601 0 -14093.85153841 0 105
0.01150000 0.01145670 93163.86970307 0 62.41679874 0 -2958.40339597 0 -10184.50152539 0 -20438.95799898 0 144
0.01250000 0.01249090 85684.73573457 0 5632.22589945 0 14938.00558258 0 -8475.18923686 0 -29419.60993614 0 169
0.01350000 0.01339930 90505.40451411 0 -372.41985974 0 24502.61193067 0 -1735.94122972 0 -52748.99832902 0 180
0.01450000 0.01448870 91790.67997906 0 -594.03797715 0 19818.02202315 0 1616.82515932 0 -24120.72744768 0 267
0.01550000 0.01550050 87857.12586399 0 598.24435335 0 16214.09101793 0 2502.72186806 0 -19415.65373924 0 238
0.01650000 0.01653350 86215.21081663 0 3379.50605347 0 21628.45785425 0 -65.78976105 0 -20765.48085788 0 315
0.01750000 0.01747870 85666.46639862 0 3175.00021407 0 30979.58977984 0 8196.39917025 0 -5796.68313998 0 297
0.01850000 0.01844180 81761.92177457 0 7898.42076473 0 12719.55458192 0 16084.87698730 0 -3785.39533667 0 388
0.01950000 0.01947590 74833.85741230 0 -579.72256839 0 9189.79708066 0 6004.47745985 0 8084.93407630 0 399
0.02050000 0.02045430 78364.37890397 0 -2113.74002485 0 21080.26705248 0 -430.75772474 0 -11650.63234392 0 462
0.02150000 0.02154770 78098.86455482 0 2788.88610300 0 26532.05834668 0 -22370.85723334 0 -12387.49556061 0 571
0.02250000 0.02255340 77203.11347699 0 9106.18995595 0 43521.87644140 0 -17550.40990029 0 -3686.94022439 0 510
0.02350000 0.02348930 74286.55239651 0 3259.81422218 0 45173.31368811 0 -22533.73113142 0 1024.17343724 0 555
0.02450000 0.02439640 72007.42505584 0 5720.92629357 0 53451.09444577 0 1453.09869222 0 6350.26616394 0 592
0.02550000 0.02547300 71986.49836193 0 3749.81995703 0 63558.68760297 0 11379.02821612 0 -9087.94276465 0 837
0.02650000 0.02652900 64564.71903599 0 5622.24973479 0 54791.84225806 0 15568.90665075 0 2640.40622718 0 723
0.02750000 0.02749970 64675.22083768 0 -1093.61130787 0 48832.93848716 0 25953.86154465 0 -5506.46643416 0 826
0.02850000 0.02848090 63230.28244885 0 -4446.46848997 0 42248.66981051 0 15650.06679167 0 10527.54429292 0 831
0.02950000 0.02946900 67126.41210604 0 -1837.17549553 0 34237.73208097 0 14228.38028495 0 -4316.99979587 0 996
0.03050000 0.03053250 65610.61083836 0 3802.14776412 0 27254.19537135 0 3674.58350989 0 8383.59896596 0 1041
0.03150000 0.03150510 63334.69447189 0 6993.34678941 0 20824.05345617 0 2996.81329077 0 3691.03698457 0 1036
0.03250000 0.03246190 56100.25888188 0 2515.47718625 0 21053.69347291 0 -4111.75211070 0 2244.09450494 0 1059
0.03350000 0.03345080 56016.55210625 0 4970.69878083 0 23073.83913607 0 -1508.64854584 0 -286.00700793 0 1302
0.03450000 0.03451200 52052.88126768 0 795.57643350 0 22367.75698239 0 -2106.16655468 0 -9968.59119142 0 1339
0.03550000 0.03553350 49655.83366769 0 -369.69606783 0 22741.78011476 0 2249.57530573 0 -7865.66882792 0 1365
0.03650000 0.03647120 49323.66392313 0 399.16173864 0 17448.87668170 0 331.24741990 0 -14411.40581421 0 1308
0.03750000 0.03744890 53371.59515358 0 -984.61866406 0 19055.13884315 0 2893.37563231 0 -16522.89815712 0 1579
0.03850000 0.03847530 51799.10358283 0 -1104.77110406 0 14954.39262331 0 -2986.09528034 0 -15386.76690748 0 1662
0.03950000 0.03950240 52697.84418836 0 2716.41773706 0 16631.96055659 0 -3234.34787510 0 -17164.20721062 0 1683
0.04050000 0.04050350 51639.55138220 0 4010.76143603 0 20639.80997119 0 -4067.00884611 0 -10043.31831163 0 1822
0.04150000 0.04152450 46077.47973280 0 5440.51966754 0 20325.35594634 0 927.48103906 0 -10856.61378653 0 1887
0.04250000 0.04250150 43760.70648774 0 1325.16905127 0 20781.31428237 0 3983.51244465 0 -3762.96280659 0 1920
0.04350000 0.04349210 43007.23478383 0 -2932.00697360 0 18138.57179466 0 11629.37348027 0 -8811.11249953 0 2005
0.04450000 0.04448520 44293.94965101 0 -682.80480522 0 17243.04216333 0 9557.47577091 0 -9190.01852715 0 2151
0.04550000 0.04548030 44306.01848506 0 -44.14679845 0 9351.10978094 0 4244.85252735 0 -9307.38517023 0 2274
0.04650000 0.04648670 41993.67416994 0 -201.45984284 0 6624.23976925 0 1058.30941465 0 -5028.31915919 0 2311
0.04750000 0.04749250 41857.59529791 0 600.61936702 0 6649.82791191 0 -2531.38811701 0 -8767.27716558 0 2568
0.04850000 0.04851840 41026.72804352 0 2670.96584368 0 6600.57821111 0 -1693.54529799 0 -10504.58029125 0 2493
0.04950000 0.04949480 38317.55160690 0 3759.02105896 0 8471.67930989 0 -2083.24684230 0 -4919.36748298 0 2644
0.05050000 0.05050630 36896.08654668 0 2059.70707974 0 8391.89213725 0 -1453.90697194 0 -3326.74642571 0 2829
0.05150000 0.05149060 35581.58014421 0 2088.50619659 0 10887.53878975 0 1066.50514948 0 -581.98685882 0 2784
0.05250000 0.05249300 35403.64788437 0 148.80650940 0 13503.25373258 0 3052.44065065 0 4045.22958319 0 3055
0.05350000 0.05348950 35293.36752918 0 -825.57579036 0 14289.05662496 0 2960.42963141 0 6926.60281540 0 3009
0.05450000 0.05448610 35735.81762893 0 612.43243037 0 14569.07571962 0 2713.73823445 0 6349.70147537 0 3336
0.05550000 0.05550870 35031.72849372 0 391.24281193 0 10632.04489456 0 3215.51385058 0 7993.72026445 0 3349
0.05650000 0.05647670 34922.22320126 0 -309.83686540 0 11194.00966840 0 962.33893206 0 8288.31053857 0 3324
0.05750000 0.05747970 34989.98582915 0 -11.16079269 0 12717.56156345 0 -108.85722928 0 6011.08763777 0 3639
0.05850000 0.05849280 35311.19397214 0 229.00889422 0 11283.58477619 0 -1647.58407766 0 2762.34574041 0 3846
0.05950000 0.05951020 34225.88469341 0 1907.61762603 0 10043.50654115 0 -2969.79681821 0 387.27338348 0 3787
0.06050000 0.06049470 33024.42672734 0 445.01887911 0 12076.47395645 0 -1682.60584107 0 1883.28065608 0 3930
0.06150000 0.06148310 31972.44514632 0 1006.38353295 0 11163.45005190 0 402.26974022 0 -1406.09667337 0 4083
0.06250000 0.06249100 32535.14069361 0 120.79352761 0 12395.68908097 0 481.16226902 0 -701.69529859 0 4303
0.06350000 0.06350600 31906.56481365 0 218.80353244 0 11264.31893100 0 782.60520497 0 -4170.33578132 0 4470
0.06450000 0.06451750 32059.58434265 0 665.69917061 0 11413.13097656 0 853.22117097 0 -1690.45611936 0 4479
0.06550000 0.06550280 31544.61051533 0 -317.03941269 0 10550.55258389 0 1053.85834008 0 -1615.41897407 0 4636
0.06650000 0.06648880 31893.83164011 0 -79.84862405 0 11094.13729854 0 1060.89258803 0 -2315.28955353 0 4653
0.06750000 0.06749660 31363.46728130 0 1468.23456025 0 10733.55596850 0 1512.92246322 0 -2135.79609589 0 5220
0.06850000 0.06852730 30054.49704124 0 1152.54043502 0 10280.50965389 0 125.84140049 0 -1597.85826690 0 5029
0.06950000 0.06949320 29266.36896065 0 1182.11461461 0 7572.24114790 0 257.48691366 0 -1161.24328233 0 5040
0.07050000 0.07048030 28301.41585270 0 151.96101474 0 9313.55245515 0 1110.80884278 0 -1123.69702887 0 5475
0.07150000 0.07148790 27837.04254981 0 378.20514946 0 9731.98668237 0 617.97745064 0 -2192.27602479 0 5509
0.07250000 0.07249820 27683.91229757 0 919.94742925 0 9430.54263919 0 -684.11798294 0 -2821.43873796 0 5916
0.07350000 0.07351270 26651.97162447 0 882.73223831 0 9063.67222865 0 186.56867319 0 -1766.63371411 0 5721
0.07450000 0.07449140 26551.65636161 0 -523.50062466 0 9720.48253689 0 595.80954912 0 -412.69876297 0 6028
0.07550000 0.07549160 27061.31547301 0 -263.66748537 0 9430.99660450 0 1615.83972241 0 -360.58133004 0 6183
0.07650000 0.07648840 26900.65603989 0 595.12638668 0 8745.42039638 0 2038.92432605 0 194.45438293 0 6330
0.07750000 0.07749960 26201.10655785 0 542.16856430 0 7430.05035258 0 1775.66873117 0 1278.56563611 0 6583
0.07850000 0.07848650 25587.81048615 0 1095.74162317 0 6892.14574056 0 607.99353535 0 1711.48246419 0 6549
0.07950000 0.07947320 24988.13337397 0 563.66105401 0 7180.35835559 0 352.74987470 0 1123.39807610 0 6828
0.08050000 0.08048110 24393.54953121 0 659.19085808 0 6546.21309625 0 -628.85711700 0 962.02004910 0 7147
0.08150000 0.08149960 23984.20568266 0 232.18332975 0 8075.48938323 0 -986.95492459 0 1529.88526484 0 7386
0.08250000 0.08250610 24053.73988252 0 347.12624092 0 8820.95579630 0 -988.97673110 0 369.00404753 0 7227
0.08350000 0.08350160 23545.96306634 0 335.58444953 0 8726.22098515 0 -5.25173653 0 708.20471835 0 7798
0.08450000 0.08449610 23382.86772176 0 133.72378853 0 8399.39917348 0 206.30952111 0 -886.06722254 0 7371
0.08550000 0.08548940 23221.87611890 0 633.38237616 0 8846.15640758 0 866.30201551 0 561.78761665 0 8256
0.08650000 0.08650700 23054.24112114 0 -65.70184679 0 8197.09672671 0 1265.72173932 0 -1177.51959981 0 8037
0.08750000 0.08749060 22161.36884777 0 697.56421420 0 7130.63254483 0 1268.50089285 0 -385.09767166 0 8155
0.08850000 0.08849210 21839.27491879 0 1037.32514466 0 7140.77479437 0 152.31975807 0 -1012.74458356 0 8718
0.08950000 0.08949900 20903.22057863 0 540.77234414 0 6464.54362839 0 745.31029329 0 363.89749133 0 8571
0.09050000 0.09049190 20772.78859226 0 235.89809473 0 6152.73588917 0 558.03188407 0 781.97518969 0 8932
0.09150000 0.09150830 20701.81499017 0 -38.63056623 0 6129.42864543 0 552.04950697 0 398.12647627 0 9285
0.09250000 0.09250820 20184.29452815 0 679.70787597 0 6621.39418177 0 365.73549725 0 1143.18432055 0 9204
0.09350000 0.09350330 19592.36804335 0 968.53611226 0 6256.01853508 0 172.79137942 0 1140.37195005 0 9349
0.09450000 0.09448040 18889.93975685 0 398.12094011 0 7025.54510998 0 342.93093705 0 1819.48192047 0 9564
0.09550000 0.09549270 18911.97368324 0 341.18593866 0 7076.99820341 0 249.56687971 0 720.27465964 0 10155
0.09650000 0.09649430 18319.27213570 0 307.35887911 0 6554.36232732 0 262.94889149 0 1521.66959983 0 9913
0.09750000 0.09749140 18006.36823632 0 654.24152888 0 6096.62134699 0 -269.72293981 0 1280.51436528 0 10476
0.09850000 0.09850240 17747.49728206 0 82.37466423 0 6213.72225428 0 414.43822519 0 1622.43882800 0 10575
0.09950000 0.09950330 17816.58858893 0 -121.08030082 0 6235.40186627 0 -204.47262243 0 -52.36667095 0 10882
0.10050000 0.10051200 17513.87122839 0 73.13602712 0 5286.22682119 0 213.88409852 0 -256.32985571 0 10875
0.10150000 0.10150300 17546.97747960 0 442.55307237 0 5906.21057709 0 125.20474182 0 -396.73689951 0 11118
0.10250000 0.10250800 17338.59632651 0 202.81952433 0 5960.70855984 0 -571.62427002 0 -127.11582508 0 11575
0.10350000 0.10349800 16907.77216782 0 167.64496285 0 5740.53538083 0 643.02858554 0 -457.41434675 0 11364
0.10450000 0.10450100 16812.43945113 0 484.85267488 0 5927.70195956 0 307.01563704 0 -158.07293804 0 12093
0.10550000 0.10551000 16491.67420113 0 261.98227753 0 5733.83662431 0 206.16668812 0 -625.57195823 0 12067
0.10650000 0.10649700 16222.50598479 0 489.15648754 0 6231.21652749 0 -287.58924314 0 -791.28258593 0 12054
0.10750000 0.10749900 15799.54317672 0 380.59344992 0 5807.36793343 0 -234.06562497 0 -414.31421516 0 12807
0.10850000 0.10850100 15699.33863711 0 60.58333248 0 5748.77319049 0 -20.50804931 0 -378.63032673 0 12736
0.10950000 0.10950300 15587.28670995 0 111.34662007 0 5721.56848841 0 103.49789190 0 -3.91101086 0 12933
0.11050000 0.11050200 15739.97406919 0 125.76278699 0 5582.87654773 0 -62.03867885 0 -1261.85749796 0 13428
0.11150000 0.11150900 15218.57829348 0 378.75765847 0 5967.30766544 0 232.85099094 0 -402.23984494 0 13453
0.11250000 0.11250000 15392.74596288 0 221.57050641 0 6262.68407462 0 87.68627989 0 -883.02897661 0 13668
0.11350000 0.11349100 15052.71486770 0 247.35573645 0 6565.46786911 0 337.84984719 0 -283.50244805 0 13791
0.11450000 0.11448600 14936.89835010 0 187.65376103 0 6408.61731573 0 739.78520320 0 -630.80141724 0 14205
0.11550000 0.11549300 14796.39054815 0 281.80506066 0 6370.37350581 0 261.49177354 0 7.07497197 0 14776
0.11650000 0.11649800 14405.20531231 0 357.55194197 0 6065.98422422 0 42.26594264 0 321.60563945 0 14553
0.11750000 0.11747300 14114.22461607 0 283.06730569 0 5699.56777900 0 749.88094897 0 1084.94389200 0 14568
0.11850000 0.11849100 13984.56769245 0 -40.71249547 0 5250.48535668 0 853.01854742 0 -122.59610209 0 16015
0.11950000 0.11950300 13909.71877667 0 -25.37699342 0 4619.38498666 0 1254.39475103 0 409.60958434 0 15270
0.12050000 0.12050700 14018.55972964 0 -5.32164719 0 4241.76334872 0 215.55712680 0 -604.42713953 0 15999
0.12150000 0.12150000 13761.68179385 0 133.84004794 0 3725.60478265 0 -204.65420855 0 -485.52144330 0 15670
0.12250000 0.12250700 13870.07985382 0 10.75674142 0 3755.76579546 0 -295.75176100 0 -652.65375751 0 16887
0.12350000 0.12352200 13734.99749103 0 145.09728059 0 3693.57254695 0 -227.72893348 0 -1211.04659936 0 16407
0.12450000 0.12449800 13640.32911383 0 280.28261599 0 4192.14826121 0 -367.17268501 0 -1537.79090476 0 16306
0.12550000 0.12549900 13195.88599561 0 330.19333458 0 4003.86337767 0 -243.82698653 0 -1205.31113511 0 17523
0.12650000 0.12650100 13133.54880689 0 448.81004313 0 4264.69413342 0 294.52605464 0 -1258.29220937 0 17154
0.12750000 0.12750600 12767.05485539 0 84.29272306 0 4180.19015041 0 462.74013498 0 -773.44396342 0 18007
0.12850000 0.12850300 12795.95362316 0 236.47496285 0 3983.31314281 0 542.92591132 0 -932.22995918 0 17496
0.12950000 0.12949900 12444.29658692 0 237.79589120 0 3824.12632889 0 278.36599657 0 -214.43992923 0 18405
0.13050000 0.13049000 12601.08070636 0 -152.90880575 0 3773.62545539 0 135.95707645 0 225.16126135 0 18100
0.13150000 0.13148800 12550.70162843 0 -82.39570165 0 3862.34799416 0 602.85265494 0 116.99461296 0 19059
0.13250000 0.13249300 12570.74253635 0 171.58228155 0 3792.11623784 0 291.98938503 0 155.71674732 0 18957
0.13350000 0.13349100 12429.01677868 0 209.39648527 0 3610.41938756 0 542.01465899 0 89.60732825 0 19468
0.13450000 0.13450700 12228.60769946 0 131.36759781 0 3137.16608017 0 157.96000033 0 497.87372887 0 19953
0.13550000 0.13551000 12114.23058408 0 171.99085034 0 3426.36413210 0 51.89532209 0 342.77149557 0 19956
0.13650000 0.13649900 11922.90081121 0 319.43435655 0 3223.60772003 0 -242.69428770 0 293.72441832 0 19723
0.13750000 0.13749600 11610.32908158 0 326.18293853 0 3184.17917135 0 133.18678078 0 568.42326091 0 20946
0.13850000 0.13851100 11456.53448985 0 128.79549676 0 3506.29524497 0 17.65493265 0 526.58758882 0 20955
0.13950000 0.13949800 11500.49161938 0 18.72695514 0 3242.03206852 0 113.14365839 0 433.03862366 0 20506
0.14050000 0.14048300 11424.86764087 0 183.33001818 0 3511.99749225 0 -28.03390849 0 81.74752775 0 21447
0.14150000 0.14148400 11172.30791176 0 267.29035005 0 3250.48025236 0 -23.47044981 0 102.73157630 0 21771
0.14250000 0.14249400 11161.56775668 0 138.61997057 0 3232.41021826 0 257.08498827 0 278.74688454 0 22470
0.14350000 0.14350900 10936.24594663 0 62.51811052 0 2894.08426110 0 191.70180298 0 50.79650457 0 22519
0.14450000 0.14449900 10928.22958346 0 -87.65361653 0 2343.92258551 0 564.96426664 0 -235.86930668 0 22218
0.14550000 0.14550500 10914.13451396 0 -63.45361124 0 2216.04830618 0 583.92119396 0 -244.75484735 0 23559
0.14650000 0.14650700 10915.50748224 0 114.16784844 0 2043.38647296 0 123.42541922 0 -322.04963968 0 23044
0.14750000 0.14750500 10633.98255140 0 355.53567162 0 2329.20746582 0 98.27773364 0 -418.47962375 0 23649
0.14850000 0.14849900 10270.98745455 0 518.37635273 0 2252.75306295 0 -489.84186444 0 -52.86005375 0 23640
0.14950000 0.14949500 10012.64797188 0 375.96411091 0 2636.30946699 0 -184.03975421 0 -14.67669872 0 24457
0.15050000 0.15050000 9835.75651058 0 0.90815983 0 2616.93289856 0 -151.63770286 0 254.11871245 0 24591
0.15150000 0.15149900 9971.19318776 0 -172.11928931 0 2995.01957414 0 10.73096504 0 34.88657032 0 25020
0.15250000 0.15250500 10077.39892742 0 96.61799215 0 2999.54815500 0 -32.50258806 0 -422.54095250 0 25297
0.15350000 0.15350100 9893.94157750 0 300.67451661 0 3271.89412856 0 -296.07507288 0 -193.03823259 0 25452
0.15450000 0.15450400 9747.67616664 0 352.72773005 0 3087.00844874 0 52.38560463 0 -191.91328438 0 26061
0.15550000 0.15549900 9498.83673867 0 9.94530609 0 2998.81738156 0 136.38336095 0 118.40301268 0 26128
0.15650000 0.15649500 9568.09413041 0 2.42187175 0 3162.77636747 0 149.16303826 0 -109.90876797 0 26331
0.15750000 0.15749700 9694.65080309 0 67.61492308 0 3507.61285162 0 -129.18524259 0 88.06019230 0 27345
0.15850000 0.15849900 9493.03484046 0 190.09188695 0 3410.15424857 0 -37.40508132 0 192.54219243 0 26980
0.15950000 0.15949700 9484.95204335 0 172.31084053 0 3475.83527939 0 -80.86406696 0 659.10227948 0 27777
0.16050000 0.16050000 9305.23713921 0 45.77708756 0 3452.38409543 0 307.04221062 0 587.97366484 0 28224
0.16150000 0.16150500 9224.35380641 0 53.04872616 0 3277.10919355 0 469.14436766 0 329.55113974 0 28075
0.16250000 0.16249700 9134.49081819 0 163.18613764 0 2938.98253824 0 231.11595764 0 332.35022345 0 28590
0.16350000 0.16349900 8993.37403837 0 71.42634945 0 2483.77712029 0 452.18931666 0 147.59519707 0 29163
0.16450000 0.16449100 8798.04715625 0 74.29131350 0 2442.48842104 0 366.40648013 0 313.32796942 0 28996
0.16550000 0.16550500 8713.54317323 0 142.22401230 0 2236.00063550 0 94.31184834 0 -265.50770576 0 30777
0.16650000 0.16650700 8722.31245449 0 159.43151230 0 2184.65826532 0 -76.78236513 0 -200.87411686 0 29211
0.16750000 0.16749900 8464.63731131 0 329.15032158 0 2190.06155983 0 -218.47136269 0 59.30990440 0 30922
0.16850000 0.16850800 8341.31375748 0 172.24772827 0 2309.73124647 0 -163.41754923 0 261.81729989 0 30867
0.16950000 0.16949900 8246.63430795 0 103.53465202 0 2447.88064323 0 72.25599875 0 -63.05434321 0 30852
0.17050000 0.17049200 8213.67199697 0 65.36635535 0 2431.59325342 0 207.77217522 0 -1.85158059 0 31257
0.17150000 0.17149500 8122.72392091 0 49.86875447 0 2325.12177797 0 30.32001139 0 -34.90306808 0 32608
0.17250000 0.17250900 8072.69915738 0 85.79977719 0 2044.05081245 0 199.85546298 0 -224.04406378 0 32361
0.17350000 0.17350400 8074.79182677 0 -63.90680150 0 1959.74613128 0 189.86268983 0 58.70524474 0 32508
0.17450000 0.17449800 8060.80748052 0 -28.32887522 0 1838.71454868 0 156.72322165 0 -256.83364649 0 32791
0.17550000 0.17549800 8082.13277812 0 6.25694861 0 1519.02331419 0 359.39216236 0 -406.94336852 0 33633
0.17650000 0.17650100 7978.56225177 0 108.07463737 0 1510.09902039 0 195.37892205 0 -538.85572472 0 33984
0.17750000 0.17750300 7900.52450645 0 135.63155010 0 1293.01502000 0 73.00792033 0 -648.58024920 0 34069
0.17850000 0.17849800 7828.05614051 0 144.04540973 0 1429.81359313 0 -54.07778803 0 -209.75301413 0 34536
