### header ###
fiducial parameters:
Omega_m = 0.31
Omega_nu = 0
Omega_de = 0.69
Omega_k = 0
H_0 = 100
w_de = -1
zeff = 0
beta = 0
fgrowth = 0
b_1 = 2
gamma = 0.55
Lx = 3500 Ly = 3500 Lz = 3500
nx = 700 ny = 700 nz = 700
xoffset = -685.467585 yoffset = -31.7331281 zoffset = 572.489161
bins = 400 dk = 0.001
kx_ny = 0.628318531 ky_ny = 0.628318531 kz_ny = 0.628318531
############################
A(data) = 8.07073917 (not used)
A(ran) = 8.07088588 (used)
Ngal = 479073
weighted Ngal = 0
Nran = 23820508
weighted Nran = 0
SN(data) = 3485.18897
SN(ran) = 70.300343
SN(data+ran) = 3555.48931
############################
13 columns: k_central k_mean P_0(k) sigma^{lin}_{P_0(k)} P^img_1(k) sigma^{lin}_{P_1(k)} P_2(k) sigma^{lin}_{P_2(k)} P^img_3(k) sigma^{lin}_{P_3(k)} P_4(k) sigma^{lin}_{P_4(k)} N_modes
### header ###
0.00050000 0 0 0 0 0 0 0 0 0 0 0 0
0.00150000 0.00179520 10811.73765404 0 -17497.48418766 0 3612.13559791 0 -45467.17318879 0 474.83222092 0 3
0.00250000 0.00253879 20563.41092994 0 -14125.51838739 0 -6823.88485806 0 26950.59222483 0 68034.89635741 0 6
0.00350000 0.00331552 23147.24864962 0 -2116.91778208 0 12180.00019350 0 -22059.06056644 0 -31508.62545967 0 7
0.00450000 0.00420575 35990.37037651 0 -7486.05417151 0 4529.24519032 0 -19619.71668565 0 11044.06824571 0 24
0.00550000 0.00557378 51321.33276691 0 -12103.71187550 0 8433.29155975 0 -6620.43088951 0 2651.05780365 0 45
0.00650000 0.00659388 63547.83672465 0 -18189.72593532 0 6111.56898550 0 -2960.64000558 0 23269.48711562 0 40
0.00750000 0.00754703 80441.87920969 0 -20158.93890432 0 25986.30345637 0 -7449.06153429 0 7861.14024707 0 57
0.00850000 0.00846663 98456.77313613 0 5686.29206154 0 42039.73504118 0 -4343.71731565 0 21356.96444969 0 75
0.00950000 0.00948925 90736.04104008 0 9671.04460657 0 60811.53309222 0 15048.61810752 0 31860.50394241 0 112
0.01050000 0.01054430 95409.11572979 0 10767.29334222 0 49118.27229774 0 28964.20521635 0 47492.63356787 0 105
0.01150000 0.01145670 89700.44649980 0 5489.08288419 0 71529.21134692 0 38086.02929494 0 5009.66229187 0 144
0.01250000 0.01249090 83251.37090918 0 9935.92783321 0 63960.05937765 0 16227.04563797 0 7241.48866092 0 169
0.01350000 0.01339930 92137.46519238 0 46.59798972 0 74662.45782410 0 17255.88606012 0 4589.17968456 0 180
0.01450000 0.01448870 81175.08855918 0 -6624.56086667 0 57608.42024543 0 15610.09569907 0 3142.61366398 0 267
0.01550000 0.01550050 88464.88577328 0 -1487.04644012 0 41402.52274787 0 3356.33167763 0 -23329.72056263 0 238
0.01650000 0.01653350 87288.89415429 0 3213.80871256 0 45798.23570087 0 9125.02398047 0 -31609.82650851 0 315
0.01750000 0.01747870 80928.28643898 0 8751.79805548 0 30769.99067102 0 -3828.26737837 0 -25763.86045076 0 297
0.01850000 0.01844180 71673.04084632 0 5427.05572056 0 26416.79544532 0 14644.36752839 0 -21205.49504618 0 388
0.01950000 0.01947590 74306.59330443 0 -4534.09486859 0 22032.81915662 0 7155.24632290 0 -13842.06687203 0 399
0.02050000 0.02045430 75027.40165013 0 900.48228222 0 15561.15602337 0 13298.08355369 0 -16726.29676404 0 462
0.02150000 0.02154770 72924.54572057 0 6279.52508067 0 11490.74797354 0 3476.31138936 0 -10458.43084140 0 571
0.02250000 0.02255340 65332.91693191 0 4226.49461280 0 20742.11825251 0 3658.63936215 0 8165.90598770 0 510
0.02350000 0.02348930 66130.23504210 0 1443.27754011 0 21030.33086754 0 7204.57352997 0 -4636.92354918 0 555
0.02450000 0.02439640 65750.56502407 0 4737.42704156 0 24609.23841868 0 1673.63725796 0 6151.14147440 0 592
0.02550000 0.02547300 61234.60662354 0 3605.21539490 0 23249.44620770 0 5294.08817181 0 3252.79436825 0 837
0.02650000 0.02652900 62212.29290502 0 1368.47291364 0 26313.49065476 0 2285.67108464 0 17060.45952707 0 723
0.02750000 0.02749970 60485.56384956 0 -2368.80209938 0 18968.55326306 0 12310.87507286 0 12233.25807588 0 826
0.02850000 0.02848090 63565.10955137 0 -3104.30342010 0 20992.35279342 0 5255.13573310 0 13659.70568227 0 831
0.02950000 0.02946900 64226.90240578 0 3397.24391783 0 25072.28304259 0 2012.31752952 0 10418.63690600 0 996
0.03050000 0.03053250 61519.94043411 0 3673.40984346 0 27324.94752694 0 -2568.00429519 0 8129.86557042 0 1041
0.03150000 0.03150510 57611.52049638 0 4952.35193861 0 23179.02622185 0 -5210.82428918 0 14704.15808241 0 1036
0.03250000 0.03246190 54618.78182115 0 246.92391578 0 25008.39572839 0 -3.31225275 0 8067.60588796 0 1059
0.03350000 0.03345080 59188.33027380 0 -2032.33629279 0 33946.41921499 0 2093.97592505 0 8669.53068208 0 1302
0.03450000 0.03451200 56512.26008839 0 2283.46769200 0 30697.13477371 0 2516.19688736 0 -2930.30183558 0 1339
0.03550000 0.03553350 55623.81674494 0 4773.98785811 0 27147.45816010 0 -73.09096276 0 -5072.61953079 0 1365
0.03650000 0.03647120 52410.18518957 0 1591.10414876 0 22651.42994424 0 -1412.83971918 0 -6975.23246600 0 1308
0.03750000 0.03744890 49498.27448552 0 1684.45491931 0 23160.31399291 0 -640.49080869 0 -8095.75173765 0 1579
0.03850000 0.03847530 47507.02759013 0 3161.24838665 0 19549.62886955 0 2388.20081246 0 -17766.98457374 0 1662
0.03950000 0.03950240 46313.87386767 0 141.46334358 0 20543.92363826 0 3749.11132824 0 -9726.48373694 0 1683
0.04050000 0.04050350 46484.83056287 0 267.22613057 0 16511.05076957 0 4028.11176902 0 -12243.88750771 0 1822
0.04150000 0.04152450 43718.52093018 0 1083.85437524 0 18642.47329715 0 3246.93710842 0 -6365.15844082 0 1887
0.04250000 0.04250150 45042.99242499 0 1355.83939102 0 16510.60787657 0 3936.57685975 0 -902.89826350 0 1920
0.04350000 0.04349210 43911.06865878 0 625.84655189 0 19476.33007925 0 4765.04141965 0 6050.46082482 0 2005
0.04450000 0.04448520 43994.88615766 0 -1094.89459032 0 16958.48341549 0 6466.76916568 0 12363.69006225 0 2151
0.04550000 0.04548030 45286.25140126 0 -1571.09645782 0 15328.52647893 0 6912.08699756 0 10152.41392806 0 2274
0.04650000 0.04648670 45634.14384706 0 569.49727642 0 16081.77673635 0 3806.46597080 0 11752.38700901 0 2311
0.04750000 0.04749250 44276.67682429 0 2697.03009630 0 14259.82568744 0 62.70611859 0 15933.96120002 0 2568
0.04850000 0.04851840 42118.90216363 0 1861.43495921 0 11704.66528904 0 -1594.59193108 0 13279.70349449 0 2493
0.04950000 0.04949480 40208.37251618 0 869.51298971 0 12996.14125589 0 918.81030150 0 12668.51116450 0 2644
0.05050000 0.05050630 40062.43927507 0 -135.74780951 0 13553.30064076 0 1275.43216818 0 8295.60720063 0 2829
0.05150000 0.05149060 40405.90279094 0 579.21213422 0 13727.80047990 0 -273.92488708 0 6416.95477632 0 2784
0.05250000 0.05249300 39186.61838191 0 2046.05490324 0 14156.07800389 0 -2110.67299088 0 8235.22981339 0 3055
0.05350000 0.05348950 37758.17775706 0 1709.48944573 0 16516.36548548 0 -1798.94275794 0 6756.58726781 0 3009
0.05450000 0.05448610 36955.10203796 0 717.04596972 0 18332.44820223 0 221.87167365 0 5760.47663782 0 3336
0.05550000 0.05550870 35455.02347153 0 725.76431828 0 17712.39801239 0 2136.29435051 0 5255.40146890 0 3349
0.05650000 0.05647670 35905.00275216 0 1465.18967093 0 15289.99478857 0 4121.00857425 0 4057.28734492 0 3324
0.05750000 0.05747970 33868.35932502 0 517.72972896 0 12436.43523630 0 2414.65259645 0 4155.29956422 0 3639
0.05850000 0.05849280 34056.36740044 0 235.90473812 0 10296.81918835 0 3755.81008476 0 3275.94659944 0 3846
0.05950000 0.05951020 32493.73019878 0 868.31717863 0 10602.35999172 0 1719.06700669 0 4519.19151938 0 3787
0.06050000 0.06049470 31619.12726136 0 591.68289366 0 7378.38688497 0 1186.75391871 0 2554.18603381 0 3930
0.06150000 0.06148310 31324.71414443 0 482.26507257 0 9470.05976646 0 -666.75768486 0 3282.04745042 0 4083
0.06250000 0.06249100 31390.92664685 0 241.84614762 0 9863.09408055 0 -929.61467605 0 4439.28255116 0 4303
0.06350000 0.06350600 31571.95915763 0 537.47168411 0 10807.95091895 0 -376.87204155 0 4566.93538400 0 4470
0.06450000 0.06451750 31248.75799618 0 260.43768822 0 10228.37007632 0 408.20339909 0 6378.04662691 0 4479
0.06550000 0.06550280 31837.91639978 0 -278.05707871 0 10713.01680596 0 1612.30765079 0 4273.82880140 0 4636
0.06650000 0.06648880 31931.36682125 0 388.98295044 0 11054.60909894 0 178.12602552 0 3315.09834000 0 4653
0.06750000 0.06749660 30654.28487666 0 1368.01894832 0 10964.08177122 0 -420.08953978 0 1687.64374886 0 5220
0.06850000 0.06852730 29693.20708240 0 1287.93282290 0 11537.03029128 0 -1436.58985592 0 923.53264803 0 5029
0.06950000 0.06949320 28520.09426787 0 809.40687443 0 11531.05123588 0 -734.93663216 0 466.86679044 0 5040
0.07050000 0.07048030 28996.75785131 0 156.65900216 0 13122.58720532 0 -1813.76860087 0 -1101.12388026 0 5475
0.07150000 0.07148790 28268.42032474 0 672.93382764 0 13799.54914473 0 -1443.98616890 0 -200.49322889 0 5509
0.07250000 0.07249820 28304.73755015 0 720.30012598 0 13378.80080162 0 -558.79255279 0 25.24069310 0 5916
0.07350000 0.07351270 28724.48938402 0 -275.91569109 0 15835.97112537 0 1245.11614283 0 -688.97984077 0 5721
0.07450000 0.07449140 28234.09611780 0 -307.43195645 0 13517.75847809 0 342.31088686 0 -1434.87364557 0 6028
0.07550000 0.07549160 28194.45719495 0 1495.89322765 0 14156.29945038 0 1704.14151284 0 -2450.54907351 0 6183
0.07650000 0.07648840 27177.57488361 0 1041.52044853 0 14233.69500087 0 642.49379225 0 -475.85862543 0 6330
0.07750000 0.07749960 26262.11506760 0 215.58923654 0 12212.10993548 0 2879.15876724 0 -319.18633648 0 6583
0.07850000 0.07848650 26358.33357028 0 -297.99833570 0 11346.80775090 0 2100.68575389 0 -86.95949249 0 6549
0.07950000 0.07947320 26200.77438811 0 -45.22889676 0 10336.85671489 0 2197.02605214 0 -827.70278396 0 6828
0.08050000 0.08048110 25667.97411783 0 458.55147450 0 8537.37141304 0 2480.32255495 0 38.44742998 0 7147
0.08150000 0.08149960 25300.15148736 0 249.03097919 0 7524.14296889 0 1365.21765014 0 -188.28266908 0 7386
0.08250000 0.08250610 24827.91683384 0 315.60333217 0 6700.81596770 0 -307.35998634 0 -1008.04659614 0 7227
0.08350000 0.08350160 24807.21158643 0 805.13406428 0 6352.05988056 0 -476.40227658 0 -2038.17140797 0 7798
0.08450000 0.08449610 23444.20840126 0 1025.03707857 0 6077.07869369 0 181.67359839 0 -1865.52064707 0 7371
0.08550000 0.08548940 22486.67375094 0 609.67431426 0 5933.53707474 0 -13.25634089 0 -1474.32433890 0 8256
0.08650000 0.08650700 22247.17936511 0 181.85297005 0 6447.21544005 0 238.10038013 0 -1410.63632655 0 8037
0.08750000 0.08749060 22149.41073696 0 472.96542695 0 7184.78728552 0 727.47277800 0 -1761.21934728 0 8155
0.08850000 0.08849210 21196.85863282 0 1098.14431765 0 7537.24152915 0 -489.68795913 0 -973.58398514 0 8718
0.08950000 0.08949900 20870.66794366 0 1218.52041862 0 8017.99080045 0 -385.09434996 0 1436.85559172 0 8571
0.09050000 0.09049190 20002.70840113 0 571.40503799 0 9312.21270385 0 -745.19624834 0 1256.43205880 0 8932
0.09150000 0.09150830 19670.64937981 0 -2.40860711 0 9149.96992828 0 1675.15416646 0 2938.66144082 0 9285
0.09250000 0.09250820 19774.83995636 0 -266.12664871 0 8607.55888007 0 1820.55593598 0 1988.43452488 0 9204
0.09350000 0.09350330 19827.87639224 0 -125.96762500 0 7889.91721927 0 2196.50565287 0 2099.62281071 0 9349
0.09450000 0.09448040 19850.68538137 0 252.62062690 0 6367.25111021 0 1730.12825919 0 1786.65247739 0 9564
0.09550000 0.09549270 19274.48159780 0 740.52704896 0 5613.50259818 0 -89.01008705 0 1584.60469410 0 10155
0.09650000 0.09649430 18505.50863915 0 820.29429142 0 5794.21401155 0 -1107.04757404 0 1601.36819387 0 9913
0.09750000 0.09749140 18469.85575323 0 403.02265831 0 6598.38589080 0 -835.09466801 0 1491.07676635 0 10476
0.09850000 0.09850240 18277.86164088 0 -109.04745183 0 7111.08989153 0 -852.48929030 0 1920.68296932 0 10575
0.09950000 0.09950330 18192.93690952 0 -185.58212905 0 7446.82492468 0 766.35324660 0 1340.80317391 0 10882
0.10050000 0.10051200 18384.82029862 0 314.72529681 0 6949.89898682 0 954.08008497 0 1781.96888399 0 10875
0.10150000 0.10150300 18004.48594110 0 601.79303345 0 6552.62397232 0 650.06836966 0 1777.40708616 0 11118
0.10250000 0.10250800 17592.48473460 0 431.25044320 0 6927.71004788 0 481.26524164 0 1474.55685772 0 11575
0.10350000 0.10349800 16687.54362717 0 648.96224441 0 6293.99660921 0 479.29768952 0 711.30496930 0 11364
0.10450000 0.10450100 16654.76954571 0 320.60802298 0 5831.10699784 0 -22.26456292 0 802.66936478 0 12093
0.10550000 0.10551000 16178.43813201 0 -2.71350572 0 5077.42491976 0 213.98264221 0 -22.26445219 0 12067
0.10650000 0.10649700 16211.98727621 0 323.00518131 0 4955.06465819 0 -8.34018438 0 -730.85205154 0 12054
0.10750000 0.10749900 16019.77171736 0 280.24275562 0 4615.27715416 0 -297.07933274 0 -544.39520882 0 12807
0.10850000 0.10850100 16074.13683222 0 -121.14230584 0 4344.62524629 0 -255.51825430 0 -1305.28315590 0 12736
0.10950000 0.10950300 15727.90523514 0 139.19683869 0 4976.83284878 0 -68.77342042 0 -1387.93806067 0 12933
0.11050000 0.11050200 15990.87294959 0 294.87151118 0 5171.79434419 0 -300.15301011 0 -1683.87915842 0 13428
0.11150000 0.11150900 15382.89159379 0 682.26890470 0 5608.23217157 0 -539.64075255 0 -1155.03170811 0 13453
0.11250000 0.11250000 14928.48338324 0 621.49623547 0 5785.67724911 0 41.44991230 0 -837.44975150 0 13668
0.11350000 0.11349100 14662.85831084 0 97.24568225 0 6153.63274748 0 197.81040458 0 -1022.82925700 0 13791
0.11450000 0.11448600 14463.44574085 0 140.64399154 0 5966.23364993 0 844.64011923 0 -246.90730729 0 14205
0.11550000 0.11549300 14507.95648662 0 -139.00085854 0 5895.88009803 0 504.39975711 0 -861.32279104 0 14776
0.11650000 0.11649800 14654.88623697 0 11.34669703 0 5987.63645380 0 387.43503943 0 -616.45943491 0 14553
0.11750000 0.11747300 14462.78140136 0 122.69575301 0 5566.35663910 0 348.12275016 0 -455.54866001 0 14568
0.11850000 0.11849100 14252.96084605 0 355.14703302 0 5335.04470132 0 225.19780002 0 -578.07389922 0 16015
0.11950000 0.11950300 14109.35279315 0 273.80309151 0 5272.86252514 0 -8.97708665 0 90.71799315 0 15270
0.12050000 0.12050700 14024.87095479 0 -193.71032270 0 5289.85854373 0 -67.90114267 0 -77.34140681 0 15999
0.12150000 0.12150000 14252.85012280 0 170.52598176 0 5532.43103586 0 870.55378824 0 552.98733288 0 15670
0.12250000 0.12250700 13885.58110857 0 296.86342241 0 5064.43708275 0 -51.70498882 0 648.45513193 0 16887
0.12350000 0.12352200 13746.18053910 0 321.02544963 0 5384.99195857 0 949.97889586 0 992.82104228 0 16407
0.12450000 0.12449800 13498.27118641 0 -27.79972882 0 4876.76117707 0 548.86510635 0 862.70904610 0 16306
0.12550000 0.12549900 13387.54793823 0 365.71667429 0 4826.13850800 0 673.18184772 0 664.25976838 0 17523
0.12650000 0.12650100 13118.15827539 0 135.28830803 0 4460.10959415 0 -223.45058717 0 741.82361820 0 17154
0.12750000 0.12750600 13153.03609857 0 -43.88394146 0 4538.10305017 0 350.15009283 0 736.65505697 0 18007
0.12850000 0.12850300 13089.48095411 0 -72.99275124 0 3866.57762224 0 82.98652090 0 655.34986860 0 17496
0.12950000 0.12949900 13153.25754506 0 131.73519899 0 4232.36294495 0 238.27200117 0 324.77121712 0 18405
0.13050000 0.13049000 12980.64000114 0 245.83107732 0 3602.08192698 0 383.05593496 0 419.47945468 0 18100
0.13150000 0.13148800 12913.76315924 0 167.03709221 0 3735.09376502 0 -40.06365723 0 379.41646179 0 19059
0.13250000 0.13249300 12674.04732691 0 82.23493149 0 3592.02825604 0 -122.41008703 0 331.43011326 0 18957
0.13350000 0.13349100 12657.10666994 0 0.53365616 0 3649.92544252 0 -60.21938516 0 186.06266795 0 19468
0.13450000 0.13450700 12685.11965173 0 -67.87456909 0 3542.15850506 0 176.02560550 0 284.47459817 0 19953
0.13550000 0.13551000 12759.74712101 0 -35.79660469 0 3590.63314311 0 90.00150301 0 -322.33198396 0 19956
0.13650000 0.13649900 12637.95154800 0 233.54744017 0 3405.54816145 0 166.28417413 0 -289.77492006 0 19723
0.13750000 0.13749600 12399.34294816 0 311.21647707 0 3354.18364661 0 -36.66378917 0 -198.00084857 0 20946
0.13850000 0.13851100 12159.84856233 0 336.42151729 0 3425.42298449 0 226.71803022 0 -81.28492602 0 20955
0.13950000 0.13949800 12013.47242823 0 296.29430491 0 3556.87362474 0 -247.79530774 0 -69.12673831 0 20506
0.14050000 0.14048300 11792.35810160 0 180.56304421 0 3656.23666766 0 64.89068828 0 -88.17445869 0 21447
0.14150000 0.14148400 11614.64728826 0 204.72950036 0 3707.76726737 0 -15.06821612 0 637.55996431 0 21771
0.14250000 0.14249400 11497.94498468 0 108.45596823 0 3832.96204409 0 229.05207629 0 214.35024340 0 22470
0.14350000 0.14350900 11311.48703473 0 365.64027525 0 3772.15283619 0 160.88752301 0 402.85989513 0 22519
0.14450000 0.14449900 11114.06748321 0 313.49959045 0 3448.94060241 0 422.31175537 0 187.20201017 0 22218
0.14550000 0.14550500 10727.05651383 0 178.59770656 0 3439.68413886 0 188.06675874 0 481.76792518 0 23559
0.14650000 0.14650700 10657.79912209 0 152.55116965 0 3174.49088713 0 291.24532480 0 296.17693827 0 23044
0.14750000 0.14750500 10550.53043924 0 -58.60946913 0 2956.98613839 0 205.96295735 0 48.93425026 0 23649
0.14850000 0.14849900 10435.00180209 0 165.39728091 0 3007.12162517 0 112.35420163 0 24.51656306 0 23640
0.14950000 0.14949500 10343.83227953 0 246.57181585 0 2893.48635556 0 50.49876976 0 -76.97613082 0 24457
0.15050000 0.15050000 10036.73027836 0 300.04117963 0 2460.97920349 0 206.02164067 0 -99.99095446 0 24591
0.15150000 0.15149900 10081.36281970 0 -43.36387437 0 2622.03724030 0 88.21896944 0 -305.60834455 0 25020
0.15250000 0.15250500 10027.29665761 0 -70.83176561 0 2551.81655630 0 189.64788673 0 -258.38820090 0 25297
0.15350000 0.15350100 9871.08829907 0 247.75544737 0 2393.83662579 0 -68.62726574 0 -655.45394845 0 25452
0.15450000 0.15450400 9713.98308222 0 289.14933371 0 2170.07601353 0 -98.10179440 0 -311.59404335 0 26061
0.15550000 0.15549900 9667.78934308 0 77.51347074 0 2139.38352913 0 97.52226892 0 -434.13921274 0 26128
0.15650000 0.15649500 9501.64910917 0 74.02391685 0 2245.55605182 0 264.88765557 0 -642.54693941 0 26331
0.15750000 0.15749700 9383.54062033 0 221.82295542 0 1988.48988651 0 86.98772692 0 -457.64132940 0 27345
0.15850000 0.15849900 9246.95242137 0 164.75840777 0 2196.69388240 0 230.72178287 0 -237.69070411 0 26980
0.15950000 0.15949700 9099.38047619 0 -25.11280775 0 1943.15978870 0 3.46314640 0 -39.91373795 0 27777
0.16050000 0.16050000 9277.55632717 0 7.34435056 0 2053.71695201 0 366.77740301 0 84.97876430 0 28224
0.16150000 0.16150500 9219.81415324 0 -5.73641648 0 2086.82320322 0 41.11995702 0 182.77529471 0 28075
0.16250000 0.16249700 9223.80019017 0 175.39780468 0 2289.13672231 0 -0.85744858 0 426.45059039 0 28590
0.16350000 0.16349900 9183.33084296 0 128.51204524 0 2525.56407416 0 -252.58408823 0 363.55757096 0 29163
0.16450000 0.16449100 9080.92291071 0 195.83953076 0 2603.32501136 0 -127.92853372 0 549.67892223 0 28996
0.16550000 0.16550500 8894.64211796 0 206.99157632 0 3013.25569312 0 -223.02873159 0 607.06235283 0 30777
0.16650000 0.16650700 8851.24967700 0 126.49356043 0 2829.84263250 0 162.98683580 0 757.50203014 0 29211
0.16750000 0.16749900 8701.23074803 0 157.15947124 0 2842.06647910 0 174.33707597 0 821.14796767 0 30922
0.16850000 0.16850800 8614.34621518 0 159.21560196 0 2625.25928683 0 119.98746236 0 354.48712246 0 30867
0.16950000 0.16949900 8401.92366353 0 106.87461880 0 2573.15292623 0 52.12562644 0 582.24041505 0 30852
0.17050000 0.17049200 8295.16430763 0 190.35208658 0 2135.66322799 0 340.95341984 0 656.66858248 0 31257
0.17150000 0.17149500 8272.95322405 0 -12.64226975 0 2016.62466387 0 599.18439372 0 279.06687473 0 32608
0.17250000 0.17250900 8329.63245479 0 -219.16116853 0 1646.15574776 0 375.72384147 0 219.13127325 0 32361
0.17350000 0.17350400 8423.21574416 0 -75.92259911 0 1487.68863496 0 140.83554276 0 -43.40871728 0 32508
0.17450000 0.17449800 8406.03149604 0 94.67313830 0 1590.39551998 0 -256.28335195 0 -79.85194574 0 32791
0.17550000 0.17549800 8415.78621421 0 209.87038078 0 1862.38717915 0 -426.58567275 0 -143.42978847 0 33633
0.17650000 0.17650100 8138.28053728 0 297.59530308 0 2055.93141698 0 -545.61870072 0 45.08407075 0 33984
0.17750000 0.17750300 8156.43914998 0 219.35050528 0 2332.42951235 0 -100.73357529 0 69.05432530 0 34069
0.17850000 0.17849800 7940.61739462 0 124.30456181 0 2398.34306199 0 49.71119529 0 169.14194116 0 34536
