### header ###
fiducial parameters:
Omega_m = 0.31
Omega_nu = 0
Omega_de = 0.69
Omega_k = 0
H_0 = 100
w_de = -1
zeff = 0
beta = 0
fgrowth = 0
b_1 = 2
gamma = 0.55
Lx = 3500 Ly = 3500 Lz = 3500
nx = 700 ny = 700 nz = 700
xoffset = -685.467585 yoffset = -31.7331281 zoffset = 572.489161
bins = 400 dk = 0.001
kx_ny = 0.628318531 ky_ny = 0.628318531 kz_ny = 0.628318531
############################
A(data) = 8.05074699 (not used)
A(ran) = 8.05637718 (used)
Ngal = 479089
weighted Ngal = 0
Nran = 23820508
weighted Nran = 0
SN(data) = 3482.30027
SN(ran) = 70.173967
SN(data+ran) = 3552.47423
############################
13 columns: k_central k_mean P_0(k) sigma^{lin}_{P_0(k)} P^img_1(k) sigma^{lin}_{P_1(k)} P_2(k) sigma^{lin}_{P_2(k)} P^img_3(k) sigma^{lin}_{P_3(k)} P_4(k) sigma^{lin}_{P_4(k)} N_modes
### header ###
0.00050000 0 0 0 0 0 0 0 0 0 0 0 0
0.00150000 0.00179520 27378.20540932 0 -37392.56959155 0 -2579.32021115 0 -97848.79178033 0 54414.16525850 0 3
0.00250000 0.00253879 33051.55392315 0 -17463.49215047 0 -23230.06963926 0 -4521.54992457 0 -20583.11966812 0 6
0.00350000 0.00331552 40176.26277420 0 -9359.79048360 0 -15010.97220314 0 -12793.07481871 0 -20413.15948215 0 7
0.00450000 0.00420575 47447.45848261 0 -18402.97891133 0 -17730.00300885 0 -19520.61937852 0 12612.81737066 0 24
0.00550000 0.00557378 56474.28201426 0 -14233.14138463 0 -22102.24263324 0 -26293.00685385 0 -9379.55458340 0 45
0.00650000 0.00659388 68298.41768809 0 1680.55746097 0 -6882.92249399 0 -14894.38062279 0 31650.79411034 0 40
0.00750000 0.00754703 79235.99231369 0 1838.30487267 0 -5332.49806661 0 -41358.12272535 0 -2263.64823057 0 57
0.00850000 0.00846663 66516.10556203 0 10708.55465905 0 12505.52654317 0 -33240.55850780 0 22513.13660726 0 75
0.00950000 0.00948925 63350.52789638 0 16639.15756772 0 25281.88215141 0 -21665.43941914 0 4457.04256017 0 112
0.01050000 0.01054430 50875.67169296 0 2473.43556891 0 22705.57361261 0 7889.12001188 0 -12735.38800641 0 105
0.01150000 0.01145670 61690.89712931 0 -14213.65409294 0 29535.53717699 0 10734.76285190 0 -34488.63096136 0 144
0.01250000 0.01249090 67048.24149282 0 -13765.88927728 0 19266.39880069 0 10252.46345512 0 -28737.55472731 0 169
0.01350000 0.01339930 84564.43790942 0 -7534.63953282 0 8489.56111447 0 12707.26430137 0 -30004.11796331 0 180
0.01450000 0.01448870 87410.57900405 0 988.03558349 0 871.24470131 0 -4188.48332170 0 -22376.28267250 0 267
0.01550000 0.01550050 85634.35665664 0 5571.50527014 0 8780.75218488 0 -21866.95573084 0 -13056.70687264 0 238
0.01650000 0.01653350 82422.49667325 0 4703.84468038 0 17744.95064736 0 -4847.96206022 0 -19340.36193047 0 315
0.01750000 0.01747870 78509.97997533 0 7783.75576891 0 40151.90365960 0 -13690.26529877 0 5320.94963182 0 297
0.01850000 0.01844180 68058.36968602 0 12813.78006612 0 30918.35982359 0 5225.01900959 0 -13.58330664 0 388
0.01950000 0.01947590 65528.89708120 0 2608.69508890 0 46053.45278794 0 3647.10199969 0 9870.72291235 0 399
0.02050000 0.02045430 61689.23628059 0 1113.39976679 0 45885.37489719 0 12345.75289604 0 6187.84623117 0 462
0.02150000 0.02154770 66235.75429762 0 -2169.69955449 0 37162.04378882 0 12800.71472284 0 -2367.86095177 0 571
0.02250000 0.02255340 60198.56919026 0 -7009.21343087 0 28548.32869616 0 14172.02215163 0 1319.24535749 0 510
0.02350000 0.02348930 70694.24733235 0 -2159.87840237 0 22063.15732663 0 2575.43382514 0 -6627.73862389 0 555
0.02450000 0.02439640 68734.11366970 0 31.80702461 0 15009.42207766 0 3669.41273420 0 -11450.22326471 0 592
0.02550000 0.02547300 70105.19965200 0 2735.53964202 0 19256.21226185 0 -10928.77212737 0 -14277.43068390 0 837
0.02650000 0.02652900 61552.05017609 0 6350.76441856 0 15895.42950965 0 -11804.53765890 0 -11182.05155760 0 723
0.02750000 0.02749970 61912.67579543 0 5857.14910582 0 27950.97677219 0 -11325.77033375 0 -13494.61731922 0 826
0.02850000 0.02848090 57833.63133224 0 2344.65335895 0 27306.01385150 0 -2726.02851500 0 -8037.86562350 0 831
0.02950000 0.02946900 59028.22445693 0 2918.80876242 0 32997.29953154 0 3804.12971027 0 -21568.22440723 0 996
0.03050000 0.03053250 56310.63305344 0 833.19797877 0 29770.27046314 0 5093.95590072 0 -17158.11743197 0 1041
0.03150000 0.03150510 52438.97323410 0 4255.52624847 0 27089.99279429 0 3854.26519705 0 -13577.32758562 0 1036
0.03250000 0.03246190 53420.20265953 0 -398.11651118 0 27445.19297448 0 7512.62775108 0 -15498.48666490 0 1059
0.03350000 0.03345080 50374.42754842 0 799.88024615 0 28104.10702443 0 3400.27773483 0 -12291.94139742 0 1302
0.03450000 0.03451200 50357.48689144 0 4141.35950727 0 25395.26275755 0 6765.11295792 0 -5880.47849421 0 1339
0.03550000 0.03553350 47870.75346042 0 1435.72621458 0 26637.57760220 0 6902.29906242 0 565.35290524 0 1365
0.03650000 0.03647120 46450.28490944 0 -172.75262629 0 25565.22294352 0 4019.39784939 0 2375.01367360 0 1308
0.03750000 0.03744890 48470.20912611 0 -340.82276641 0 24585.76509006 0 8150.51545620 0 2745.46044506 0 1579
0.03850000 0.03847530 47236.19852507 0 -120.71159241 0 20518.78946092 0 4332.46783364 0 3101.94501492 0 1662
0.03950000 0.03950240 47432.17867436 0 -993.47763114 0 17271.60876136 0 4419.82847646 0 2564.28399405 0 1683
0.04050000 0.04050350 48656.11345981 0 -869.34136867 0 15108.18721504 0 3217.61759230 0 3796.62267404 0 1822
0.04150000 0.04152450 46733.95787129 0 406.09633568 0 10525.18588773 0 4411.93390886 0 3411.38327662 0 1887
0.04250000 0.04250150 46272.79554260 0 626.17982886 0 8472.28828776 0 5761.12990499 0 3798.72641576 0 1920
0.04350000 0.04349210 45021.06922185 0 2338.54143565 0 4830.37920841 0 913.58416418 0 864.45847343 0 2005
0.04450000 0.04448520 43134.89868899 0 2164.71700832 0 5691.65106675 0 1778.03820868 0 4779.93369653 0 2151
0.04550000 0.04548030 41323.79851841 0 1339.36377169 0 3418.82387890 0 -3546.24419292 0 1839.02457378 0 2274
0.04650000 0.04648670 39544.25447355 0 1573.55451393 0 3753.98315116 0 -1408.14505346 0 2142.38412916 0 2311
0.04750000 0.04749250 40451.74221569 0 751.42775275 0 5704.15172147 0 -2069.11855583 0 -2906.90601324 0 2568
0.04850000 0.04851840 36989.75841464 0 636.88123080 0 5150.62405914 0 -1098.30486636 0 -2153.96578092 0 2493
0.04950000 0.04949480 37117.31159656 0 1884.13322509 0 6728.25318860 0 -245.29739126 0 -5807.88833270 0 2644
0.05050000 0.05050630 36939.71150646 0 705.53518084 0 6139.51553334 0 -690.64844012 0 -6411.48504786 0 2829
0.05150000 0.05149060 35832.25757810 0 237.63202079 0 7537.75085609 0 -864.07315652 0 -4561.77568063 0 2784
0.05250000 0.05249300 34745.50889715 0 1446.20063386 0 7201.21861555 0 -2802.51613485 0 -3239.90618216 0 3055
0.05350000 0.05348950 35672.59465422 0 -555.35348870 0 9501.72661545 0 516.40104998 0 1116.66610261 0 3009
0.05450000 0.05448610 35316.61941130 0 -999.24631237 0 9964.79338401 0 2368.49207428 0 413.72959641 0 3336
0.05550000 0.05550870 37552.34323868 0 615.49946434 0 11927.99408063 0 2657.88942807 0 3853.26868781 0 3349
0.05650000 0.05647670 35885.40473723 0 736.10476243 0 11487.86916909 0 561.28271864 0 5249.59957069 0 3324
0.05750000 0.05747970 35989.70603702 0 938.34631141 0 11079.74327627 0 326.99453994 0 6207.51068005 0 3639
0.05850000 0.05849280 34830.43362851 0 1448.17150768 0 14025.86746402 0 -1137.18312050 0 4579.55783429 0 3846
0.05950000 0.05951020 33961.36685350 0 1277.43625898 0 12849.87584503 0 -1157.56727049 0 1160.52358122 0 3787
0.06050000 0.06049470 32318.89818990 0 645.24415774 0 13349.68058735 0 -1680.23636355 0 1047.47625205 0 3930
0.06150000 0.06148310 33050.77886041 0 43.14220642 0 12523.35298613 0 -761.32530390 0 -2763.34224964 0 4083
0.06250000 0.06249100 31845.88847365 0 -293.30920614 0 11107.86698131 0 1430.34506472 0 -3484.44954810 0 4303
0.06350000 0.06350600 32423.97455243 0 1076.91645651 0 10459.00660229 0 2792.50675321 0 -6126.30624983 0 4470
0.06450000 0.06451750 30698.13128295 0 949.33337932 0 8662.44439419 0 2249.90747547 0 -3476.69892073 0 4479
0.06550000 0.06550280 30902.74784559 0 595.61246174 0 6954.37220604 0 2805.30636070 0 -4284.93434319 0 4636
0.06650000 0.06648880 29720.99861770 0 206.37927676 0 6060.18232602 0 2163.03401495 0 -1085.29045577 0 4653
0.06750000 0.06749660 29635.29882360 0 -465.43403161 0 4498.67450149 0 2520.08327337 0 -1343.40517025 0 5220
0.06850000 0.06852730 28793.35924439 0 -287.33457967 0 4438.93930909 0 1186.32209804 0 -1011.60302687 0 5029
0.06950000 0.06949320 29646.92476466 0 1121.72615505 0 4056.27976336 0 -517.96224778 0 -1618.51922502 0 5040
0.07050000 0.07048030 28319.13157241 0 1241.49549262 0 5144.70036536 0 -2054.15984500 0 -439.33656201 0 5475
0.07150000 0.07148790 27269.36445635 0 1111.89393061 0 5180.79614427 0 -2039.10148325 0 158.48150683 0 5509
0.07250000 0.07249820 27181.11802755 0 416.64604676 0 7596.56704553 0 -1322.47847634 0 240.27387749 0 5916
0.07350000 0.07351270 27330.26224286 0 464.70436541 0 9110.05419731 0 -650.14587593 0 1455.32422951 0 5721
0.07450000 0.07449140 26956.34983373 0 294.96894763 0 10639.16439942 0 -10.17876606 0 -261.93909547 0 6028
0.07550000 0.07549160 26668.13721870 0 563.88139327 0 10290.30866135 0 990.19357960 0 3449.74888212 0 6183
0.07650000 0.07648840 26740.43949977 0 491.34548615 0 11386.66812025 0 713.14186799 0 4146.66315086 0 6330
0.07750000 0.07749960 26132.90103697 0 43.45942853 0 11101.88792591 0 1549.53864140 0 3958.19003779 0 6583
0.07850000 0.07848650 26248.16393833 0 563.92568257 0 10810.47540901 0 941.48752996 0 3060.19127803 0 6549
0.07950000 0.07947320 25626.01000677 0 505.37190723 0 10972.24207461 0 -244.72052314 0 2223.62177635 0 6828
0.08050000 0.08048110 24916.49543239 0 596.85366935 0 9739.27227211 0 -912.85449798 0 611.78691383 0 7147
0.08150000 0.08149960 24549.89075765 0 1226.34855226 0 10956.24256525 0 -735.97964516 0 1332.89753399 0 7386
0.08250000 0.08250610 23413.87023125 0 592.01063447 0 8960.09062997 0 716.33291200 0 1972.50144947 0 7227
0.08350000 0.08350160 23003.19770373 0 -259.57847582 0 8343.10747410 0 2601.13269105 0 1290.24693879 0 7798
0.08450000 0.08449610 23438.89368534 0 -479.57117594 0 7440.92337555 0 2814.50746263 0 606.58845733 0 7371
0.08550000 0.08548940 23555.37454244 0 146.17351056 0 7033.28466503 0 1969.48977712 0 2092.87976490 0 8256
0.08650000 0.08650700 23351.86521227 0 -18.45324727 0 6879.32398842 0 470.40550546 0 3329.01625230 0 8037
0.08750000 0.08749060 22831.79811554 0 389.48452675 0 6796.28155228 0 265.34715705 0 4229.31805563 0 8155
0.08850000 0.08849210 23023.23861165 0 1071.94276820 0 7436.98162791 0 -428.72927484 0 3350.03152480 0 8718
0.08950000 0.08949900 21796.86791474 0 965.66062950 0 8232.83819123 0 -923.80613445 0 3393.11394067 0 8571
0.09050000 0.09049190 21090.89648430 0 605.34946418 0 6934.77419112 0 306.57163681 0 3848.89511951 0 8932
0.09150000 0.09150830 20826.26792114 0 24.55166233 0 7055.54003791 0 810.70012197 0 2100.15428230 0 9285
0.09250000 0.09250820 20574.04036177 0 309.98080562 0 6744.58486771 0 940.15552928 0 2384.53587294 0 9204
0.09350000 0.09350330 20535.39794815 0 788.83449491 0 6194.07995005 0 22.68154667 0 745.85283720 0 9349
0.09450000 0.09448040 19320.87463879 0 843.91488196 0 6463.70213171 0 -465.42628098 0 1922.38810734 0 9564
0.09550000 0.09549270 18977.85401591 0 609.69092274 0 6748.44910907 0 -138.98092836 0 681.61674477 0 10155
0.09650000 0.09649430 18219.62121233 0 84.98507553 0 6243.50680804 0 -410.76664228 0 402.71374044 0 9913
0.09750000 0.09749140 18474.94902265 0 100.81517832 0 6637.13902767 0 427.40834649 0 -540.30177034 0 10476
0.09850000 0.09850240 18083.76378681 0 353.11083249 0 5954.69628747 0 -109.51226802 0 -1342.35329939 0 10575
0.09950000 0.09950330 17827.66091375 0 748.91987118 0 6130.85697533 0 -464.37662459 0 -2400.76790113 0 10882
0.10050000 0.10051200 16985.83205779 0 379.70877117 0 5838.42580455 0 -351.68028812 0 -1359.48218588 0 10875
0.10150000 0.10150300 16896.14622676 0 387.82257080 0 6488.37127140 0 -358.19302958 0 -1812.92710418 0 11118
0.10250000 0.10250800 16569.73409110 0 118.12731179 0 6612.59168354 0 529.19179961 0 -1037.06937395 0 11575
0.10350000 0.10349800 16375.96840678 0 689.89330757 0 6223.51018942 0 1102.91870412 0 -623.29216655 0 11364
0.10450000 0.10450100 16397.44871693 0 86.12718583 0 6385.12184247 0 1023.04848904 0 254.33573001 0 12093
0.10550000 0.10551000 16216.19475964 0 -216.19157101 0 6339.91354023 0 1045.63049550 0 469.97479202 0 12067
0.10650000 0.10649700 16223.17032428 0 147.76571087 0 6485.24887580 0 715.83465739 0 281.39759910 0 12054
0.10750000 0.10749900 16102.26053726 0 336.53224054 0 5718.11392307 0 -55.45994634 0 1267.27186479 0 12807
0.10850000 0.10850100 15623.82538185 0 530.42414937 0 6101.96927988 0 183.51935494 0 1138.06890648 0 12736
0.10950000 0.10950300 15140.18623377 0 241.35342916 0 5547.23473414 0 -358.75771815 0 1286.00623839 0 12933
0.11050000 0.11050200 15065.33731799 0 269.57124896 0 5927.96769536 0 714.08080113 0 633.04799195 0 13428
0.11150000 0.11150900 15008.09339868 0 158.91554196 0 5577.13001115 0 343.75693248 0 897.32334795 0 13453
0.11250000 0.11250000 14642.37450992 0 220.10785230 0 5063.14162075 0 436.70356317 0 1156.05036199 0 13668
0.11350000 0.11349100 14789.30426027 0 54.99856256 0 5374.63933487 0 39.67291489 0 1030.93419877 0 13791
0.11450000 0.11448600 14587.78794857 0 232.28187344 0 5488.49605098 0 34.73797972 0 1643.64233003 0 14205
0.11550000 0.11549300 14287.50649948 0 332.69900169 0 5524.72469779 0 338.35031627 0 1332.25533915 0 14776
0.11650000 0.11649800 14194.16680126 0 99.62733932 0 5192.58817020 0 343.88315699 0 1258.95654885 0 14553
0.11750000 0.11747300 14142.12687462 0 89.69989288 0 5343.99113977 0 -5.48535151 0 1198.20270257 0 14568
0.11850000 0.11849100 13941.82851865 0 37.15595401 0 4840.59896422 0 429.23749455 0 758.09772122 0 16015
0.11950000 0.11950300 13907.83648145 0 -48.81522277 0 4769.13817984 0 -104.16267428 0 609.05204960 0 15270
0.12050000 0.12050700 14047.79066716 0 -8.16256215 0 4875.65394459 0 259.35813655 0 36.24049419 0 15999
0.12150000 0.12150000 14120.09294823 0 36.97935043 0 4548.59961410 0 137.97223957 0 -118.96437955 0 15670
0.12250000 0.12250700 14092.07996644 0 110.72546265 0 4442.52674234 0 -201.74440159 0 -198.03738724 0 16887
0.12350000 0.12352200 13766.33217027 0 360.79502591 0 4256.60026398 0 321.65325045 0 405.55932792 0 16407
0.12450000 0.12449800 13774.41496739 0 203.37424780 0 4154.32519963 0 517.57803811 0 228.66122322 0 16306
0.12550000 0.12549900 13463.72553298 0 122.11667042 0 3590.27882872 0 978.56431684 0 905.31756647 0 17523
0.12650000 0.12650100 13421.53997542 0 -48.70527458 0 3390.30157017 0 1266.49680206 0 763.11237713 0 17154
0.12750000 0.12750600 13390.09457293 0 -35.27664832 0 2742.53735130 0 758.06007531 0 553.31507370 0 18007
0.12850000 0.12850300 13160.67600269 0 312.51968970 0 2842.55366139 0 15.18203962 0 910.34661640 0 17496
0.12950000 0.12949900 12898.48335099 0 437.85951388 0 2629.76572303 0 -223.15052716 0 1034.48287888 0 18405
0.13050000 0.13049000 12545.38691252 0 314.03438374 0 2746.94413658 0 -324.76346649 0 1126.62012262 0 18100
0.13150000 0.13148800 12515.82380525 0 171.99306480 0 2817.41948405 0 -307.54932309 0 846.09280825 0 19059
0.13250000 0.13249300 12298.69551556 0 229.94007674 0 3520.72248421 0 -115.83423332 0 499.97636335 0 18957
0.13350000 0.13349100 12205.02364759 0 237.07840455 0 3352.16848349 0 -227.81308314 0 260.80528941 0 19468
0.13450000 0.13450700 11986.78812542 0 242.99656217 0 3751.13756369 0 -414.52458933 0 337.49774726 0 19953
0.13550000 0.13551000 11853.47733460 0 226.29949634 0 3684.07249226 0 -6.96867765 0 413.45057382 0 19956
0.13650000 0.13649900 11746.96156985 0 67.11223953 0 3927.55291502 0 414.91765686 0 929.47737923 0 19723
0.13750000 0.13749600 11625.27672009 0 44.78268207 0 3642.17481514 0 269.24461538 0 322.61322101 0 20946
0.13850000 0.13851100 11704.00094955 0 153.25315505 0 3623.68403270 0 303.84673767 0 49.35942753 0 20955
0.13950000 0.13949800 11386.22522725 0 295.28118719 0 3486.60865144 0 -107.70460027 0 550.66435914 0 20506
0.14050000 0.14048300 11368.28806105 0 216.49716718 0 3565.70933995 0 -165.35963500 0 470.50626361 0 21447
0.14150000 0.14148400 11093.47295905 0 -32.25999342 0 3443.93591159 0 112.03199698 0 343.24206938 0 21771
0.14250000 0.14249400 11294.10348476 0 256.68638457 0 3841.28843236 0 41.36111225 0 272.42790877 0 22470
0.14350000 0.14350900 10964.11498819 0 172.54446658 0 3846.32634015 0 180.00167734 0 512.85126265 0 22519
0.14450000 0.14449900 10765.43319165 0 228.90924330 0 3730.63161812 0 288.26576219 0 807.98850962 0 22218
0.14550000 0.14550500 10676.13489199 0 147.12905219 0 3665.71457771 0 231.52452642 0 1009.62661689 0 23559
0.14650000 0.14650700 10512.62987139 0 85.94792490 0 3806.11165641 0 594.90494018 0 1206.92769453 0 23044
0.14750000 0.14750500 10399.69215824 0 142.97028699 0 3532.39271457 0 320.77632232 0 1292.86000745 0 23649
0.14850000 0.14849900 10287.57379712 0 109.30787290 0 3552.22324832 0 496.92815233 0 1555.00836986 0 23640
0.14950000 0.14949500 10093.69738955 0 219.00726322 0 3148.92488912 0 130.87820105 0 1083.84551738 0 24457
0.15050000 0.15050000 10017.22084203 0 110.41599117 0 3426.53021698 0 -421.49904673 0 872.01312065 0 24591
0.15150000 0.15149900 9790.39319579 0 250.04963308 0 3215.70208010 0 -266.13882827 0 988.93022734 0 25020
0.15250000 0.15250500 9929.02977485 0 209.28022586 0 3515.70672107 0 -414.07726741 0 816.21192526 0 25297
0.15350000 0.15350100 9632.52398853 0 -64.00534519 0 3199.31503937 0 32.20219589 0 1019.81647742 0 25452
0.15450000 0.15450400 9787.39259577 0 12.50076544 0 3623.17470576 0 246.83422995 0 515.40011182 0 26061
0.15550000 0.15549900 9801.43230364 0 125.96873223 0 3349.55541484 0 162.88497041 0 768.07610034 0 26128
0.15650000 0.15649500 9628.32757742 0 175.09331575 0 3323.97834451 0 363.19329147 0 805.21157055 0 26331
0.15750000 0.15749700 9415.42891581 0 195.96354080 0 3246.74887890 0 307.46295896 0 1265.27884633 0 27345
0.15850000 0.15849900 9441.55960238 0 138.90342208 0 3295.92107342 0 134.26965415 0 702.34856576 0 26980
0.15950000 0.15949700 9091.78486136 0 88.26159789 0 3392.75962628 0 216.09081286 0 1368.61685386 0 27777
0.16050000 0.16050000 9200.21613831 0 229.83931859 0 3350.67371964 0 86.49002592 0 1428.59563740 0 28224
0.16150000 0.16150500 9018.97325335 0 122.11888489 0 3190.15822675 0 301.49940481 0 1377.61865394 0 28075
0.16250000 0.16249700 8948.75256935 0 105.04093109 0 3046.31765503 0 102.99022581 0 1664.04862467 0 28590
0.16350000 0.16349900 8884.62166400 0 10.70080403 0 3058.35327211 0 268.98552298 0 1196.39791363 0 29163
0.16450000 0.16449100 8752.86099866 0 125.86575961 0 2982.20889433 0 116.58825864 0 1606.62754816 0 28996
0.16550000 0.16550500 8767.39896115 0 87.71816819 0 2764.12838470 0 357.46668507 0 1069.21786906 0 30777
0.16650000 0.16650700 8686.50455602 0 -58.33852934 0 2586.66116251 0 118.68978589 0 1283.98000294 0 29211
0.16750000 0.16749900 8747.12553441 0 120.24876923 0 2652.39755496 0 -14.67979897 0 843.62700151 0 30922
0.16850000 0.16850800 8668.71133004 0 105.58281067 0 2444.61430741 0 -127.41367062 0 783.63160948 0 30867
0.16950000 0.16949900 8403.08625764 0 278.69705908 0 2645.54378589 0 -151.38746832 0 876.70446468 0 30852
0.17050000 0.17049200 8316.11314619 0 202.08100027 0 2528.45395094 0 -112.37634628 0 507.43246688 0 31257
0.17150000 0.17149500 8219.34102728 0 135.30048759 0 2728.73016226 0 -36.65869590 0 736.59748089 0 32608
0.17250000 0.17250900 8053.56618009 0 140.45908372 0 2671.86270199 0 42.70086356 0 282.88129063 0 32361
0.17350000 0.17350400 7938.63544847 0 112.05967779 0 2505.16885184 0 186.53656345 0 415.15128291 0 32508
0.17450000 0.17449800 7917.15513832 0 54.32115773 0 2440.46218560 0 235.98445886 0 326.84949248 0 32791
0.17550000 0.17549800 7974.33262369 0 -165.67630349 0 2242.62188574 0 461.74473298 0 488.70805838 0 33633
0.17650000 0.17650100 7996.43298403 0 -72.38521278 0 2025.80362114 0 481.63173559 0 577.15600350 0 33984
0.17750000 0.17750300 8206.44176886 0 -47.25435714 0 1727.59269680 0 176.21494226 0 436.51533365 0 34069
0.17850000 0.17849800 8027.24726400 0 18.58445432 0 1689.20494666 0 -17.13353687 0 353.32895729 0 34536
