### header ###
fiducial parameters:
Omega_m = 0.31
Omega_nu = 0
Omega_de = 0.69
Omega_k = 0
H_0 = 100
w_de = -1
zeff = 0
beta = 0
fgrowth = 0
b_1 = 2
gamma = 0.55
Lx = 3500 Ly = 3500 Lz = 3500
nx = 700 ny = 700 nz = 700
xoffset = -685.467585 yoffset = -31.7331281 zoffset = 572.489161
bins = 400 dk = 0.001
kx_ny = 0.628318531 ky_ny = 0.628318531 kz_ny = 0.628318531
############################
A(data) = 8.09319228 (not used)
A(ran) = 8.0922529 (used)
Ngal = 481109
weighted Ngal = 0
Nran = 23820508
weighted Nran = 0
SN(data) = 3486.49814
SN(ran) = 70.4864576
SN(data+ran) = 3556.9846
############################
13 columns: k_central k_mean P_0(k) sigma^{lin}_{P_0(k)} P^img_1(k) sigma^{lin}_{P_1(k)} P_2(k) sigma^{lin}_{P_2(k)} P^img_3(k) sigma^{lin}_{P_3(k)} P_4(k) sigma^{lin}_{P_4(k)} N_modes
### header ###
0.00050000 0 0 0 0 0 0 0 0 0 0 0 0
0.00150000 0.00179520 11381.68557408 0 -15290.43768156 0 -26017.30596586 0 39255.37751904 0 10706.08553062 0 3
0.00250000 0.00253879 19854.89286480 0 -7045.78531975 0 28975.83115740 0 -5821.91696824 0 -27548.38704178 0 6
0.00350000 0.00331552 29665.63699361 0 -3381.25548079 0 11485.32253438 0 -18083.65306356 0 -11707.10120050 0 7
0.00450000 0.00420575 37652.21560854 0 -5542.25218797 0 15517.53106359 0 31965.80175143 0 22950.27199110 0 24
0.00550000 0.00557378 48940.22931466 0 -12897.37611850 0 -4211.02657503 0 21177.26061789 0 -2418.76042896 0 45
0.00650000 0.00659388 82575.51620225 0 -24116.96285724 0 20671.36609692 0 52631.52096270 0 -1110.60954093 0 40
0.00750000 0.00754703 83532.71868282 0 -19252.66911791 0 -6621.82600244 0 11257.56481286 0 -2403.38096979 0 57
0.00850000 0.00846663 107701.50002021 0 -10806.27899790 0 -16143.11741584 0 -14012.69139749 0 18960.24901945 0 75
0.00950000 0.00948925 100180.73411039 0 16104.25355573 0 -2711.35768462 0 -3052.15277021 0 33304.00292901 0 112
0.01050000 0.01054430 93102.41830032 0 -832.30776385 0 13994.31133829 0 -3125.83909188 0 36329.29423921 0 105
0.01150000 0.01145670 92835.35382570 0 8591.50400908 0 7850.66582779 0 16124.95880314 0 17959.64302559 0 144
0.01250000 0.01249090 92068.15243902 0 -598.47687217 0 19697.22295938 0 4945.27672305 0 19871.83352177 0 169
0.01350000 0.01339930 88696.40808524 0 2636.24303305 0 22686.52921392 0 10476.13548879 0 26788.71483598 0 180
0.01450000 0.01448870 84959.94135194 0 6415.57073572 0 16541.05676982 0 4447.57572245 0 7949.48632680 0 267
0.01550000 0.01550050 87133.10654410 0 2205.17528321 0 7241.57723952 0 6850.50272692 0 7446.89135863 0 238
0.01650000 0.01653350 82095.30947486 0 -3837.74528842 0 10405.78193689 0 -7518.62895113 0 -3683.79568414 0 315
0.01750000 0.01747870 89560.04942110 0 6123.94784465 0 9676.06036972 0 -2808.35125003 0 -17357.08710896 0 297
0.01850000 0.01844180 78127.54187610 0 7202.55836685 0 9164.38609520 0 -4065.72445643 0 -17207.72144715 0 388
0.01950000 0.01947590 77310.84719748 0 1445.27055858 0 9759.82250697 0 -8834.32009235 0 -32885.35832762 0 399
0.02050000 0.02045430 78647.60897283 0 -6844.01434458 0 11981.47340951 0 -10778.85284933 0 -40750.58426255 0 462
0.02150000 0.02154770 79686.41448732 0 3320.82273193 0 28016.08204212 0 -18998.11637033 0 -53060.24137968 0 571
0.02250000 0.02255340 78667.76060400 0 9416.17076157 0 26692.38561006 0 -10203.94452777 0 -34867.41519341 0 510
0.02350000 0.02348930 71743.35010892 0 3810.89490073 0 35964.23968994 0 -8332.36731902 0 -31988.83218705 0 555
0.02450000 0.02439640 69429.89856131 0 6172.86537569 0 33539.28983141 0 8264.17287047 0 -24710.99308376 0 592
0.02550000 0.02547300 68551.97392644 0 329.46034668 0 28359.43483475 0 17172.29000773 0 -32562.71078241 0 837
0.02650000 0.02652900 63413.52942460 0 2919.18522146 0 21539.65780920 0 16272.22072323 0 -21414.42981550 0 723
0.02750000 0.02749970 66160.13031911 0 2229.66726571 0 18269.44667401 0 6525.36390862 0 -22654.19802545 0 826
0.02850000 0.02848090 61372.56779078 0 1684.12274957 0 17148.15233963 0 669.40507772 0 -4495.08706825 0 831
0.02950000 0.02946900 60544.69006409 0 4288.62142736 0 18532.85728145 0 -5478.65275422 0 -6698.71222598 0 996
0.03050000 0.03053250 58010.45635960 0 1531.63469216 0 26428.08921663 0 -2605.04122171 0 2361.71581149 0 1041
0.03150000 0.03150510 59203.61008205 0 1467.99096911 0 28522.41945608 0 5871.53205576 0 10136.86838402 0 1036
0.03250000 0.03246190 55934.61690260 0 1018.40143431 0 30993.31946261 0 9184.68166659 0 4382.88012854 0 1059
0.03350000 0.03345080 59441.44361916 0 -1818.30825404 0 29617.02948765 0 8996.38571072 0 9263.31731745 0 1302
0.03450000 0.03451200 59272.81211217 0 -226.08580047 0 24979.05406762 0 8723.60791649 0 8754.57720901 0 1339
0.03550000 0.03553350 58160.70780739 0 3284.73802535 0 18577.03585748 0 5230.05691739 0 10608.17296225 0 1365
0.03650000 0.03647120 54271.55371484 0 2600.51264086 0 17423.07816488 0 -920.94172402 0 7465.24927318 0 1308
0.03750000 0.03744890 51699.78482921 0 3531.60657951 0 12856.40851667 0 2068.14419125 0 4990.07534927 0 1579
0.03850000 0.03847530 47278.82697562 0 3367.08290503 0 12496.33651357 0 1669.19725571 0 6007.04623921 0 1662
0.03950000 0.03950240 44492.80860475 0 1588.69038195 0 11596.48867556 0 3860.22210780 0 2604.85299219 0 1683
0.04050000 0.04050350 43878.07313082 0 -731.06242571 0 8752.91636029 0 5970.03145734 0 4658.96854789 0 1822
0.04150000 0.04152450 46660.99125074 0 -2000.66944381 0 6267.03549828 0 6194.83286813 0 4237.83267341 0 1887
0.04250000 0.04250150 46458.69987630 0 -1446.69888848 0 8006.51987194 0 1785.56738955 0 6115.01247852 0 1920
0.04350000 0.04349210 47598.59571638 0 329.17135900 0 7204.40744510 0 1491.54180400 0 5870.32517235 0 2005
0.04450000 0.04448520 46191.19250868 0 3171.29098526 0 11125.91487077 0 -967.97031646 0 11259.77927783 0 2151
0.04550000 0.04548030 44264.05437400 0 3458.10848736 0 13179.38823163 0 -2349.00478260 0 10339.46978355 0 2274
0.04650000 0.04648670 42822.43768261 0 1669.42977453 0 17116.37476740 0 -442.28955104 0 10700.79295936 0 2311
0.04750000 0.04749250 41570.82208511 0 1401.60130949 0 19220.00575970 0 -1431.99484112 0 9525.98607912 0 2568
0.04850000 0.04851840 40099.97445620 0 2658.65341848 0 20690.96411185 0 -3389.30506094 0 10158.78051483 0 2493
0.04950000 0.04949480 40545.85697665 0 490.16296186 0 20409.06272197 0 517.41527494 0 10024.43999781 0 2644
0.05050000 0.05050630 37605.60112106 0 156.94909707 0 17698.33615987 0 3474.05263510 0 4285.99728637 0 2829
0.05150000 0.05149060 39334.54464149 0 412.57696739 0 17439.13303586 0 5941.13268957 0 1822.95863047 0 2784
0.05250000 0.05249300 38199.74207083 0 69.97211031 0 14070.59965629 0 2009.95912433 0 -867.55097375 0 3055
0.05350000 0.05348950 37341.52617413 0 1311.37293455 0 10749.13472951 0 2989.72700288 0 4530.29706117 0 3009
0.05450000 0.05448610 36449.20751700 0 607.17971947 0 11298.86458444 0 -2157.27640604 0 -66.13566048 0 3336
0.05550000 0.05550870 36016.50106309 0 915.28819497 0 11607.45027713 0 -1781.18274893 0 549.37996946 0 3349
0.05650000 0.05647670 35525.11128763 0 649.29552139 0 13061.46797232 0 -1364.63081692 0 416.94499953 0 3324
0.05750000 0.05747970 35405.30873310 0 304.36935140 0 12056.76521827 0 -606.81322552 0 -1099.83284719 0 3639
0.05850000 0.05849280 35810.00220522 0 -1117.06470630 0 13833.20901218 0 108.06101841 0 -3467.28744463 0 3846
0.05950000 0.05951020 36103.08664317 0 -462.48104258 0 14602.73558707 0 1059.38343016 0 -5023.13731118 0 3787
0.06050000 0.06049470 36074.85221488 0 609.58795012 0 12773.36608053 0 -1254.07365361 0 -4246.40265282 0 3930
0.06150000 0.06148310 35288.60642951 0 1753.95590220 0 12720.66181440 0 1518.61363818 0 -5086.39350286 0 4083
0.06250000 0.06249100 34138.30260410 0 1301.27497431 0 11542.78790019 0 792.11633199 0 -3801.81559438 0 4303
0.06350000 0.06350600 33126.84573192 0 453.38291328 0 13280.25711073 0 885.75387575 0 -1814.22256618 0 4470
0.06450000 0.06451750 33019.00128818 0 300.60697543 0 12739.92765958 0 1594.11582111 0 -314.10746108 0 4479
0.06550000 0.06550280 32536.24792609 0 435.47564235 0 13280.92145022 0 3173.42794395 0 -444.53391128 0 4636
0.06650000 0.06648880 31809.23907850 0 1021.14404917 0 11813.17407226 0 1434.59683745 0 1834.49599293 0 4653
0.06750000 0.06749660 31709.80960162 0 925.25993070 0 11117.38918066 0 1153.10512359 0 1621.87413944 0 5220
0.06850000 0.06852730 29994.81721046 0 1103.26858958 0 11932.31228731 0 1067.80614765 0 3670.55318365 0 5029
0.06950000 0.06949320 29618.80105962 0 321.05755937 0 10417.48538422 0 1976.26603991 0 3154.13995411 0 5040
0.07050000 0.07048030 28755.93478651 0 109.29347888 0 9105.63633971 0 2517.13803497 0 2811.35185005 0 5475
0.07150000 0.07148790 29232.93053969 0 645.79113058 0 8924.73669682 0 1008.17503511 0 2008.25398631 0 5509
0.07250000 0.07249820 27816.22657915 0 705.23954977 0 7442.25205453 0 962.32896696 0 2746.86663031 0 5916
0.07350000 0.07351270 28078.52995410 0 728.99632990 0 8044.50901839 0 -113.59098031 0 3697.64716249 0 5721
0.07450000 0.07449140 26954.46753851 0 253.28718085 0 6994.16614144 0 -226.01936652 0 2128.73195266 0 6028
0.07550000 0.07549160 27123.54193849 0 393.96660384 0 9115.42427485 0 -623.15597696 0 1201.10365168 0 6183
0.07650000 0.07648840 26261.78289786 0 1162.37265946 0 9840.40688700 0 -316.15141224 0 1378.65945247 0 6330
0.07750000 0.07749960 25547.39650056 0 1114.79487972 0 10073.10286539 0 -216.72747154 0 1442.77928549 0 6583
0.07850000 0.07848650 24373.50862329 0 198.13371647 0 9367.24215820 0 1376.05745614 0 1459.88602734 0 6549
0.07950000 0.07947320 25106.82869603 0 -276.41283847 0 8899.91254458 0 817.32690837 0 107.20435264 0 6828
0.08050000 0.08048110 25259.95894827 0 -224.45706149 0 8388.19398076 0 1637.13180304 0 -445.47727336 0 7147
0.08150000 0.08149960 24719.74022037 0 517.14068128 0 7254.63151048 0 364.06579066 0 -359.51506516 0 7386
0.08250000 0.08250610 24060.16183092 0 905.48697304 0 7970.62339487 0 -365.98573179 0 1187.28539030 0 7227
0.08350000 0.08350160 23988.30244285 0 837.56490367 0 8628.86203302 0 13.30085163 0 1456.88542731 0 7798
0.08450000 0.08449610 23303.58987606 0 446.05303425 0 7558.92114114 0 418.58481084 0 1139.96227403 0 7371
0.08550000 0.08548940 22922.14828606 0 380.33657199 0 9032.01645199 0 469.87292663 0 1949.21635037 0 8256
0.08650000 0.08650700 22685.64342793 0 233.04032769 0 8080.54943567 0 -290.23663601 0 -17.73697857 0 8037
0.08750000 0.08749060 22805.33525922 0 180.93175263 0 9352.31666434 0 -653.83406733 0 -202.03560373 0 8155
0.08850000 0.08849210 22197.13245693 0 182.70553906 0 8121.43953123 0 -1103.34720309 0 -1217.16959499 0 8718
0.08950000 0.08949900 22063.04660338 0 -151.96322921 0 8549.89421241 0 -712.84955861 0 -2665.47397057 0 8571
0.09050000 0.09049190 22002.37026337 0 679.26609021 0 8399.38810115 0 -82.36314901 0 -5066.07578682 0 8932
0.09150000 0.09150830 21417.97295944 0 828.68711363 0 8402.53264140 0 -682.38516411 0 -3986.28052586 0 9285
0.09250000 0.09250820 20548.24184494 0 997.26215177 0 6795.00823493 0 909.60255618 0 -3730.47660557 0 9204
0.09350000 0.09350330 19964.17671076 0 172.99953913 0 6812.39178489 0 1365.90413428 0 -3815.30168601 0 9349
0.09450000 0.09448040 19794.32724804 0 -263.98636833 0 6324.58944268 0 1357.98742203 0 -3191.52012270 0 9564
0.09550000 0.09549270 19991.74679956 0 316.60537756 0 6355.99055587 0 1599.31981378 0 -2958.68020409 0 10155
0.09650000 0.09649430 19299.06215890 0 696.30529087 0 5979.26577624 0 252.74685140 0 -1925.42192434 0 9913
0.09750000 0.09749140 18923.59962430 0 658.17220419 0 7223.02002312 0 -177.51926212 0 26.98978825 0 10476
0.09850000 0.09850240 18408.95796673 0 707.67435399 0 7243.52596868 0 103.28187085 0 1015.59902890 0 10575
0.09950000 0.09950330 17949.01359376 0 527.93730521 0 7429.65174888 0 663.92981310 0 2096.13502839 0 10882
0.10050000 0.10051200 17584.95555373 0 259.54525884 0 7417.23967276 0 689.66411044 0 2189.38614802 0 10875
0.10150000 0.10150300 17787.57909791 0 -26.13367610 0 7465.93575732 0 1633.85439489 0 2325.93005768 0 11118
0.10250000 0.10250800 17291.98183902 0 443.07014994 0 7206.88764586 0 586.84428771 0 2449.28682848 0 11575
0.10350000 0.10349800 16976.64202819 0 629.73404513 0 6612.30380310 0 501.21978543 0 2867.03457157 0 11364
0.10450000 0.10450100 16560.32261501 0 220.54299467 0 6140.65598280 0 77.48335402 0 1920.93763279 0 12093
0.10550000 0.10551000 16216.52692939 0 224.19575463 0 6216.16923806 0 221.23390774 0 1959.65755268 0 12067
0.10650000 0.10649700 16203.79375585 0 6.86742124 0 5877.21215839 0 -641.46738774 0 899.20010701 0 12054
0.10750000 0.10749900 16102.70343025 0 -14.53906972 0 5542.44041750 0 531.83919248 0 1539.00886049 0 12807
0.10850000 0.10850100 16466.98291679 0 -60.73004078 0 5639.57792313 0 244.17797923 0 1533.58342133 0 12736
0.10950000 0.10950300 16324.37137312 0 -223.56352488 0 5444.09602846 0 349.58318980 0 964.33305776 0 12933
0.11050000 0.11050200 16616.79147158 0 -16.81365741 0 5799.72802931 0 214.07454251 0 281.48728493 0 13428
0.11150000 0.11150900 16208.66557877 0 621.56820558 0 5688.94941950 0 -315.45717748 0 -92.71444404 0 13453
0.11250000 0.11250000 15797.88232800 0 925.91209063 0 5699.15810298 0 -804.40218361 0 244.83456809 0 13668
0.11350000 0.11349100 15167.31342957 0 458.09529472 0 5646.29882429 0 -546.03059120 0 -123.03456615 0 13791
0.11450000 0.11448600 14982.95922134 0 -168.53849946 0 5839.48874773 0 815.07590473 0 -95.47743197 0 14205
0.11550000 0.11549300 15030.45949482 0 -62.72815252 0 5346.15024311 0 892.84902149 0 -969.75849692 0 14776
0.11650000 0.11649800 15119.25953986 0 -81.01022164 0 5048.65901988 0 934.99804038 0 -697.11467781 0 14553
0.11750000 0.11747300 14969.00809207 0 -20.16026758 0 4358.68709881 0 791.14528910 0 128.73902790 0 14568
0.11850000 0.11849100 14878.43647506 0 307.49728317 0 4517.15421161 0 687.22044836 0 85.27362031 0 16015
0.11950000 0.11950300 14845.44094710 0 177.14391031 0 4411.44672657 0 101.18300095 0 711.06469985 0 15270
0.12050000 0.12050700 14723.86682059 0 248.31570701 0 4688.77524630 0 -211.91543917 0 943.55694747 0 15999
0.12150000 0.12150000 14340.21076562 0 507.65169891 0 4197.09759041 0 -270.43046137 0 1586.66414651 0 15670
0.12250000 0.12250700 14275.43766543 0 179.55435542 0 4887.02522218 0 -135.81202899 0 1173.95431122 0 16887
0.12350000 0.12352200 13937.51031197 0 10.81662055 0 4672.08925280 0 8.22522043 0 320.30464128 0 16407
0.12450000 0.12449800 13863.21501243 0 235.53713694 0 4650.50929173 0 197.53470369 0 -107.20069877 0 16306
0.12550000 0.12549900 13548.98243408 0 341.90121084 0 4947.00400572 0 -280.26157858 0 -169.84835549 0 17523
0.12650000 0.12650100 13589.28569642 0 147.96833441 0 4509.64717539 0 328.03533847 0 -791.78305501 0 17154
0.12750000 0.12750600 13335.72945807 0 -84.81489390 0 4391.83763932 0 154.48993373 0 -678.40244887 0 18007
0.12850000 0.12850300 13464.27914922 0 131.98654077 0 4031.82099784 0 -208.87276431 0 -1054.11189631 0 17496
0.12950000 0.12949900 13311.81323647 0 261.04998778 0 4675.02341888 0 135.70684191 0 -604.87999761 0 18405
0.13050000 0.13049000 12987.17267278 0 487.57535955 0 4633.43576686 0 5.59066039 0 -509.10328070 0 18100
0.13150000 0.13148800 12759.08278152 0 437.28264576 0 4471.48087174 0 27.70173874 0 -476.74773311 0 19059
0.13250000 0.13249300 12544.50112653 0 -5.57019874 0 4567.46685559 0 294.89144136 0 -69.43377387 0 18957
0.13350000 0.13349100 12638.61588749 0 -55.87571213 0 4292.52995802 0 500.37275258 0 -175.11103147 0 19468
0.13450000 0.13450700 12609.82784296 0 -128.42900280 0 4247.41023438 0 818.74416595 0 -24.30020983 0 19953
0.13550000 0.13551000 12552.47320040 0 36.93993295 0 3703.81444741 0 577.57675184 0 -76.27868508 0 19956
0.13650000 0.13649900 12419.60530258 0 63.57186367 0 3533.61067030 0 701.35205652 0 159.60091887 0 19723
0.13750000 0.13749600 12397.68209944 0 142.40116949 0 3205.71484312 0 401.48692685 0 174.89844284 0 20946
0.13850000 0.13851100 12180.00019350 0 182.22389294 0 2630.23076067 0 259.28395198 0 -177.27013481 0 20955
0.13950000 0.13949800 11995.53526203 0 286.88393605 0 2975.99732011 0 -487.79126989 0 -180.92178754 0 20506
0.14050000 0.14048300 11696.91466167 0 468.10799806 0 2844.62418613 0 -512.21238951 0 -381.04741524 0 21447
0.14150000 0.14148400 11482.66517643 0 328.20142334 0 3329.02732462 0 -408.61639680 0 46.12066180 0 21771
0.14250000 0.14249400 11115.72833194 0 265.02938132 0 3028.05939140 0 -76.12610844 0 -148.13774098 0 22470
0.14350000 0.14350900 10981.21065771 0 90.23490762 0 2969.75252891 0 680.22606077 0 -91.55971128 0 22519
0.14450000 0.14449900 10916.89152284 0 35.08830807 0 2990.97817559 0 807.25662895 0 -581.99018051 0 22218
0.14550000 0.14550500 10816.36588581 0 96.19768670 0 2421.80531828 0 751.30706441 0 -361.72288673 0 23559
0.14650000 0.14650700 10707.50278820 0 66.16212334 0 2271.97461884 0 445.66439565 0 124.46953945 0 23044
0.14750000 0.14750500 10544.99427683 0 30.98080774 0 1911.22720392 0 339.94694551 0 598.30192944 0 23649
0.14850000 0.14849900 10898.77719944 0 -148.80208047 0 1849.42148678 0 277.12257449 0 927.35813626 0 23640
0.14950000 0.14949500 10780.11509436 0 -43.06126773 0 2088.25153312 0 -107.61458227 0 618.54435367 0 24457
0.15050000 0.15050000 10703.98178890 0 414.99959206 0 2118.11359316 0 -115.11785391 0 756.22982002 0 24591
0.15150000 0.15149900 10510.43755107 0 385.96795639 0 2244.49310864 0 -472.67311758 0 638.64283768 0 25020
0.15250000 0.15250500 10144.13182910 0 326.67676422 0 2482.88026198 0 -80.22652249 0 1066.95690034 0 25297
0.15350000 0.15350100 10042.18893449 0 255.49500242 0 2644.64692758 0 41.12006774 0 611.31301833 0 25452
0.15450000 0.15450400 9784.49164666 0 223.41294126 0 2539.84737317 0 166.19448830 0 629.88241428 0 26061
0.15550000 0.15549900 9677.57727822 0 128.71023985 0 2325.58681561 0 362.96520158 0 443.92714788 0 26128
0.15650000 0.15649500 9420.79899335 0 78.85886893 0 2311.36995054 0 -84.63452573 0 667.17178981 0 26331
0.15750000 0.15749700 9429.07001999 0 71.67658399 0 1937.00357610 0 275.39197012 0 747.16490769 0 27345
0.15850000 0.15849900 9311.82517248 0 151.68752832 0 2089.12624678 0 -11.00610124 0 580.91173608 0 26980
0.15950000 0.15949700 9221.38642336 0 201.63700004 0 2095.51497820 0 177.70970611 0 538.36632796 0 27777
0.16050000 0.16050000 8977.76206038 0 124.89139502 0 2229.74477198 0 -202.86492086 0 785.91361563 0 28224
0.16150000 0.16150500 8988.88974682 0 222.37103550 0 2290.36575036 0 -134.20543466 0 686.63693684 0 28075
0.16250000 0.16249700 8844.18553377 0 173.08922496 0 2399.99283839 0 -108.44688893 0 632.57852538 0 28590
0.16350000 0.16349900 8663.26374623 0 112.63543868 0 2438.77919223 0 33.91209501 0 834.51669265 0 29163
0.16450000 0.16449100 8673.01846439 0 45.30208483 0 2479.66928779 0 83.87607148 0 820.92209224 0 28996
0.16550000 0.16550500 8682.23063864 0 -33.64934874 0 2406.52551003 0 433.31100285 0 707.82383038 0 30777
0.16650000 0.16650700 8668.52310052 0 -8.22915111 0 2103.37632882 0 165.80917139 0 799.08193153 0 29211
0.16750000 0.16749900 8677.64669617 0 141.58071022 0 2106.78660487 0 104.09158996 0 754.99747027 0 30922
0.16850000 0.16850800 8574.50799048 0 136.77642848 0 2088.98230656 0 -47.21671123 0 894.20538128 0 30867
0.16950000 0.16949900 8362.88264622 0 48.32327938 0 2098.21662546 0 220.70907954 0 632.99152309 0 30852
0.17050000 0.17049200 8395.56814909 0 153.42699055 0 1897.88505251 0 53.85003031 0 555.78641660 0 31257
0.17150000 0.17149500 8263.85177305 0 173.30956422 0 2027.32052964 0 84.83648493 0 686.96799935 0 32608
0.17250000 0.17250900 8167.94329547 0 65.06109136 0 2074.67686289 0 42.63188297 0 505.05191705 0 32361
0.17350000 0.17350400 8051.99390997 0 104.40205795 0 1888.39607014 0 69.30688503 0 930.21036713 0 32508
0.17450000 0.17449800 8084.87871468 0 61.22176273 0 1908.90201571 0 186.67718198 0 760.79826124 0 32791
0.17550000 0.17549800 7986.50110866 0 -12.48194249 0 2025.36072815 0 93.29718049 0 908.87953337 0 33633
0.17650000 0.17650100 8133.32013576 0 139.66851973 0 1951.63011718 0 -151.19591710 0 707.29125156 0 33984
0.17750000 0.17750300 7893.71502668 0 110.89819092 0 1945.25245809 0 -58.38082562 0 1000.44544515 0 34069
0.17850000 0.17849800 7897.09208575 0 174.90397900 0 1997.36989101 0 -71.76593765 0 981.87162027 0 34536
