### header ###
fiducial parameters:
Omega_m = 0.31
Omega_nu = 0
Omega_de = 0.69
Omega_k = 0
H_0 = 100
w_de = -1
zeff = 0
beta = 0
fgrowth = 0
b_1 = 2
gamma = 0.55
Lx = 3500 Ly = 3500 Lz = 3500
nx = 700 ny = 700 nz = 700
xoffset = -685.467585 yoffset = -31.7331281 zoffset = 572.489161
bins = 400 dk = 0.001
kx_ny = 0.628318531 ky_ny = 0.628318531 kz_ny = 0.628318531
############################
A(data) = 8.06785509 (not used)
A(ran) = 8.06904979 (used)
Ngal = 479242
weighted Ngal = 0
Nran = 23820508
weighted Nran = 0
SN(data) = 3480.70834
SN(ran) = 70.28435
SN(data+ran) = 3550.99269
############################
13 columns: k_central k_mean P_0(k) sigma^{lin}_{P_0(k)} P^img_1(k) sigma^{lin}_{P_1(k)} P_2(k) sigma^{lin}_{P_2(k)} P^img_3(k) sigma^{lin}_{P_3(k)} P_4(k) sigma^{lin}_{P_4(k)} N_modes
### header ###
0.00050000 0 0 0 0 0 0 0 0 0 0 0 0
0.00150000 0.00179520 43405.94920055 0 -20130.15085979 0 37600.06495865 0 38340.91421226 0 -135824.20855033 0 3
0.00250000 0.00253879 82354.95549186 0 -14449.38388833 0 31094.74195795 0 18101.81167626 0 114435.79869816 0 6
0.00350000 0.00331552 76333.05019274 0 3690.49444065 0 45284.70127578 0 -82118.22918723 0 84245.22278490 0 7
0.00450000 0.00420575 67789.53363942 0 21854.88689679 0 25000.31293127 0 -16463.99338909 0 65135.94027339 0 24
0.00550000 0.00557378 66343.26657161 0 266.78766651 0 45287.13718724 0 17434.59338269 0 15905.94821823 0 45
0.00650000 0.00659388 65588.13401898 0 -92.07058835 0 51660.81024585 0 41106.22733572 0 31417.61094966 0 40
0.00750000 0.00754703 73103.25304314 0 3266.57941265 0 61890.64186904 0 28230.88514361 0 4564.78735298 0 57
0.00850000 0.00846663 62215.50387922 0 -391.16862736 0 27907.57325890 0 57408.56478245 0 10793.95550038 0 75
0.00950000 0.00948925 74187.78725913 0 -5056.93004652 0 34538.56714629 0 26668.58011170 0 -11577.88716987 0 112
0.01050000 0.01054430 78942.90787574 0 -2259.13072205 0 34729.34330292 0 863.03789415 0 -5348.95154129 0 105
0.01150000 0.01145670 74689.14212692 0 4488.99728960 0 30709.97867050 0 -22901.66448514 0 -1530.33923016 0 144
0.01250000 0.01249090 72590.05078780 0 7119.28341189 0 34805.29945117 0 -16568.62685862 0 16440.85223022 0 169
0.01350000 0.01339930 72490.17841793 0 -5053.45333653 0 35273.54806775 0 2415.33908059 0 20080.43612135 0 180
0.01450000 0.01448870 79827.47590551 0 -14246.98179065 0 23980.55181547 0 30979.47905659 0 -7142.70137888 0 267
0.01550000 0.01550050 95249.45280591 0 -8410.02860530 0 21049.92888247 0 21659.57108699 0 -23242.35991981 0 238
0.01650000 0.01653350 90984.83617876 0 4857.59498281 0 12104.81910799 0 -11305.17580958 0 -31661.86643516 0 315
0.01750000 0.01747870 89361.52263710 0 14087.31886676 0 20762.49133018 0 -24085.96034775 0 -18729.28032373 0 297
0.01850000 0.01844180 72784.59153486 0 13115.27947093 0 17358.74795768 0 -18203.12344835 0 -11300.63615641 0 388
0.01950000 0.01947590 69174.34930449 0 5769.03554491 0 29068.06362314 0 -4985.85679351 0 -6726.61448452 0 399
0.02050000 0.02045430 67328.37131073 0 2023.63344548 0 33443.95711472 0 2494.36226282 0 -11438.59732365 0 462
0.02150000 0.02154770 67688.77548358 0 1951.54153859 0 32315.68721570 0 13166.43361160 0 -4507.35520415 0 571
0.02250000 0.02255340 62939.41247586 0 5400.32712845 0 31795.50939572 0 16838.90230745 0 6705.39991017 0 510
0.02350000 0.02348930 63402.12493004 0 2141.81944059 0 24243.29808342 0 11701.67576134 0 4237.37870810 0 555
0.02450000 0.02439640 63430.47008157 0 -328.89233641 0 30563.71325965 0 11251.03214122 0 13674.76404402 0 592
0.02550000 0.02547300 64531.61278479 0 -1354.76537551 0 25685.24694455 0 6397.15745955 0 13406.70306016 0 837
0.02650000 0.02652900 61393.93737768 0 -437.86837174 0 27101.84018185 0 7372.60713142 0 9055.24618946 0 723
0.02750000 0.02749970 65818.32765196 0 -21.74349931 0 21426.05575656 0 -189.29800126 0 2655.45351661 0 826
0.02850000 0.02848090 65512.39931722 0 2612.54825793 0 32176.84026248 0 -4318.67171691 0 -2807.72012751 0 831
0.02950000 0.02946900 62770.22735264 0 4925.85586532 0 29839.02960027 0 -6586.87067299 0 -10623.33097493 0 996
0.03050000 0.03053250 57617.27810529 0 4144.53726449 0 32894.43763397 0 -4058.29492648 0 -3838.36533861 0 1041
0.03150000 0.03150510 57731.98739041 0 637.16246785 0 31645.59011768 0 -2094.18629922 0 -11995.42453878 0 1036
0.03250000 0.03246190 54406.63607762 0 2071.39945475 0 37111.55398765 0 5429.43627040 0 -10210.96438170 0 1059
0.03350000 0.03345080 54560.54139260 0 1054.27465949 0 31746.90188977 0 2610.73239666 0 -10363.97283837 0 1302
0.03450000 0.03451200 52245.65044277 0 -66.16289840 0 26796.46546335 0 9766.12265979 0 -9008.62062965 0 1339
0.03550000 0.03553350 51208.83794675 0 1135.15688506 0 26884.93333865 0 4550.29367980 0 -8270.72768676 0 1365
0.03650000 0.03647120 52954.05778467 0 1204.46963842 0 21135.62867657 0 10177.92456445 0 -6464.95330441 0 1308
0.03750000 0.03744890 50683.56685735 0 -305.95047939 0 18852.07240597 0 413.29556127 0 -2925.83968868 0 1579
0.03850000 0.03847530 50345.75022714 0 775.77911672 0 17055.47698090 0 -1279.66179627 0 -2482.09412692 0 1662
0.03950000 0.03950240 50157.63142847 0 1839.22387563 0 20124.72542063 0 1235.59394349 0 -3281.48276185 0 1683
0.04050000 0.04050350 47292.77810489 0 4096.07369876 0 16410.18189047 0 1221.06705333 0 -6871.10832341 0 1822
0.04150000 0.04152450 43402.84894960 0 2752.15920157 0 20233.78782009 0 1692.26090831 0 -2181.97876271 0 1887
0.04250000 0.04250150 41693.72489060 0 2158.50543410 0 18300.33846026 0 3560.21746684 0 -1249.86617018 0 1920
0.04350000 0.04349210 42127.76002349 0 -764.71564976 0 18769.91575582 0 1656.29799730 0 -784.49082189 0 2005
0.04450000 0.04448520 41776.54588024 0 -914.95602523 0 17878.03999168 0 1461.49151444 0 343.69603470 0 2151
0.04550000 0.04548030 43846.18483534 0 -358.51966316 0 17797.87635999 0 1285.20903100 0 2828.84612327 0 2274
0.04650000 0.04648670 43105.88919797 0 -730.82547796 0 17448.43378871 0 -1690.01322637 0 1279.50678372 0 2311
0.04750000 0.04749250 42864.06962393 0 2705.57793106 0 17317.78035585 0 1807.62346059 0 2057.43725315 0 2568
0.04850000 0.04851840 40901.83221957 0 2679.07078544 0 17382.88562579 0 1362.11739919 0 1884.04464649 0 2493
0.04950000 0.04949480 37384.70824093 0 2197.95612742 0 16273.77084870 0 4927.01845943 0 1009.53139490 0 2644
0.05050000 0.05050630 36216.57797256 0 600.04139166 0 11836.53667763 0 2665.52933219 0 1957.26593052 0 2829
0.05150000 0.05149060 36512.20904522 0 -467.51119975 0 10854.24430902 0 3203.03534051 0 512.27882345 0 2784
0.05250000 0.05249300 35879.20423533 0 443.53075866 0 9836.02224637 0 196.39314701 0 -1906.12286218 0 3055
0.05350000 0.05348950 35264.13659166 0 2389.10874309 0 11097.56971923 0 -1367.89715275 0 -1394.09427327 0 3009
0.05450000 0.05448610 32886.90845310 0 2227.37529447 0 11223.46205242 0 -3160.16329881 0 -2001.94276116 0 3336
0.05550000 0.05550870 31749.22707798 0 1485.04234933 0 14706.15110088 0 -3666.35677255 0 -1165.30682554 0 3349
0.05650000 0.05647670 31659.20907720 0 489.61266732 0 15555.39841447 0 761.86895505 0 -2036.68771644 0 3324
0.05750000 0.05747970 31523.13020518 0 -28.21294798 0 15683.61593587 0 1103.74248508 0 -703.81232710 0 3639
0.05850000 0.05849280 32575.22250945 0 -1132.94242009 0 14816.54217932 0 2859.93721136 0 -298.58295445 0 3846
0.05950000 0.05951020 33073.58784954 0 -1078.24845719 0 13009.64949216 0 4547.87991299 0 -747.28670327 0 3787
0.06050000 0.06049470 34230.75651633 0 -974.48637961 0 12185.09346292 0 3427.21670112 0 -719.28811550 0 3930
0.06150000 0.06148310 34045.73796861 0 112.60997234 0 10600.63270905 0 972.07704173 0 -1670.29341587 0 4083
0.06250000 0.06249100 33628.08987646 0 375.30530759 0 8944.58937522 0 395.52337271 0 -1957.90812536 0 4303
0.06350000 0.06350600 32817.04208349 0 212.79568899 0 7692.35372753 0 -26.95435682 0 -3566.90515103 0 4470
0.06450000 0.06451750 33277.09717970 0 252.06258173 0 7630.44835947 0 -720.78730828 0 -7416.90750302 0 4479
0.06550000 0.06550280 32432.50024254 0 1036.29209675 0 8049.71301105 0 -1471.81092117 0 -6589.63875419 0 4636
0.06650000 0.06648880 31734.94377896 0 1356.96876815 0 6610.93083482 0 -591.04291328 0 -8116.85558875 0 4653
0.06750000 0.06749660 30311.92859327 0 850.12092002 0 6383.46099375 0 -206.85760119 0 -5178.45988373 0 5220
0.06850000 0.06852730 30358.32163426 0 645.32609294 0 6776.01919787 0 2555.29326630 0 -4676.63997830 0 5029
0.06950000 0.06949320 29807.69492103 0 -77.61079648 0 5215.38608700 0 3820.14029195 0 -3388.47463658 0 5040
0.07050000 0.07048030 29639.94920003 0 260.21845619 0 3871.07298612 0 2767.30614192 0 -2629.04602191 0 5475
0.07150000 0.07148790 29202.48164644 0 743.56308043 0 5671.49943558 0 2.86335856 0 -1412.77328524 0 5509
0.07250000 0.07249820 27882.10691182 0 1287.08025389 0 5634.27427954 0 -382.54217909 0 -583.40079469 0 5916
0.07350000 0.07351270 26530.06532821 0 1390.21895958 0 6557.17469782 0 -680.92804616 0 931.06293614 0 5721
0.07450000 0.07449140 26156.59581208 0 508.57845250 0 5971.28263005 0 -575.50954880 0 597.83910626 0 6028
0.07550000 0.07549160 26203.65319256 0 -278.58190690 0 7495.04489926 0 -577.75280180 0 -828.69597149 0 6183
0.07650000 0.07648840 26624.18008917 0 181.86625684 0 7608.70231353 0 -332.23174958 0 -1560.77705109 0 6330
0.07750000 0.07749960 25818.77918186 0 146.58207934 0 6951.60412484 0 -1395.92120686 0 -646.51526063 0 6583
0.07850000 0.07848650 26521.87180785 0 612.64280454 0 9281.63094270 0 236.13282801 0 -929.94573857 0 6549
0.07950000 0.07947320 26044.10099192 0 224.98853308 0 9109.17948365 0 370.20318031 0 -1148.39938554 0 6828
0.08050000 0.08048110 25693.77263466 0 538.63427822 0 8456.31092304 0 118.88465881 0 -1073.88706844 0 7147
0.08150000 0.08149960 25248.99734670 0 581.24169135 0 9584.55867741 0 109.42335725 0 166.03393959 0 7386
0.08250000 0.08250610 24945.06203042 0 140.35943280 0 9464.03642176 0 946.69262985 0 90.85329696 0 7227
0.08350000 0.08350160 24655.29928992 0 649.79931217 0 9264.66814108 0 1387.89377137 0 -311.40913552 0 7798
0.08450000 0.08449610 24088.94987545 0 1057.88645185 0 8889.03952161 0 708.34755134 0 660.58707824 0 7371
0.08550000 0.08548940 22886.49540014 0 860.40932424 0 8035.44078436 0 388.59431184 0 433.75943200 0 8256
0.08650000 0.08650700 22661.06286683 0 397.30601700 0 7751.25849557 0 167.25410978 0 -419.49495594 0 8037
0.08750000 0.08749060 21946.78719278 0 281.45628243 0 7804.93712629 0 583.66874496 0 -1132.06770643 0 8155
0.08850000 0.08849210 21517.73460606 0 509.83848306 0 6224.55098795 0 -330.32288078 0 -1180.57556146 0 8718
0.08950000 0.08949900 21351.87118028 0 587.20967443 0 7556.00911972 0 -373.64556610 0 -1968.19431511 0 8571
0.09050000 0.09049190 20404.96596179 0 874.72805470 0 6905.16679455 0 -289.10282994 0 -1417.60081886 0 8932
0.09150000 0.09150830 19860.20758071 0 773.14390341 0 6946.16761335 0 393.37423446 0 -1723.55129824 0 9285
0.09250000 0.09250820 18986.15825953 0 260.85179317 0 6448.45554043 0 633.79315941 0 -1764.72927425 0 9204
0.09350000 0.09350330 18953.05200832 0 107.47717472 0 6717.70126305 0 1416.36071848 0 -1447.34108332 0 9349
0.09450000 0.09448040 19264.51650547 0 6.68207052 0 6702.72040757 0 1380.38673514 0 -950.68309572 0 9564
0.09550000 0.09549270 18573.38199029 0 185.79803939 0 5959.70097829 0 805.23039351 0 299.59717941 0 10155
0.09650000 0.09649430 18668.71470697 0 327.64669987 0 6137.19034513 0 115.45998874 0 665.53308573 0 9913
0.09750000 0.09749140 18158.83414908 0 619.36149124 0 6128.56500410 0 525.51025161 0 1656.92911981 0 10476
0.09850000 0.09850240 17913.47143110 0 423.79876860 0 6131.96420781 0 609.39639890 0 2125.24417034 0 10575
0.09950000 0.09950330 17821.57113510 0 -239.73908421 0 6051.83379310 0 93.00830354 0 1706.82101544 0 10882
0.10050000 0.10051200 17870.51081080 0 34.16465474 0 5807.89940502 0 1048.24467139 0 1649.13420314 0 10875
0.10150000 0.10150300 17649.17503767 0 722.83236667 0 5995.32064723 0 -526.53444166 0 1605.04420571 0 11118
0.10250000 0.10250800 17068.21015444 0 657.88985991 0 5422.49392273 0 536.76194809 0 1671.28992510 0 11575
0.10350000 0.10349800 16583.24232738 0 135.24069703 0 5593.55026886 0 624.89543918 0 1857.19425881 0 11364
0.10450000 0.10450100 16354.48809663 0 60.92037405 0 4978.09509381 0 606.81101106 0 695.75721079 0 12093
0.10550000 0.10551000 16582.24581815 0 -242.80168925 0 5328.01377506 0 498.12507064 0 959.66496561 0 12067
0.10650000 0.10649700 16514.59391351 0 21.21568159 0 4961.98486120 0 -478.34657682 0 412.56368060 0 12054
0.10750000 0.10749900 16608.93012096 0 341.01985379 0 5227.22240223 0 -1319.85433536 0 673.70556868 0 12807
0.10850000 0.10850100 16269.89553502 0 492.23348660 0 5824.04285461 0 -1355.41864267 0 280.38115969 0 12736
0.10950000 0.10950300 15959.98116334 0 542.63803087 0 5453.08675621 0 -697.69597487 0 40.69500119 0 12933
0.11050000 0.11050200 15442.01780833 0 180.78116901 0 5726.29637111 0 596.99650234 0 -354.23356623 0 13428
0.11150000 0.11150900 15607.77051086 0 -34.83973438 0 5355.63922548 0 707.74300241 0 -1424.26635840 0 13453
0.11250000 0.11250000 15578.76101984 0 30.43438851 0 5238.49402890 0 1255.86737023 0 -1997.70206075 0 13668
0.11350000 0.11349100 15142.40069873 0 264.08491202 0 4857.56176584 0 -65.41153044 0 -2212.12870319 0 13791
0.11450000 0.11448600 14802.81249654 0 564.40179254 0 4464.53852408 0 627.79970998 0 -924.41954125 0 14205
0.11550000 0.11549300 14428.67864092 0 259.67923397 0 4021.16942136 0 587.74557495 0 -1584.91471919 0 14776
0.11650000 0.11649800 14207.67503754 0 -115.26622306 0 3900.52537014 0 683.10375799 0 -1019.97259720 0 14553
0.11750000 0.11747300 14326.37035960 0 184.14272683 0 3875.43548210 0 285.79331206 0 -1605.76390682 0 14568
0.11850000 0.11849100 13980.47093226 0 323.53665290 0 3153.19880650 0 150.86928351 0 -846.86676375 0 16015
0.11950000 0.11950300 13824.35115232 0 162.00139889 0 3585.92740507 0 -274.83613942 0 -461.31291231 0 15270
0.12050000 0.12050700 13600.13657474 0 108.04717800 0 3369.98385413 0 -237.88225533 0 -593.56075995 0 15999
0.12150000 0.12150000 13874.06589076 0 104.98080837 0 3804.08542097 0 305.59284330 0 -1254.33938941 0 15670
0.12250000 0.12250700 13652.39794789 0 -10.61112927 0 3619.79764669 0 84.45770070 0 -852.57011827 0 16887
0.12350000 0.12352200 13666.79197015 0 -10.40430932 0 3959.45228282 0 122.91166335 0 -926.66943765 0 16407
0.12450000 0.12449800 13604.45478142 0 101.87468908 0 3998.38257689 0 279.80650603 0 -604.35627665 0 16306
0.12550000 0.12549900 13282.69302219 0 608.62576510 0 3796.56731242 0 584.60767810 0 -412.61793499 0 17523
0.12650000 0.12650100 12974.88239223 0 419.22257675 0 3636.19575974 0 209.61571730 0 -216.94338187 0 17154
0.12750000 0.12750600 12797.17157890 0 114.73142977 0 3396.98925436 0 330.54764897 0 149.62586144 0 18007
0.12850000 0.12850300 12736.16306914 0 -93.58284647 0 3683.81782879 0 7.63998163 0 624.22777800 0 17496
0.12950000 0.12949900 12789.64239802 0 -76.36161679 0 3405.40422122 0 -6.61332246 0 22.67324242 0 18405
0.13050000 0.13049000 13022.60411220 0 118.86362139 0 3609.15714254 0 -9.29897020 0 430.23400378 0 18100
0.13150000 0.13148800 12755.53963758 0 325.60496317 0 3748.52449503 0 -100.89445617 0 117.87375555 0 19059
0.13250000 0.13249300 12594.32658822 0 364.78659901 0 3774.79912182 0 -396.25746784 0 1048.85586372 0 18957
0.13350000 0.13349100 12361.47559728 0 357.70916899 0 4112.27250997 0 79.53228773 0 449.34372919 0 19468
0.13450000 0.13450700 12238.68351504 0 -98.50039810 0 4060.48724679 0 172.13589779 0 867.30184644 0 19953
0.13550000 0.13551000 12136.15378722 0 101.29726735 0 3959.72909094 0 418.63131460 0 588.89709673 0 19956
0.13650000 0.13649900 12350.51399571 0 69.56199140 0 4170.52401084 0 45.09968273 0 839.60664037 0 19723
0.13750000 0.13749600 11944.27039811 0 187.68033461 0 3762.01058666 0 140.99719871 0 905.44489821 0 20946
0.13850000 0.13851100 11907.39955647 0 312.20191398 0 4109.01724647 0 3.10386053 0 501.87858875 0 20955
0.13950000 0.13949800 11302.18628188 0 409.56972397 0 3627.08323642 0 131.80384741 0 596.92453223 0 20506
0.14050000 0.14048300 11206.63211870 0 424.68455458 0 3834.51216957 0 209.76630092 0 412.75191012 0 21447
0.14150000 0.14148400 10844.48959085 0 197.64874864 0 3520.68926723 0 107.09484734 0 837.42649961 0 21771
0.14250000 0.14249400 10710.65840077 0 21.50112612 0 3349.57755949 0 426.05530839 0 377.46441093 0 22470
0.14350000 0.14350900 10627.36130116 0 177.39414485 0 3346.52159784 0 150.30016602 0 306.89494870 0 22519
0.14450000 0.14449900 10402.12806970 0 106.17296558 0 2816.27903460 0 226.35375073 0 13.15768647 0 22218
0.14550000 0.14550500 10413.25575614 0 -1.07820085 0 3095.09124586 0 -25.78235123 0 -54.07280548 0 23559
0.14650000 0.14650700 10356.91976746 0 -22.30708064 0 2892.39019540 0 247.28930250 0 322.55232322 0 23044
0.14750000 0.14750500 10322.03087196 0 116.89385481 0 2868.77292656 0 247.27712294 0 -75.58024283 0 23649
0.14850000 0.14849900 10271.25319034 0 234.80082734 0 2578.58943772 0 309.88669086 0 286.67245465 0 23640
0.14950000 0.14949500 10215.10543119 0 -32.80619121 0 3000.22356681 0 26.56040350 0 72.97946445 0 24457
0.15050000 0.15050000 10184.53474236 0 54.69274495 0 3019.36761642 0 55.30770187 0 346.85496897 0 24591
0.15150000 0.15149900 10153.69831774 0 129.68460444 0 3087.38490778 0 -149.37894859 0 208.30696851 0 25020
0.15250000 0.15250500 10132.24015224 0 185.73271267 0 3258.46339855 0 -364.43560631 0 520.64285762 0 25297
0.15350000 0.15350100 10031.62593662 0 107.90301633 0 3239.59615706 0 -110.20583845 0 390.64933532 0 25452
0.15450000 0.15450400 9894.91594208 0 147.59851876 0 3376.79333389 0 -30.56891725 0 439.58568932 0 26061
0.15550000 0.15549900 9807.30063579 0 322.06292646 0 3337.54194241 0 112.75391256 0 293.99679751 0 26128
0.15650000 0.15649500 9486.81219392 0 254.15192942 0 3206.24631471 0 29.01159477 0 -103.84689158 0 26331
0.15750000 0.15749700 9400.09374594 0 238.09484397 0 3170.80380297 0 242.15617271 0 251.13693537 0 27345
0.15850000 0.15849900 9055.03581529 0 87.99298329 0 3070.58819103 0 177.62334197 0 63.69133405 0 26980
0.15950000 0.15949700 9075.10994018 0 66.97892874 0 3047.87885283 0 247.82409579 0 102.64620868 0 27777
0.16050000 0.16050000 9015.48547104 0 23.08247555 0 2914.65664061 0 67.47563323 0 -179.78798148 0 28224
0.16150000 0.16150500 9028.30722318 0 205.85998473 0 3046.09620853 0 -38.82256034 0 240.02807188 0 28075
0.16250000 0.16249700 8885.19742489 0 9.45142504 0 2989.42805011 0 -1.63162886 0 305.55741186 0 28590
0.16350000 0.16349900 8938.87605562 0 94.12948715 0 3030.26278404 0 103.55081762 0 350.35714531 0 29163
0.16450000 0.16449100 8975.47008914 0 110.20439905 0 3023.26507476 0 330.05935945 0 690.99832558 0 28996
0.16550000 0.16550500 8941.73271542 0 -44.52480762 0 2894.90361313 0 327.93347308 0 762.26202258 0 30777
0.16650000 0.16650700 8839.59051897 0 86.72176968 0 2675.91517287 0 64.56327963 0 859.90885516 0 29211
0.16750000 0.16749900 8768.96015895 0 171.18257063 0 3006.23583919 0 76.29119680 0 734.65096618 0 30922
0.16850000 0.16850800 8616.50531852 0 304.19219421 0 2994.86456160 0 -111.23036066 0 840.64633167 0 30867
0.16950000 0.16949900 8367.16763593 0 167.85090809 0 2786.78236128 0 65.92572920 0 925.65853440 0 30852
0.17050000 0.17049200 8241.71819573 0 59.34024257 0 2680.59876627 0 377.66814170 0 1105.40776273 0 31257
0.17150000 0.17149500 8327.59514703 0 -35.94829554 0 2550.25535850 0 208.31804084 0 455.96830112 0 32608
0.17250000 0.17250900 8291.34435557 0 15.63290469 0 2424.60661646 0 174.37472187 0 296.20351185 0 32361
0.17350000 0.17350400 8154.47934849 0 208.70667944 0 2514.08207332 0 -22.40451710 0 189.42201130 0 32508
0.17450000 0.17449800 7999.27857150 0 154.42128532 0 2280.21242850 0 -66.36109301 0 317.59745787 0 32791
0.17550000 0.17549800 7921.32940478 0 149.02241973 0 2310.46201991 0 45.88947166 0 220.86409209 0 33633
0.17650000 0.17650100 7854.75151565 0 23.01847751 0 2153.53396025 0 157.01110209 0 110.00354707 0 33984
0.17750000 0.17750300 7754.55804836 0 59.27624453 0 2274.89771259 0 53.62315837 0 165.99518645 0 34069
0.17850000 0.17849800 7740.70657001 0 124.06982852 0 2096.47827046 0 45.00224627 0 -78.37965871 0 34536
