### header ###
fiducial parameters:
Omega_m = 0.31
Omega_nu = 0
Omega_de = 0.69
Omega_k = 0
H_0 = 100
w_de = -1
zeff = 0
beta = 0
fgrowth = 0
b_1 = 2
gamma = 0.55
Lx = 3500 Ly = 3500 Lz = 3500
nx = 700 ny = 700 nz = 700
xoffset = -685.467585 yoffset = -31.7331281 zoffset = 572.489161
bins = 400 dk = 0.001
kx_ny = 0.628318531 ky_ny = 0.628318531 kz_ny = 0.628318531
############################
A(data) = 8.04389124 (not used)
A(ran) = 8.0380703 (used)
Ngal = 477905
weighted Ngal = 0
Nran = 23820508
weighted Nran = 0
SN(data) = 3495.06102
SN(ran) = 70.0145075
SN(data+ran) = 3565.07553
############################
13 columns: k_central k_mean P_0(k) sigma^{lin}_{P_0(k)} P^img_1(k) sigma^{lin}_{P_1(k)} P_2(k) sigma^{lin}_{P_2(k)} P^img_3(k) sigma^{lin}_{P_3(k)} P_4(k) sigma^{lin}_{P_4(k)} N_modes
### header ###
0.00050000 0 0 0 0 0 0 0 0 0 0 0 0
0.00150000 0.00179520 20091.95133916 0 -34913.91895764 0 -9824.24129276 0 -25356.95251368 0 -18360.35046078 0 3
0.00250000 0.00253879 31739.81560188 0 -28874.74083181 0 -11410.69506510 0 -22920.59816058 0 6631.33712946 0 6
0.00350000 0.00331552 51258.10979219 0 -19196.75387758 0 -10583.10521886 0 4610.61570541 0 2139.46103541 0 7
0.00450000 0.00420575 57208.59859623 0 412.34777027 0 3959.60729537 0 -34783.70841778 0 12099.83656182 0 24
0.00550000 0.00557378 51182.70726018 0 6985.62937901 0 7552.56562670 0 -7682.65437099 0 14023.09938282 0 45
0.00650000 0.00659388 38596.68491557 0 4480.17264672 0 26448.68374080 0 -2706.99518864 0 45938.18988658 0 40
0.00750000 0.00754703 63880.89225519 0 -11870.30726833 0 27951.75183493 0 15324.09754901 0 -14549.69915119 0 57
0.00850000 0.00846663 65325.94136728 0 -14334.01026372 0 26246.50308961 0 36619.61059596 0 24271.08961871 0 75
0.00950000 0.00948925 81750.07438702 0 -11510.23526522 0 4996.71874416 0 12521.80286066 0 -7821.80027699 0 112
0.01050000 0.01054430 104323.33371804 0 -8376.49053343 0 6441.56855439 0 -16940.65697253 0 -10976.51599199 0 105
0.01150000 0.01145670 97419.51774712 0 4697.47809361 0 14938.55919882 0 -33901.90846922 0 -26678.76665053 0 144
0.01250000 0.01249090 89415.77702871 0 20948.50638713 0 28792.58418166 0 -37473.84045572 0 -6718.17737301 0 169
0.01350000 0.01339930 74922.76818059 0 6686.31122218 0 28619.85591449 0 -18978.51835540 0 -22333.98639169 0 180
0.01450000 0.01448870 78388.95946507 0 -5673.56996032 0 21382.54152003 0 16573.94157454 0 -21100.19723715 0 267
0.01550000 0.01550050 89316.01538209 0 -11762.79499434 0 25688.01502576 0 21456.72609631 0 -44051.35501423 0 238
0.01650000 0.01653350 88181.54498117 0 918.55563802 0 3694.13723552 0 6045.95438862 0 -45381.25194820 0 315
0.01750000 0.01747870 88338.10765411 0 2470.85571723 0 12165.60617124 0 -13667.34558639 0 -39217.06727516 0 297
0.01850000 0.01844180 90064.72598633 0 -358.94926937 0 9565.75786987 0 -4077.83757978 0 -32283.24530398 0 388
0.01950000 0.01947590 80595.12018518 0 3759.25357778 0 17829.98610196 0 -12521.69213741 0 -23969.70093715 0 399
0.02050000 0.02045430 81788.49535414 0 9888.18396859 0 29252.63927787 0 1142.14352202 0 -34713.50987843 0 462
0.02150000 0.02154770 70585.84927237 0 10015.44927006 0 22018.64658086 0 -1881.38728853 0 -12214.65657019 0 571
0.02250000 0.02255340 70480.99435634 0 2750.50942517 0 27375.88022111 0 3524.98532926 0 -18102.69746225 0 510
0.02350000 0.02348930 68371.27358540 0 -4736.25337512 0 27276.78291398 0 6057.29244924 0 -9000.49354323 0 555
0.02450000 0.02439640 71532.53304437 0 -2596.16121720 0 33894.37928834 0 4431.03366917 0 -16407.85670226 0 592
0.02550000 0.02547300 72385.65567164 0 -693.08656605 0 31399.67378345 0 -597.61987423 0 -15337.60578529 0 837
0.02650000 0.02652900 71332.01324190 0 3638.29950146 0 30815.27647953 0 -1057.71593804 0 -10307.12752275 0 723
0.02750000 0.02749970 71452.48013593 0 3655.30659238 0 29064.07758621 0 -5200.73740127 0 -9969.45483276 0 826
0.02850000 0.02848090 67611.26920984 0 1620.09149514 0 30144.84721176 0 5974.29430240 0 -6589.84912836 0 831
0.02950000 0.02946900 66388.66310337 0 3209.12511916 0 23908.02808791 0 4708.97116677 0 -11145.18071595 0 996
0.03050000 0.03053250 64290.67899673 0 2575.79921186 0 25145.69255614 0 3128.44108821 0 -12014.24749097 0 1041
0.03150000 0.03150510 61961.28330139 0 1396.28659358 0 16490.12407566 0 7188.87297338 0 -8832.30492924 0 1036
0.03250000 0.03246190 58590.97834984 0 4073.76296425 0 16285.28606651 0 4064.26290956 0 -9585.93164569 0 1059
0.03350000 0.03345080 57814.47621031 0 1417.61189118 0 14270.89801226 0 5921.92220600 0 -8780.92934208 0 1302
0.03450000 0.03451200 57123.78458812 0 -1857.78109202 0 8434.97455312 0 4370.02515942 0 -10890.05220748 0 1339
0.03550000 0.03553350 56858.38096222 0 2185.22295388 0 8594.90321280 0 1976.84180080 0 -11610.43980483 0 1365
0.03650000 0.03647120 54028.07329207 0 2721.30063230 0 8411.14691011 0 -2607.77608594 0 -7561.53420980 0 1308
0.03750000 0.03744890 50952.51362720 0 3370.91392941 0 10725.22958023 0 -1730.80367100 0 -6829.15528467 0 1579
0.03850000 0.03847530 48243.78008356 0 4551.15732113 0 10386.17284963 0 -2346.07061652 0 -9717.78088963 0 1662
0.03950000 0.03950240 45183.50022694 0 1195.09137930 0 11206.63211870 0 818.89142787 0 -8782.24694873 0 1683
0.04050000 0.04050350 44511.07794070 0 2156.06952264 0 12212.44210522 0 -1914.01742978 0 -4352.35372901 0 1822
0.04150000 0.04152450 45742.54190703 0 -964.87117274 0 13224.67404014 0 2084.22120689 0 -5979.23255927 0 1887
0.04250000 0.04250150 43932.77041542 0 -440.54787435 0 11649.63583469 0 1036.67630642 0 -2900.31797997 0 1920
0.04350000 0.04349210 46369.12476852 0 -156.48405943 0 12117.44155828 0 526.41818225 0 -10199.48238087 0 2005
0.04450000 0.04448520 44117.78896314 0 491.67211973 0 10339.23726473 0 763.62613300 0 -6650.45903442 0 2151
0.04550000 0.04548030 45551.32285741 0 740.93340328 0 11756.59449244 0 -3664.16445223 0 -10654.57707556 0 2274
0.04650000 0.04648670 44091.87972307 0 613.34811163 0 14232.69849163 0 -3004.19853142 0 -5832.62390634 0 2311
0.04750000 0.04749250 44359.05492094 0 1934.72267719 0 17205.06408920 0 -1728.93244811 0 -10085.35992896 0 2568
0.04850000 0.04851840 42561.57370988 0 2514.08207332 0 20182.52295618 0 -2452.16563294 0 -5107.23161817 0 2493
0.04950000 0.04949480 41479.80757510 0 2331.24477359 0 20576.80844297 0 1093.24702839 0 -1994.57966516 0 2644
0.05050000 0.05050630 40561.35823140 0 345.68351700 0 21041.95680860 0 3900.84646756 0 -3088.83538233 0 2829
0.05150000 0.05149060 40932.94545231 0 351.08791874 0 23310.12254770 0 1956.75660358 0 697.69376040 0 2784
0.05250000 0.05249300 39715.54333850 0 1118.41552993 0 21130.31396066 0 4035.74060082 0 -1455.51245904 0 3055
0.05350000 0.05348950 38349.10773263 0 2244.85849536 0 19384.31906000 0 866.13039447 0 2323.08447020 0 3009
0.05450000 0.05448610 36459.61550233 0 1357.92098808 0 19028.89743333 0 4453.56585018 0 4197.66227897 0 3336
0.05550000 0.05550870 34400.38453256 0 1478.87506440 0 15446.22529176 0 5590.83754928 0 5865.95160405 0 3349
0.05650000 0.05647670 33255.83831605 0 991.46911142 0 13730.01494487 0 5724.21477404 0 6168.99006201 0 3324
0.05750000 0.05747970 32621.17265745 0 -251.20669102 0 10955.02460952 0 4715.09416240 0 4545.05647016 0 3639
0.05850000 0.05849280 32231.75899358 0 -361.66309618 0 8526.39873915 0 1523.79548619 0 3696.14132631 0 3846
0.05950000 0.05951020 32670.55522614 0 713.23155382 0 9007.50232484 0 -1854.72513037 0 1638.80372408 0 3787
0.06050000 0.06049470 32621.28338070 0 185.36400425 0 11079.18966003 0 -3977.66625715 0 3488.02590902 0 3930
0.06150000 0.06148310 32233.41984230 0 236.52478831 0 12117.44155828 0 -1869.63955190 0 3665.53742051 0 4083
0.06250000 0.06249100 32323.54856632 0 -197.25346664 0 13242.38975985 0 74.76255164 0 3389.37149489 0 4303
0.06350000 0.06350600 32771.42410524 0 282.40960959 0 13369.50004877 0 1320.62939809 0 -1831.88292427 0 4470
0.06450000 0.06451750 32535.14069361 0 1016.69740352 0 12899.81202996 0 508.34814814 0 585.64847663 0 4479
0.06550000 0.06550280 31890.73138916 0 1120.33104213 0 14575.16549827 0 -305.30053392 0 2533.84617312 0 4636
0.06650000 0.06648880 31166.04772978 0 559.27752061 0 14219.96531809 0 503.82731792 0 5278.62013404 0 4653
0.06750000 0.06749660 31453.59600532 0 -672.82753332 0 13312.80974570 0 3925.63740283 0 4298.34292855 0 5220
0.06850000 0.06852730 31039.15888736 0 -381.63978462 0 10940.55308098 0 2317.08327015 0 929.62021222 0 5029
0.06950000 0.06949320 31980.86011319 0 343.89312208 0 10810.65256621 0 1087.36540944 0 1100.08751066 0 5040
0.07050000 0.07048030 30646.53424929 0 1208.36709676 0 11116.83556442 0 13.86664743 0 2843.66089387 0 5475
0.07150000 0.07148790 29268.80487211 0 1786.35352462 0 9948.71636837 0 -312.87289687 0 3007.54237351 0 5509
0.07250000 0.07249820 28773.65050622 0 187.87631476 0 9951.41801563 0 -157.72637427 0 2887.02011786 0 5916
0.07350000 0.07351270 28637.23946445 0 -26.00822666 0 10191.27778818 0 75.82959158 0 1889.41472403 0 5721
0.07450000 0.07449140 28548.99303565 0 385.36119299 0 10779.37324859 0 1302.55936399 0 694.92346473 0 6028
0.07550000 0.07549160 27524.91371317 0 873.26650782 0 10298.61290497 0 -1241.11903357 0 1037.46576318 0 6183
0.07650000 0.07648840 27138.71102349 0 1467.47056984 0 11205.96777921 0 -179.30965704 0 2471.04394675 0 6330
0.07750000 0.07749960 25651.91924685 0 890.00675571 0 10237.73726312 0 1483.44793455 0 1976.31032921 0 6583
0.07850000 0.07848650 25242.68612155 0 395.28531772 0 10686.39893709 0 2056.93899853 0 911.67640262 0 6549
0.07950000 0.07947320 24848.51135801 0 92.06195194 0 8675.56509910 0 1961.55092022 0 2029.82287505 0 6828
0.08050000 0.08048110 25020.24311594 0 -656.58886175 0 7330.07833179 0 2467.95476813 0 1385.12569016 0 7147
0.08150000 0.08149960 25325.95000419 0 -618.66172031 0 7073.16717902 0 -208.87719324 0 42.95907017 0 7386
0.08250000 0.08250610 25836.60562482 0 345.24948187 0 7295.03442374 0 27.15686964 0 14.94055222 0 7227
0.08350000 0.08350160 24821.93777844 0 705.78541538 0 6998.58399905 0 -390.76338027 0 413.55022474 0 7798
0.08450000 0.08449610 24685.52673668 0 1171.81735253 0 7848.17455470 0 -826.13605000 0 114.46347951 0 7371
0.08550000 0.08548940 24169.44567688 0 516.67785810 0 8461.62563896 0 -59.35862263 0 -42.70230296 0 8256
0.08650000 0.08650700 23158.65314418 0 714.85143494 0 8242.60398172 0 78.52769570 0 -146.78802459 0 8037
0.08750000 0.08749060 22447.47772108 0 1134.76935369 0 8621.74252816 0 490.95795478 0 1072.12103263 0 8155
0.08850000 0.08849210 22133.90948222 0 935.79856947 0 8050.12268707 0 495.87074531 0 -617.20128067 0 8718
0.08950000 0.08949900 21019.59071247 0 595.52609760 0 8523.27634355 0 1497.14440035 0 1279.37391582 0 8571
0.09050000 0.09049190 20327.45968806 0 301.71420791 0 7472.77845405 0 523.45190643 0 19.53667425 0 8932
0.09150000 0.09150830 19839.61305655 0 413.62662379 0 6741.21888096 0 1371.30742879 0 375.50460943 0 9285
0.09250000 0.09250820 19715.82446507 0 281.10528973 0 6359.58906144 0 766.49054343 0 -212.45133969 0 9204
0.09350000 0.09350330 19534.34906130 0 49.23574966 0 5389.49839478 0 10.72965851 0 -654.68995804 0 9349
0.09450000 0.09448040 19531.13808710 0 71.78343192 0 5890.25535702 0 -173.66498585 0 -875.85521736 0 9564
0.09550000 0.09549270 18967.33530733 0 546.71043194 0 5021.03356946 0 -936.00672917 0 -571.42053924 0 10155
0.09650000 0.09649430 18571.49969507 0 548.90053779 0 5921.95542298 0 543.61793162 0 -102.18637503 0 9913
0.09750000 0.09749140 18268.89305777 0 133.25653642 0 5152.61707761 0 771.16306450 0 -255.31895246 0 10476
0.09850000 0.09850240 18155.73389813 0 345.08893316 0 5036.87806628 0 1002.55140133 0 -508.44890630 0 10575
0.09950000 0.09950330 17577.20492635 0 378.63586289 0 4721.80399124 0 358.06016168 0 -111.30343801 0 10882
0.10050000 0.10051200 17714.39103086 0 311.09578873 0 5216.11686044 0 -76.07406852 0 351.14106590 0 10875
0.10150000 0.10150300 17330.84569914 0 -44.88986217 0 5235.10589750 0 -294.77850365 0 510.84717186 0 11118
0.10250000 0.10250800 17438.57941962 0 75.85217913 0 5718.35751421 0 -413.72627471 0 168.78873400 0 11575
0.10350000 0.10349800 17058.13433885 0 731.78323405 0 5296.45764932 0 109.28772127 0 528.86848773 0 11364
0.10450000 0.10450100 16746.22694871 0 454.40156716 0 5049.29014240 0 668.19708709 0 686.39998909 0 12093
0.10550000 0.10551000 16583.79594362 0 -91.10973200 0 4688.01125589 0 1029.48372422 0 636.96980940 0 12067
0.10650000 0.10649700 16379.51155072 0 -110.85500885 0 4570.29029842 0 661.17612592 0 -268.37211619 0 12054
0.10750000 0.10749900 16446.49911587 0 -72.85257561 0 4519.91122049 0 320.03004763 0 -150.22930314 0 12807
0.10850000 0.10850100 16224.72044976 0 461.47567549 0 4909.44667994 0 -444.58927291 0 -52.45657823 0 12736
0.10950000 0.10950300 16126.39820537 0 553.91076477 0 4846.22370522 0 -68.63313407 0 885.25008497 0 12933
0.11050000 0.11050200 15624.82189108 0 342.00861239 0 4913.85346522 0 -124.32338476 0 1111.97143689 0 13428
0.11150000 0.11150900 15557.94504918 0 366.07209592 0 4958.28670471 0 423.32930202 0 1391.19332416 0 13453
0.11250000 0.11250000 15343.80628718 0 187.33155637 0 5071.98840828 0 396.09138297 0 1072.76987087 0 13668
0.11350000 0.11349100 15024.59116266 0 264.69499711 0 4668.41324096 0 331.48990382 0 334.43735668 0 13791
0.11450000 0.11448600 15092.46451380 0 178.38954685 0 5084.65514787 0 -317.95509396 0 801.79132942 0 14205
0.11550000 0.11549300 14578.26574922 0 239.27958273 0 4659.05712649 0 -397.70904963 0 231.21117963 0 14776
0.11650000 0.11649800 14686.77453245 0 255.56918700 0 5056.96326350 0 -253.84079709 0 358.36354338 0 14553
0.11750000 0.11747300 14341.76089110 0 210.92225163 0 5361.37468974 0 -253.48094654 0 392.88815940 0 14568
0.11850000 0.11849100 14218.74736236 0 324.28846375 0 5459.57513855 0 250.26554341 0 2.97832251 0 16015
0.11950000 0.11950300 13993.64699880 0 280.92481083 0 5131.88968554 0 344.21200503 0 580.27286293 0 15270
0.12050000 0.12050700 13879.71277641 0 -178.95202095 0 4761.34326316 0 521.44117224 0 349.81570862 0 15999
0.12150000 0.12150000 13904.40406076 0 -117.18727142 0 4723.58663553 0 581.63586612 0 567.17651714 0 15670
0.12250000 0.12250700 14034.39315413 0 71.88230779 0 4512.90243888 0 829.36252545 0 347.55695436 0 16887
0.12350000 0.12352200 13833.20901218 0 266.17093801 0 4138.89037883 0 97.79874487 0 403.59066857 0 16407
0.12450000 0.12449800 13689.60095928 0 244.80135111 0 3952.44350121 0 275.33328680 0 649.15822456 0 16306
0.12550000 0.12549900 13466.49361418 0 118.04869829 0 4159.00879303 0 80.73064544 0 832.62443234 0 17523
0.12650000 0.12650100 13372.82174622 0 203.09965415 0 4340.94923445 0 -22.80212429 0 817.44427501 0 17154
0.12750000 0.12750600 13204.74385547 0 258.84548791 0 4379.37020157 0 268.75854032 0 927.03150267 0 18007
0.12850000 0.12850300 13089.25950761 0 -1.39979652 0 3636.79366528 0 336.16685382 0 819.98315909 0 17496
0.12950000 0.12949900 13192.89646791 0 -72.45430409 0 4011.18218438 0 239.89741845 0 378.71004747 0 18405
0.13050000 0.13049000 13187.69247525 0 39.96478137 0 3618.42467841 0 -247.43656442 0 68.95113124 0 18100
0.13150000 0.13148800 13068.99715319 0 249.16716879 0 3941.22723617 0 -285.00828423 0 -671.51324837 0 19059
0.13250000 0.13249300 12636.73359227 0 377.69914421 0 3320.98881681 0 -617.22674702 0 -376.40811114 0 18957
0.13350000 0.13349100 12684.01241925 0 218.09933258 0 4013.62916816 0 -264.03951549 0 -990.75383924 0 19468
0.13450000 0.13450700 12448.94696335 0 118.22806995 0 4027.73530998 0 -286.47979620 0 -579.70485267 0 19953
0.13550000 0.13551000 12408.75442426 0 204.83911638 0 4133.70853082 0 344.92506275 0 -1167.56557980 0 19956
0.13650000 0.13649900 12298.80623881 0 51.76965120 0 4093.05095408 0 63.23305053 0 -673.21617193 0 19723
0.13750000 0.13749600 12197.05157372 0 270.14147369 0 4463.11019417 0 90.59807987 0 -653.30370297 0 20946
0.13850000 0.13851100 11962.20756432 0 328.47823146 0 4388.34985700 0 234.94808926 0 -335.87454444 0 20955
0.13950000 0.13949800 11740.09672846 0 181.59830658 0 4160.49248456 0 376.89861513 0 25.08933442 0 20506
0.14050000 0.14048300 11527.06519895 0 177.43511245 0 3875.87837509 0 550.37758592 0 -48.10294011 0 21447
0.14150000 0.14148400 11461.62775927 0 21.19353694 0 3752.53267661 0 615.62568885 0 -107.88762580 0 21771
0.14250000 0.14249400 11501.59885187 0 21.45694754 0 3595.33888116 0 391.14094654 0 -367.07081962 0 22470
0.14350000 0.14350900 11326.43467323 0 169.80960235 0 3274.78400534 0 -152.94645165 0 -10.45072450 0 22519
0.14450000 0.14449900 11186.81265727 0 164.88795397 0 3565.31073625 0 130.79294415 0 545.88332928 0 22218
0.14550000 0.14550500 11151.04904811 0 129.80529278 0 3469.38011403 0 -7.13858247 0 548.94150539 0 23559
0.14650000 0.14650700 11050.11373506 0 122.37022666 0 3510.54701770 0 136.53505180 0 477.53054648 0 23044
0.14750000 0.14750500 10974.37903330 0 136.43982981 0 3332.82513204 0 537.39417784 0 230.06187231 0 23649
0.14850000 0.14849900 10590.86691856 0 81.28271156 0 2854.11316850 0 304.09918668 0 183.70647723 0 23640
0.14950000 0.14949500 10550.32006507 0 284.02616902 0 2677.24385185 0 336.77361722 0 -9.14958240 0 24457
0.15050000 0.15050000 10240.53856130 0 285.08025434 0 2618.06227569 0 41.02949612 0 136.86057815 0 24591
0.15150000 0.15149900 10012.72547815 0 261.37772860 0 2305.73413721 0 80.11723865 0 -54.16680952 0 25020
0.15250000 0.15250500 9807.05704465 0 169.83396146 0 2346.33635232 0 -75.07324107 0 -54.43963161 0 25297
0.15350000 0.15350100 9785.62102380 0 177.06086787 0 2471.92973274 0 -9.39506691 0 -315.60554663 0 25452
0.15450000 0.15450400 9533.06129468 0 188.19851941 0 2590.34824667 0 -24.00236430 0 13.61120890 0 26061
0.15550000 0.15549900 9447.16219874 0 320.24152903 0 2775.61038554 0 -210.48932373 0 206.10025417 0 26128
0.15650000 0.15649500 9350.88833444 0 53.67785566 0 2589.61747323 0 438.78958917 0 473.09054422 0 26331
0.15750000 0.15749700 9175.74630046 0 -27.86040516 0 2684.64016483 0 262.29230263 0 215.17845329 0 27345
0.15850000 0.15849900 9321.55774600 0 78.09343912 0 2427.40791464 0 117.10422898 0 167.63831945 0 26980
0.15950000 0.15949700 9189.95209320 0 156.45970031 0 2394.60061620 0 -163.09866628 0 28.56449429 0 27777
0.16050000 0.16050000 9113.04372501 0 107.43565350 0 2392.16470474 0 -256.43061387 0 234.22174475 0 28224
0.16150000 0.16150500 9067.19322794 0 -15.06090839 0 2701.47009855 0 -216.26464836 0 210.73070041 0 28075
0.16250000 0.16249700 9167.37562290 0 44.25154265 0 2841.66787541 0 -105.20103691 0 332.69014383 0 28590
0.16350000 0.16349900 9145.54099836 0 151.93111946 0 3097.48286802 0 107.31872975 0 175.02134564 0 29163
0.16450000 0.16449100 8963.54519531 0 132.43054099 0 2939.38114193 0 292.39684658 0 471.25807447 0 28996
0.16550000 0.16550500 8953.58010297 0 116.07782447 0 2988.68620435 0 547.55857202 0 680.25595605 0 30777
0.16650000 0.16650700 8699.74705651 0 39.09338941 0 2565.59052838 0 347.76732853 0 645.74573405 0 29211
0.16750000 0.16749900 8785.30291038 0 13.29586909 0 2336.05016256 0 334.42960605 0 294.62349110 0 30922
0.16850000 0.16850800 8676.22943859 0 105.35549584 0 1880.09182653 0 285.81102778 0 437.44651617 0 30867
0.16950000 0.16949900 8521.65978412 0 186.18999969 0 2077.37851015 0 -97.13141586 0 159.55441510 0 30852
0.17050000 0.17049200 8423.80257738 0 165.03189419 0 1764.34174288 0 -27.91310942 0 252.55087125 0 31257
0.17150000 0.17149500 8269.84190077 0 124.06872129 0 1842.15804170 0 -6.70143602 0 156.24821891 0 32608
0.17250000 0.17250900 8124.73908402 0 175.83848321 0 1851.97919382 0 -33.51493072 0 143.49179349 0 32361
0.17350000 0.17350400 8210.17314233 0 82.33856845 0 2060.75895060 0 -84.71646093 0 186.70929172 0 32508
0.17450000 0.17449800 8081.83382535 0 81.59041146 0 2338.61894192 0 -205.12810406 0 363.89084793 0 32791
0.17550000 0.17549800 8050.24448264 0 54.99955907 0 2309.77553577 0 -57.39140268 0 541.83196563 0 33633
0.17650000 0.17650100 8058.07261629 0 -22.67202447 0 2447.30488234 0 240.01257063 0 729.25763676 0 33984
0.17750000 0.17750300 8136.37609741 0 -51.52572788 0 2217.97489070 0 349.14251127 0 798.51613574 0 34069
0.17850000 0.17849800 8079.54185412 0 98.76535883 0 2317.54830779 0 410.05690626 0 758.34795576 0 34536
