### header ###
fiducial parameters:
Omega_m = 0.31
Omega_nu = 0
Omega_de = 0.69
Omega_k = 0
H_0 = 100
w_de = -1
zeff = 0
beta = 0
fgrowth = 0
b_1 = 2
gamma = 0.55
Lx = 3500 Ly = 3500 Lz = 3500
nx = 700 ny = 700 nz = 700
xoffset = -685.467585 yoffset = -31.7331281 zoffset = 572.489161
bins = 400 dk = 0.001
kx_ny = 0.628318531 ky_ny = 0.628318531 kz_ny = 0.628318531
############################
A(data) = 8.05776188 (not used)
A(ran) = 8.04492863 (used)
Ngal = 478348
weighted Ngal = 0
Nran = 23820508
weighted Nran = 0
SN(data) = 3504.19618
SN(ran) = 70.074246
SN(data+ran) = 3574.27043
############################
13 columns: k_central k_mean P_0(k) sigma^{lin}_{P_0(k)} P^img_1(k) sigma^{lin}_{P_1(k)} P_2(k) sigma^{lin}_{P_2(k)} P^img_3(k) sigma^{lin}_{P_3(k)} P_4(k) sigma^{lin}_{P_4(k)} N_modes
### header ###
0.00050000 0 0 0 0 0 0 0 0 0 0 0 0
0.00150000 0.00179520 12874.78857587 0 13903.29682828 0 46143.13861897 0 -2343.31360764 0 21291.63773326 0 3
0.00250000 0.00253879 30491.41097858 0 -1237.58696195 0 18798.03946086 0 53195.32374246 0 25573.08429414 0 6
0.00350000 0.00331552 34463.60750727 0 -20718.53420065 0 9301.90436944 0 29497.78054936 0 -59818.56700248 0 7
0.00450000 0.00420575 52358.47743267 0 -19719.69977876 0 -2024.09848312 0 49781.17238463 0 -60342.17724316 0 24
0.00550000 0.00557378 80282.32700906 0 -13500.59637462 0 15675.75458525 0 5252.04655448 0 -43435.40158457 0 45
0.00650000 0.00659388 66780.51267870 0 16982.62108359 0 10868.00720877 0 -2742.31590481 0 -14556.67471583 0 40
0.00750000 0.00754703 72874.72025888 0 -1837.36372506 0 23348.87568457 0 3243.19466263 0 -5685.14053976 0 57
0.00850000 0.00846663 70749.49823319 0 4546.07512404 0 9034.76238854 0 20528.64383001 0 -12000.62853144 0 75
0.00950000 0.00948925 72525.60985735 0 -5261.90092357 0 -8157.77890128 0 17429.50011327 0 -13085.38419392 0 112
0.01050000 0.01054430 72131.21364731 0 -4790.68492393 0 -23421.62085863 0 19776.61152833 0 725.41221835 0 105
0.01150000 0.01145670 74222.00074282 0 -2760.30843264 0 -37504.73224196 0 -5407.18089751 0 -19574.65232364 0 144
0.01250000 0.01249090 63256.30241217 0 7538.89130555 0 -28926.78075846 0 -11023.48479387 0 5009.88373837 0 169
0.01350000 0.01339930 55702.87314414 0 5832.21423032 0 -30240.51209819 0 -21831.08139843 0 699.73881880 0 180
0.01450000 0.01448870 59098.42299628 0 -5940.12510801 0 -12275.66507994 0 -14283.85263229 0 12658.54607217 0 267
0.01550000 0.01550050 73690.63987477 0 -9914.74647583 0 -3005.93688642 0 -12084.55675357 0 18163.15235576 0 238
0.01650000 0.01653350 83607.23542885 0 -10632.62065545 0 16795.38807091 0 -13627.48521705 0 6029.12445490 0 315
0.01750000 0.01747870 87524.84539618 0 452.43844397 0 30119.04869493 0 -9444.56020241 0 20258.25765794 0 297
0.01850000 0.01844180 96472.50180538 0 5711.54803445 0 30043.86760941 0 -10734.61891168 0 -5395.32243763 0 388
0.01950000 0.01947590 84223.29958176 0 7003.98729356 0 35397.66882897 0 -1018.05929947 0 17658.14362078 0 399
0.02050000 0.02045430 84387.94505181 0 6985.19755834 0 34614.08040156 0 11328.31696845 0 -2700.96077161 0 462
0.02150000 0.02154770 74160.10644708 0 211.89440175 0 12223.73587654 0 8516.48900843 0 1183.69795706 0 571
0.02250000 0.02255340 76461.71060713 0 -3149.44528839 0 21706.40702097 0 10683.91873633 0 -19902.06096852 0 510
0.02350000 0.02348930 77106.67352782 0 -3538.28319137 0 12122.64555094 0 -7499.82814359 0 -17116.59621390 0 555
0.02450000 0.02439640 80127.86807784 0 7833.57015827 0 14215.09349517 0 -17993.41361629 0 -15436.92453891 0 592
0.02550000 0.02547300 71132.15777893 0 6632.74331471 0 23154.00276776 0 -16550.68969242 0 -4236.49292211 0 837
0.02650000 0.02652900 71482.70758268 0 3319.37225738 0 32670.44450289 0 -2749.20289085 0 -14981.63054237 0 723
0.02750000 0.02749970 70092.02358546 0 -399.31232226 0 36155.23729306 0 5695.71460996 0 -10093.95205302 0 826
0.02850000 0.02848090 69954.50531121 0 -364.95379111 0 33342.86678913 0 9296.03603729 0 -21945.23706731 0 831
0.02950000 0.02946900 68440.91850851 0 765.14525597 0 31109.91104295 0 10010.36707297 0 -14225.50148050 0 996
0.03050000 0.03053250 68525.06817713 0 2307.17353944 0 27527.23890138 0 5792.35386098 0 -4661.82520769 0 1041
0.03150000 0.03150510 64317.47402279 0 3440.40383997 0 23767.63100921 0 3578.42036884 0 -5276.67140487 0 1036
0.03250000 0.03246190 63900.04737713 0 4402.12382907 0 23924.74729839 0 2493.02251152 0 -5292.56019099 0 1059
0.03350000 0.03345080 59006.19053054 0 6219.54629713 0 32284.90615271 0 -3685.31259264 0 6237.00735337 0 1302
0.03450000 0.03451200 55082.49078455 0 5422.49392273 0 34659.47693331 0 574.06350317 0 2380.57198066 0 1339
0.03550000 0.03553350 53134.97957220 0 2288.94849278 0 40398.92722631 0 -1389.01207617 0 8866.45197898 0 1365
0.03650000 0.03647120 50050.89421722 0 -15.05946899 0 35690.97471342 0 6036.87508227 0 2768.65696555 0 1308
0.03750000 0.03744890 51590.16881350 0 1831.76112870 0 39511.03749910 0 3997.48571858 0 3049.75007572 0 1579
0.03850000 0.03847530 50227.16562833 0 1290.33551739 0 36199.08369934 0 5891.78333785 0 2977.90175997 0 1662
0.03950000 0.03950240 48273.45391408 0 1273.85989806 0 32992.87060161 0 5816.01541911 0 2547.05545663 0 1683
0.04050000 0.04050350 46435.89088718 0 2191.03592441 0 28019.62518607 0 5897.36378956 0 6098.43720826 0 1822
0.04150000 0.04152450 43731.47555022 0 516.94027220 0 24119.73093844 0 4213.63964368 0 -578.95082735 0 1887
0.04250000 0.04250150 41869.44268547 0 841.52104533 0 21545.30469486 0 5397.14937123 0 2543.27979387 0 1920
0.04350000 0.04349210 42490.71083104 0 836.36577090 0 20126.38626935 0 3921.97246331 0 -4760.59034508 0 2005
0.04450000 0.04448520 41850.84117977 0 -492.21134195 0 18304.76739019 0 2066.49441485 0 -3562.32120855 0 2151
0.04550000 0.04548030 42534.77868382 0 283.05291166 0 16566.19094716 0 -4877.23728704 0 -8885.81747508 0 2274
0.04650000 0.04648670 41467.62801780 0 2106.91947277 0 18820.84844998 0 -4778.05140132 0 -6114.41457298 0 2311
0.04750000 0.04749250 41550.89190044 0 867.77131301 0 20080.43612135 0 -1659.30966965 0 -5645.10301321 0 2568
0.04850000 0.04851840 41694.05706034 0 478.38865165 0 18956.04153602 0 2087.11108367 0 -5617.95367276 0 2493
0.04950000 0.04949480 40691.90094101 0 -458.05211266 0 19157.11495473 0 4110.99919262 0 -5824.66290480 0 2644
0.05050000 0.05050630 40677.94981174 0 491.86920712 0 17076.07150506 0 6368.30298107 0 -2968.32419901 0 2829
0.05150000 0.05149060 41716.75532622 0 -263.58001401 0 14565.20040594 0 6169.99764357 0 -2363.26593697 0 2784
0.05250000 0.05249300 40307.80199305 0 804.21727579 0 15591.60491663 0 3084.04106569 0 -2140.87829298 0 3055
0.05350000 0.05348950 38104.40935414 0 2958.33696202 0 13188.91043098 0 1802.12051516 0 3249.17371803 0 3009
0.05450000 0.05448610 36894.09352821 0 2416.57918097 0 12758.08627229 0 906.76139763 0 3226.30936728 0 3336
0.05550000 0.05550870 33626.09685799 0 1122.03618015 0 12795.28928368 0 1646.87544888 0 5950.48880404 0 3349
0.05650000 0.05647670 34782.04756905 0 -683.86442670 0 12302.46010600 0 1627.56531439 0 4071.44884836 0 3324
0.05750000 0.05747970 34582.85644557 0 -773.25905559 0 12069.38766857 0 2341.01056408 0 3761.44589809 0 3639
0.05850000 0.05849280 35022.53846412 0 -402.73145616 0 10487.22995825 0 1021.67994969 0 1740.61375079 0 3846
0.05950000 0.05951020 34382.33664310 0 1140.79269839 0 10808.75919866 0 192.31963870 0 767.60995547 0 3787
0.06050000 0.06049470 34233.41387429 0 1250.10976132 0 10339.21512008 0 -1521.50351495 0 3616.36522599 0 3930
0.06150000 0.06148310 32690.59613406 0 1508.12814657 0 11614.64728826 0 -175.78976498 0 828.30511843 0 4083
0.06250000 0.06249100 31525.89828639 0 817.58157184 0 11470.26417263 0 148.69910785 0 1758.11909633 0 4303
0.06350000 0.06350600 31622.89185180 0 294.62681280 0 12714.46131250 0 1460.60572845 0 978.89980829 0 4470
0.06450000 0.06451750 31544.72123858 0 -67.31298078 0 11531.82629862 0 2351.60677893 0 1849.16682331 0 4479
0.06550000 0.06550280 31129.95195087 0 -721.80928386 0 10230.55132431 0 1468.50029605 0 1893.95437720 0 4636
0.06650000 0.06648880 30970.51047348 0 1299.50340234 0 10403.20208521 0 1254.20652151 0 2319.23130116 0 4653
0.06750000 0.06749660 30214.60285811 0 1019.37247720 0 9592.36466641 0 -525.39509943 0 2028.23953260 0 5220
0.06850000 0.06852730 29502.54164903 0 484.36770705 0 9722.59735093 0 796.97929705 0 2264.91047560 0 5029
0.06950000 0.06949320 28548.32869616 0 228.61250500 0 8113.57818061 0 350.90190369 0 1871.07895413 0 5040
0.07050000 0.07048030 28682.74671946 0 283.21788930 0 8615.07698862 0 2583.12909089 0 1350.66861533 0 5475
0.07150000 0.07148790 27771.82655663 0 345.55397080 0 6453.69275007 0 761.15036117 0 2246.60792268 0 5509
0.07250000 0.07249820 27488.04287152 0 1100.65330646 0 8141.64652402 0 2126.17424563 0 1376.57785540 0 5916
0.07350000 0.07351270 26514.12118048 0 678.61171581 0 6631.38141876 0 -869.30150830 0 1675.05451554 0 5721
0.07450000 0.07449140 26855.70240113 0 686.12428820 0 7759.07555689 0 460.21121599 0 3710.23639581 0 6028
0.07550000 0.07549160 26249.60334056 0 314.14842868 0 8159.58369023 0 -1165.12966834 0 3759.97327889 0 6183
0.07650000 0.07648840 26314.81933374 0 -23.34455748 0 8163.01611092 0 -1276.99336598 0 2560.56369291 0 6330
0.07750000 0.07749960 26338.18193911 0 591.08388089 0 10433.65097846 0 -1011.22213890 0 2813.00162645 0 6583
0.07850000 0.07848650 26037.34687378 0 208.06669906 0 10760.93782777 0 -440.76267745 0 1820.78845480 0 6549
0.07950000 0.07947320 25748.46991927 0 551.37630962 0 11530.27617315 0 -702.44268052 0 1804.01388270 0 6828
0.08050000 0.08048110 25516.06182132 0 540.73580547 0 11410.47361861 0 584.13488983 0 833.47810858 0 7147
0.08150000 0.08149960 25174.81277041 0 331.78332042 0 9414.52098517 0 865.10066827 0 -409.97386383 0 7386
0.08250000 0.08250610 24665.59655200 0 391.97469260 0 9829.64458728 0 566.85652695 0 -891.24464163 0 7227
0.08350000 0.08350160 24285.26219448 0 237.58662426 0 9316.36482566 0 318.13778732 0 -1014.17955686 0 7798
0.08450000 0.08449610 23299.38239263 0 788.08600576 0 9320.83804488 0 122.73339892 0 -2266.26129923 0 7371
0.08550000 0.08548940 23205.48907817 0 934.15322200 0 8798.02501160 0 1422.67194362 0 -1129.84216914 0 8256
0.08650000 0.08650700 22001.37375414 0 337.14011117 0 8641.39590471 0 1339.59629051 0 -498.02209802 0 8037
0.08750000 0.08749060 22096.48502433 0 353.48618430 0 7415.94421076 0 2225.27155275 0 -7.18100055 0 8155
0.08850000 0.08849210 21868.28440982 0 81.53826081 0 6973.42767706 0 1617.29019696 0 543.86927339 0 8718
0.08950000 0.08949900 21800.63250518 0 -90.37829423 0 6160.64152909 0 689.02745177 0 1249.70008531 0 8571
0.09050000 0.09049190 21692.01299871 0 374.79598065 0 6229.88784851 0 260.24392254 0 1451.42677118 0 8932
0.09150000 0.09150830 21082.48151744 0 696.15138556 0 6094.70583480 0 261.80290587 0 2209.65957476 0 9285
0.09250000 0.09250820 20589.20944677 0 711.75229122 0 5731.45607447 0 151.09848064 0 2168.92449175 0 9204
0.09350000 0.09350330 20284.72051426 0 292.14550480 0 6186.84972194 0 465.64883471 0 615.83717025 0 9349
0.09450000 0.09448040 19598.23637550 0 509.10992409 0 5889.10383524 0 -194.85187939 0 622.63336322 0 9564
0.09550000 0.09549270 18970.43555828 0 1110.29951584 0 5869.94871331 0 -279.05580240 0 -352.20733078 0 10155
0.09650000 0.09649430 18070.58772027 0 1085.37239098 0 6550.66417083 0 -800.21352313 0 212.68828744 0 9913
0.09750000 0.09749140 17478.99340521 0 307.42863475 0 6389.48433845 0 -173.53211795 0 -435.72255519 0 10476
0.09850000 0.09850240 17293.64268775 0 80.63630923 0 6864.05525250 0 502.08453399 0 36.90383717 0 10575
0.09950000 0.09950330 17293.08907151 0 154.64826797 0 6770.52732476 0 277.50346246 0 34.73576525 0 10882
0.10050000 0.10051200 17000.44752655 0 159.75482418 0 7284.00638822 0 221.14422191 0 0.80783018 0 10875
0.10150000 0.10150300 17031.67148254 0 429.33714547 0 6613.28924001 0 301.87143493 0 353.54486762 0 11118
0.10250000 0.10250800 16565.96950067 0 325.47209528 0 6372.12293313 0 333.75419424 0 291.95173912 0 11575
0.10350000 0.10349800 16124.95880314 0 400.21693120 0 6162.86706638 0 323.33402935 0 45.67046107 0 11364
0.10450000 0.10450100 16105.02861847 0 211.60541407 0 5928.06734628 0 169.62912345 0 -77.54325530 0 12093
0.10550000 0.10551000 15555.17696797 0 173.06708031 0 5485.42901700 0 605.49340441 0 -627.93147065 0 12067
0.10650000 0.10649700 15733.33067430 0 -39.12616349 0 4611.73401021 0 962.39429368 0 -120.51671949 0 12054
0.10750000 0.10749900 15642.64833404 0 -140.39486424 0 4647.44225775 0 415.06824048 0 -159.17684883 0 12807
0.10850000 0.10850100 15732.33416507 0 -66.80287877 0 4654.31817147 0 622.12957245 0 235.22046845 0 12736
0.10950000 0.10950300 15954.11283119 0 162.73438679 0 4539.77497122 0 235.16842852 0 24.03923514 0 12933
0.11050000 0.11050200 15676.19747824 0 230.07405187 0 5192.85390600 0 -97.51418612 0 858.06199138 0 13428
0.11150000 0.11150900 15526.83181644 0 317.66610628 0 5077.73494486 0 -413.94439951 0 910.53041700 0 13453
0.11250000 0.11250000 15304.05664108 0 392.86712198 0 5857.83558995 0 -115.72793900 0 1670.19376494 0 13668
0.11350000 0.11349100 15068.21612245 0 160.65721865 0 5295.70473124 0 306.34465415 0 2257.63595820 0 13791
0.11450000 0.11448600 15345.79930565 0 -55.06931472 0 5938.20959581 0 415.42476934 0 1551.15520082 0 14205
0.11550000 0.11549300 15066.11238073 0 -49.68661473 0 5484.36607382 0 194.53188920 0 1391.55871088 0 14776
0.11650000 0.11649800 15250.68803546 0 74.15501318 0 5953.96551403 0 -137.22485764 0 856.89829004 0 14553
0.11750000 0.11747300 14831.37909458 0 444.70221062 0 5881.84039016 0 -154.29173912 0 1586.42055537 0 14568
0.11850000 0.11849100 14503.97044969 0 652.72019145 0 5948.97189554 0 -331.66595378 0 1191.64788628 0 16015
0.11950000 0.11950300 14347.40777675 0 71.36146563 0 5626.94440051 0 761.10275017 0 973.44336662 0 15270
0.12050000 0.12050700 14204.35334010 0 -2.30273354 0 5199.06548022 0 439.14501079 0 828.45016588 0 15999
0.12150000 0.12150000 14043.47246048 0 200.60838106 0 4768.13059828 0 608.86824901 0 908.31263034 0 15670
0.12250000 0.12250700 13799.10625173 0 192.63298550 0 4532.71082798 0 747.64766105 0 462.85417993 0 16887
0.12350000 0.12352200 13504.02879532 0 185.38282721 0 4100.35868847 0 312.50861738 0 453.07842435 0 16407
0.12450000 0.12449800 13589.61786617 0 -49.38876919 0 3928.39441171 0 406.16830579 0 187.07578567 0 16306
0.12550000 0.12549900 13275.05311807 0 245.69710219 0 3734.80588458 0 72.24049749 0 674.76076124 0 17523
0.12650000 0.12650100 13310.37383424 0 409.78895600 0 4040.97781046 0 -227.92269916 0 451.49618913 0 17154
0.12750000 0.12750600 12969.56767632 0 36.16808119 0 3836.54947734 0 154.57629786 0 1444.39584492 0 18007
0.12850000 0.12850300 13099.33532320 0 -0.24362547 0 3738.94693406 0 247.30591099 0 1192.27900880 0 17496
0.12950000 0.12949900 13086.26997991 0 194.38019835 0 4092.63020574 0 81.61454913 0 1123.26520820 0 18405
0.13050000 0.13049000 12784.21695886 0 206.91739175 0 3986.96701000 0 416.32716381 0 796.04257837 0 18100
0.13150000 0.13148800 12669.95056673 0 260.68681553 0 4026.96024724 0 -81.72062200 0 901.13112046 0 19059
0.13250000 0.13249300 12447.72900762 0 237.36960669 0 3941.68120149 0 -90.92438129 0 1103.73362722 0 18957
0.13350000 0.13349100 12472.75246171 0 63.28342961 0 4101.78701837 0 -48.92649963 0 659.43666369 0 19468
0.13450000 0.13450700 12162.50592029 0 164.86248762 0 4023.68283910 0 -205.19675247 0 431.01238822 0 19953
0.13550000 0.13551000 12418.27662360 0 -63.67638642 0 4086.29683595 0 -5.91335223 0 401.66962021 0 19956
0.13650000 0.13649900 12213.32789121 0 12.16549545 0 3923.56687809 0 -122.20414179 0 44.20614612 0 19723
0.13750000 0.13749600 12175.01764734 0 217.19361641 0 4087.26012820 0 412.34223411 0 231.77918989 0 20946
0.13850000 0.13851100 12221.18924183 0 -14.59919244 0 3896.74970738 0 252.01164903 0 -239.48331350 0 20955
0.13950000 0.13949800 12149.99419325 0 28.64111478 0 3624.76912053 0 211.21788271 0 65.44186861 0 20506
0.14050000 0.14048300 11825.57507606 0 334.50489786 0 3264.61961115 0 -41.60614280 0 -22.79370932 0 21447
0.14150000 0.14148400 11808.08080285 0 354.38082815 0 3199.24860542 0 254.83287740 0 174.91062239 0 21771
0.14250000 0.14249400 11491.85520602 0 45.74276335 0 2851.40044892 0 552.06168653 0 248.84274967 0 22470
0.14350000 0.14350900 11544.55947216 0 -23.60320699 0 2662.80554029 0 492.41064380 0 -451.25924138 0 22519
0.14450000 0.14449900 11216.48648779 0 76.17825909 0 2407.51094694 0 357.25409644 0 -614.56606736 0 22218
0.14550000 0.14550500 11192.79171267 0 317.33615100 0 2560.64119918 0 101.18754061 0 -786.80825947 0 23559
0.14650000 0.14650700 10923.35776054 0 172.36841661 0 2442.55485499 0 -233.06468681 0 -252.85203849 0 23044
0.14750000 0.14750500 10871.61678666 0 215.34343093 0 2620.73070598 0 -221.04567821 0 -250.38844622 0 23649
0.14850000 0.14849900 10721.35426654 0 270.56775820 0 2923.72487464 0 -311.99929044 0 -1.57644439 0 23640
0.14950000 0.14949500 10484.57260030 0 323.01625363 0 3204.64082761 0 -36.84448951 0 111.07202642 0 24457
0.15050000 0.15050000 10382.70721197 0 254.45088219 0 3294.27129702 0 111.78508414 0 521.97153660 0 24591
0.15150000 0.15149900 10063.87961881 0 226.29396018 0 3387.98745428 0 374.95985105 0 761.55339379 0 25020
0.15250000 0.15250500 10048.54444894 0 164.83591404 0 3285.13662904 0 529.92810922 0 1267.37151572 0 25297
0.15350000 0.15350100 9883.99862981 0 55.85699991 0 3084.49503100 0 541.07683308 0 1331.12596202 0 25452
0.15450000 0.15450400 9846.10913428 0 33.66241408 0 2841.73430936 0 341.28891128 0 1063.59644975 0 26061
0.15550000 0.15549900 9717.43764756 0 175.58381974 0 2760.87312120 0 10.37231030 0 1066.77752867 0 26128
0.15650000 0.15649500 9643.09805873 0 172.23997765 0 2577.27183106 0 -97.98907814 0 1112.82400590 0 26331
0.15750000 0.15749700 9514.06118529 0 145.10724568 0 2774.60280398 0 -164.33655219 0 1060.66006921 0 27345
0.15850000 0.15849900 9361.80564671 0 34.13808116 0 2576.36390043 0 -180.89189226 0 570.02764078 0 26980
0.15950000 0.15949700 9366.83248218 0 38.19276651 0 2731.07749512 0 148.62049434 0 374.21579083 0 27777
0.16050000 0.16050000 9341.05611000 0 161.29609180 0 2661.58758456 0 -163.78736488 0 269.76280018 0 28224
0.16150000 0.16150500 9200.85833315 0 255.77181054 0 2892.09124263 0 26.98281269 0 -7.34674218 0 28075
0.16250000 0.16249700 9022.41674637 0 309.33971802 0 2987.45717629 0 -359.32683564 0 172.96964385 0 28590
0.16350000 0.16349900 8778.19447785 0 274.76859823 0 3155.80080284 0 46.26814517 0 261.50838203 0 29163
0.16450000 0.16449100 8634.57535262 0 67.97311278 0 3053.27107502 0 190.03431086 0 420.38074192 0 28996
0.16550000 0.16550500 8583.38799499 0 -0.43117626 0 3255.75067897 0 377.75450584 0 510.07321635 0 30777
0.16650000 0.16650700 8602.07807928 0 31.62953525 0 2879.69023883 0 286.31481856 0 251.25873095 0 29211
0.16750000 0.16749900 8548.98628178 0 84.05776833 0 2958.01586460 0 135.51307622 0 503.20283880 0 30922
0.16850000 0.16850800 8527.21809118 0 49.49672436 0 2909.54122654 0 -367.47938841 0 348.16703946 0 30867
0.16950000 0.16949900 8508.53907921 0 45.18848277 0 2903.56217114 0 -71.75453316 0 186.24425408 0 30852
0.17050000 0.17049200 8511.07464160 0 -25.35761685 0 2954.67202251 0 -210.74620167 0 192.74592321 0 31257
0.17150000 0.17149500 8585.94570202 0 84.31686073 0 3022.30178250 0 59.11890680 0 -24.10932295 0 32608
0.17250000 0.17250900 8436.14821955 0 210.38745834 0 2970.17327725 0 105.28762249 0 109.31462702 0 32361
0.17350000 0.17350400 8406.65154623 0 72.44500333 0 2880.76425434 0 337.00613604 0 197.76057912 0 32508
0.17450000 0.17449800 8271.39202625 0 -4.09984936 0 2708.25743367 0 344.46666850 0 23.71315517 0 32791
0.17550000 0.17549800 8374.99576958 0 32.65616120 0 2638.19176221 0 281.51275128 0 21.46824131 0 33633
0.17650000 0.17650100 8289.86066405 0 109.83779437 0 2731.71968996 0 -53.85080537 0 198.18464916 0 33984
0.17750000 0.17750300 8091.89856861 0 215.38439853 0 2601.69737961 0 20.23555939 0 499.05846762 0 34069
0.17850000 0.17849800 8081.94454860 0 48.03694906 0 2532.62821739 0 18.83225294 0 535.85512469 0 34536
