### header ###
fiducial parameters:
Omega_m = 0.31
Omega_nu = 0
Omega_de = 0.69
Omega_k = 0
H_0 = 100
w_de = -1
zeff = 0
beta = 0
fgrowth = 0
b_1 = 2
gamma = 0.55
Lx = 3500 Ly = 3500 Lz = 3500
nx = 700 ny = 700 nz = 700
xoffset = -685.467585 yoffset = -31.7331281 zoffset = 572.489161
bins = 400 dk = 0.001
kx_ny = 0.628318531 ky_ny = 0.628318531 kz_ny = 0.628318531
############################
A(data) = 8.03388106 (not used)
A(ran) = 8.02908787 (used)
Ngal = 477406
weighted Ngal = 0
Nran = 23820508
weighted Nran = 0
SN(data) = 3494.44252
SN(ran) = 69.9362672
SN(data+ran) = 3564.37878
############################
13 columns: k_central k_mean P_0(k) sigma^{lin}_{P_0(k)} P^img_1(k) sigma^{lin}_{P_1(k)} P_2(k) sigma^{lin}_{P_2(k)} P^img_3(k) sigma^{lin}_{P_3(k)} P_4(k) sigma^{lin}_{P_4(k)} N_modes
### header ###
0.00050000 0 0 0 0 0 0 0 0 0 0 0 0
0.00150000 0.00179520 193639.45982338 0 -145773.79963237 0 19007.30639993 0 216071.98990596 0 -309566.70067460 0 3
0.00250000 0.00253879 302252.32289941 0 -83329.43079915 0 101394.48235701 0 -128944.97314051 0 154979.33048659 0 6
0.00350000 0.00331552 281456.28242503 0 52764.72103027 0 74231.85511191 0 -190327.72747012 0 216932.30954436 0 7
0.00450000 0.00420575 212304.07777017 0 143270.34699087 0 83185.04768351 0 -41571.81859434 0 194716.79702823 0 24
0.00550000 0.00557378 103630.53835413 0 50454.92334985 0 109799.81629659 0 87739.75922091 0 9793.89205044 0 45
0.00650000 0.00659388 78549.39745169 0 4215.42228798 0 162549.47896510 0 141307.22380053 0 -50951.62784121 0 40
0.00750000 0.00754703 69268.57478870 0 14379.18534898 0 75849.74321441 0 115748.97642165 0 -56329.89889862 0 57
0.00850000 0.00846663 56288.48840380 0 12353.39280016 0 53624.92994543 0 45549.32983895 0 -37599.73278890 0 75
0.00950000 0.00948925 49537.69196187 0 -11081.84701799 0 32965.96485230 0 104.07586726 0 -25044.15933755 0 112
0.01050000 0.01054430 67530.88413166 0 -10599.23759612 0 21188.77583570 0 -9032.31540476 0 -19895.41757363 0 105
0.01150000 0.01145670 76767.86038837 0 -2355.16099520 0 32840.95830510 0 -4645.73711973 0 -21788.67439437 0 144
0.01250000 0.01249090 78897.51134399 0 -4296.60457355 0 36681.28344520 0 -4851.73772298 0 -6910.23791932 0 169
0.01350000 0.01339930 92758.95478445 0 -14314.74441854 0 26741.43600900 0 11544.33802567 0 -4773.97678578 0 180
0.01450000 0.01448870 91001.00177299 0 3844.26688773 0 39101.91509705 0 21139.94688325 0 -16890.38861785 0 267
0.01550000 0.01550050 87536.91423023 0 9697.41888429 0 26021.73489579 0 20654.86833294 0 9513.66258160 0 238
0.01650000 0.01653350 82408.54554398 0 3839.59436666 0 37666.38818431 0 -4261.38350830 0 -4743.50574788 0 315
0.01750000 0.01747870 78557.36952556 0 8407.71448941 0 34707.53082303 0 8297.14625378 0 11860.56362249 0 297
0.01850000 0.01844180 77626.74062455 0 4206.46477720 0 40683.48597414 0 4132.86703413 0 8690.63453318 0 388
0.01950000 0.01947590 77259.69305681 0 -1194.98065605 0 45597.82662165 0 1367.49854905 0 15254.34190265 0 399
0.02050000 0.02045430 72908.71229608 0 2473.34699031 0 39053.30759110 0 10725.36244813 0 13805.97109312 0 462
0.02150000 0.02154770 81688.73370752 0 954.80200055 0 45965.87069862 0 11641.99593057 0 8561.84125089 0 571
0.02250000 0.02255340 73700.05135087 0 2874.53053547 0 37336.43290472 0 1869.41810541 0 8840.56488355 0 510
0.02350000 0.02348930 78918.99165414 0 -2208.97309062 0 39159.93407910 0 15998.40213046 0 4710.99740221 0 555
0.02450000 0.02439640 73490.45224205 0 -966.51762744 0 27994.82317847 0 -1735.17723930 0 609.65327684 0 592
0.02550000 0.02547300 72245.03714645 0 5257.05124529 0 22477.92661433 0 1033.54726743 0 -12112.12684237 0 837
0.02650000 0.02652900 70517.64375149 0 8183.10130814 0 23532.67627656 0 1446.30028479 0 -7936.79744255 0 723
0.02750000 0.02749970 64050.74171791 0 2473.23626707 0 12797.72519514 0 1193.08728851 0 -11757.36955518 0 826
0.02850000 0.02848090 61854.98898313 0 480.82788481 0 11520.75397380 0 6534.23284080 0 -14236.35235882 0 831
0.02950000 0.02946900 62208.74976108 0 -2694.88206529 0 11753.49424149 0 3656.57990973 0 -19675.85337248 0 996
0.03050000 0.03053250 63006.73221076 0 951.75821846 0 15734.99152303 0 4021.47944646 0 -9239.99900138 0 1041
0.03150000 0.03150510 59155.66691559 0 2288.66061234 0 16330.23970528 0 -1804.63393289 0 -9451.38075450 0 1036
0.03250000 0.03246190 59027.44939419 0 6440.41703261 0 22164.24765222 0 2505.12456254 0 1584.37217527 0 1059
0.03350000 0.03345080 50938.89466767 0 5113.73107284 0 13829.99803798 0 1056.66295995 0 5238.67118610 0 1302
0.03450000 0.03451200 47431.51433487 0 4651.59437956 0 20230.24467615 0 4818.43216993 0 5240.27667319 0 1339
0.03550000 0.03553350 46708.38080096 0 -123.73876601 0 14869.02499896 0 1298.87227983 0 -3067.49901241 0 1365
0.03650000 0.03647120 44768.28804624 0 226.25742151 0 12277.76882165 0 4357.75702352 0 -3522.49405618 0 1308
0.03750000 0.03744890 46140.37053777 0 695.41175426 0 11197.88498209 0 -5678.31998767 0 -4873.59449218 0 1579
0.03850000 0.03847530 45831.78484507 0 675.31880641 0 14350.28658121 0 -1474.96653374 0 1541.37833800 0 1662
0.03950000 0.03950240 45217.71371063 0 663.34630158 0 15678.41194320 0 1454.19485238 0 -2187.62564837 0 1683
0.04050000 0.04050350 46129.40893620 0 -2099.19099004 0 15535.24678330 0 4375.69418973 0 4381.99434255 0 1822
0.04150000 0.04152450 48884.86769056 0 -1908.89094338 0 17128.22215496 0 5647.84894977 0 2568.43611586 0 1887
0.04250000 0.04250150 50316.07639662 0 -1445.46986042 0 16088.42013124 0 4285.13364504 0 3321.65315629 0 1920
0.04350000 0.04349210 48460.90837326 0 2073.08244812 0 14491.56944589 0 429.16220274 0 840.41602731 0 2005
0.04450000 0.04448520 47902.75247915 0 4775.00651199 0 14173.90444685 0 -2617.26506831 0 6837.13843086 0 2151
0.04550000 0.04548030 43848.17785381 0 3195.00790502 0 12897.92973474 0 -986.15107381 0 3205.13908223 0 2274
0.04650000 0.04648670 40824.87956208 0 1894.65193367 0 12364.35440173 0 1947.97624999 0 2271.71995537 0 2311
0.04750000 0.04749250 39772.45508807 0 1149.50661802 0 11553.08516227 0 2054.82418449 0 -316.93422561 0 2568
0.04850000 0.04851840 39329.56209532 0 -343.61077779 0 12117.10938853 0 2652.98438817 0 2160.37665699 0 2493
0.04950000 0.04949480 39177.42835231 0 -16.35714545 0 13507.68266251 0 1025.40910869 0 1174.25326399 0 2644
0.05050000 0.05050630 39754.85009161 0 316.02961667 0 13052.49938921 0 -276.21132216 0 3829.70678060 0 2829
0.05150000 0.05149060 39589.20811232 0 1227.13468733 0 14954.50334656 0 -337.65940320 0 4812.28702965 0 2784
0.05250000 0.05249300 38508.10631703 0 677.51666289 0 14796.83344114 0 -1096.41039159 0 3606.72123108 0 3055
0.05350000 0.05348950 38478.43248651 0 1269.76313788 0 16848.64595329 0 701.54028604 0 4459.77742440 0 3009
0.05450000 0.05448610 36354.98203279 0 1023.11935191 0 13200.64709529 0 1492.92584460 0 361.84578954 0 3336
0.05550000 0.05550870 35163.04626606 0 797.40668879 0 11495.73051971 0 3428.27964430 0 619.85199523 0 3349
0.05650000 0.05647670 35477.16812117 0 -864.89472302 0 9470.10405576 0 2071.52125032 0 -2428.83624454 0 3324
0.05750000 0.05747970 34345.13363171 0 -379.15183323 0 7675.98883145 0 1995.88619948 0 -3603.33309968 0 3639
0.05850000 0.05849280 35531.75468253 0 349.81238693 0 6846.98172763 0 119.25668892 0 -3739.60020122 0 3846
0.05950000 0.05951020 34561.26541217 0 1119.10201407 0 7365.19974612 0 -495.37138346 0 -4101.43270397 0 3787
0.06050000 0.06049470 32716.61609738 0 2149.17146427 0 6507.42674241 0 -2334.03499945 0 -731.84745354 0 3930
0.06150000 0.06148310 33061.07612249 0 757.46327701 0 8239.61445402 0 -368.09500967 0 -3439.88344071 0 4083
0.06250000 0.06249100 31637.95021355 0 476.57721931 0 8862.39950809 0 1396.70734192 0 -258.84548791 0 4303
0.06350000 0.06350600 31899.47852577 0 907.24636546 0 9415.58392836 0 1754.06662545 0 -20.51491415 0 4470
0.06450000 0.06451750 31137.03823876 0 383.84871342 0 9783.21832931 0 1859.36443447 0 805.49723653 0 4479
0.06550000 0.06550280 29757.64801285 0 1314.65034269 0 8167.72184897 0 813.10281645 0 2873.74440041 0 4636
0.06650000 0.06648880 30141.30406782 0 336.38940755 0 9809.80298120 0 980.36135516 0 2889.38959537 0 4653
0.06750000 0.06749660 30223.57144122 0 -989.52370395 0 9663.08360503 0 -367.49378243 0 1608.62056663 0 5220
0.06850000 0.06852730 31167.26568551 0 -448.17227722 0 10268.24151799 0 -852.20805325 0 993.96038450 0 5029
0.06950000 0.06949320 30546.99404917 0 -55.57543069 0 10502.95265950 0 -170.29014125 0 1166.23690082 0 5040
0.07050000 0.07048030 31700.73029527 0 415.83333812 0 10926.11476942 0 193.06923510 0 14.73383191 0 5475
0.07150000 0.07148790 30692.59512054 0 594.62259590 0 9334.00303909 0 844.55375510 0 -141.42791214 0 5509
0.07250000 0.07249820 30214.71358136 0 1016.66861548 0 8265.82264686 0 1712.49004575 0 578.96300691 0 5916
0.07350000 0.07351270 28822.03656567 0 1118.88056757 0 6957.77140976 0 2285.87038648 0 1528.61194749 0 5721
0.07450000 0.07449140 27647.92724190 0 52.98561391 0 6788.44234631 0 2305.14730399 0 1826.10317072 0 6028
0.07550000 0.07549160 27154.54444799 0 713.54932954 0 5930.78006586 0 1216.66026805 0 2301.94740212 0 6183
0.07650000 0.07648840 27327.16199191 0 1027.59146391 0 5499.35800163 0 -54.54061121 0 3278.93612714 0 6330
0.07750000 0.07749960 26202.54596008 0 739.14743729 0 5562.27095125 0 -744.38575416 0 2257.74668145 0 6583
0.07850000 0.07848650 25853.76772829 0 859.54900460 0 7545.21360302 0 -2502.50042156 0 2147.32238603 0 6549
0.07950000 0.07947320 24781.63451610 0 1467.83595656 0 8199.58799980 0 -1515.51338723 0 2195.05517832 0 6828
0.08050000 0.08048110 24310.94998806 0 291.03495063 0 9500.16541765 0 -1118.81413362 0 1408.90904387 0 7147
0.08150000 0.08149960 24189.81875454 0 -250.57778297 0 9618.76108878 0 81.59760847 0 239.67375749 0 7386
0.08250000 0.08250610 24094.81820760 0 366.33340279 0 9830.36428839 0 -30.40969722 0 -138.47270865 0 7227
0.08350000 0.08350160 23825.31782151 0 853.50683695 0 9711.13749474 0 320.30685575 0 -400.21139503 0 7798
0.08450000 0.08449610 23373.78841541 0 -71.29458878 0 9067.23751724 0 563.63558766 0 -901.89068194 0 7371
0.08550000 0.08548940 23030.54634603 0 132.87675568 0 8708.46097614 0 1416.59323730 0 -81.59971222 0 8256
0.08650000 0.08650700 23067.30646443 0 296.31091340 0 8595.50111834 0 1360.01365747 0 -1849.05610006 0 8037
0.08750000 0.08749060 22252.82625077 0 386.83159772 0 7503.58166170 0 790.32925877 0 -373.01001465 0 8155
0.08850000 0.08849210 21963.94929625 0 559.47792969 0 7776.97950612 0 561.25503782 0 -503.82510346 0 8718
0.08950000 0.08949900 21793.21404755 0 360.75959447 0 6505.92090624 0 1108.58330549 0 635.44736474 0 8571
0.09050000 0.09049190 21218.11749647 0 38.65105003 0 6344.20960226 0 899.28314945 0 -98.30098553 0 8932
0.09150000 0.09150830 20965.00415111 0 503.39881895 0 6024.29692128 0 779.96777720 0 -593.56408165 0 9285
0.09250000 0.09250820 20619.87978652 0 487.57757402 0 5257.80416338 0 371.26501626 0 -129.71892865 0 9204
0.09350000 0.09350330 20153.07057216 0 486.54452611 0 4780.28801093 0 -82.82840810 0 -268.49280453 0 9349
0.09450000 0.09448040 19729.00053161 0 190.22475485 0 4426.06219533 0 -41.97440832 0 359.50177837 0 9564
0.09550000 0.09549270 19146.04262991 0 848.39142288 0 4560.73488210 0 233.30827795 0 -2755.23730787 0 10155
0.09650000 0.09649430 18552.12312663 0 849.98140873 0 4094.61215188 0 -335.41725743 0 -1924.89045275 0 9913
0.09750000 0.09749140 17751.04042601 0 571.81249954 0 4557.71213742 0 -1062.13158118 0 -1921.85663575 0 10476
0.09850000 0.09850240 17705.64389425 0 478.48940981 0 4949.90495483 0 -682.80369799 0 -1385.93396987 0 10575
0.09950000 0.09950330 17404.25521269 0 107.40597967 0 5579.95345398 0 -601.64134260 0 -2255.21111906 0 10882
0.10050000 0.10051200 17514.53556788 0 237.23120263 0 6082.16089078 0 -356.50450005 0 -1175.26084555 0 10875
0.10150000 0.10150300 17283.34542567 0 268.66110386 0 6281.25236334 0 -577.57010844 0 -993.11445889 0 11118
0.10250000 0.10250800 17467.03529441 0 173.55979876 0 6784.01341638 0 890.60687572 0 -1083.33729767 0 11575
0.10350000 0.10349800 17031.89292903 0 -23.81192031 0 6214.50838934 0 1095.35852073 0 -763.40468650 0 11364
0.10450000 0.10450100 17158.44960171 0 -31.18221332 0 5479.90392692 0 1644.10736767 0 -1010.98519115 0 12093
0.10550000 0.10551000 16669.60646097 0 366.69546781 0 4977.92900894 0 880.98059652 0 -1446.12312759 0 12067
0.10650000 0.10649700 16290.26861268 0 624.02515445 0 4667.10670663 0 567.17873160 0 -1350.01534816 0 12054
0.10750000 0.10749900 15693.24885846 0 656.77709127 0 4326.11231919 0 -250.30540378 0 -904.13947111 0 12807
0.10850000 0.10850100 15264.30699499 0 564.60441608 0 4536.60828632 0 -575.94579839 0 -559.38270770 0 12736
0.10950000 0.10950300 15078.40266128 0 340.10638699 0 5213.66987666 0 -576.13624238 0 -155.84075736 0 12933
0.11050000 0.11050200 14744.12917501 0 226.55969597 0 5975.22437768 0 125.50923075 0 -137.25253845 0 13428
0.11150000 0.11150900 14519.36098119 0 180.66269514 0 5710.39651267 0 471.75854355 0 79.54380294 0 13453
0.11250000 0.11250000 14425.35694348 0 -24.66913970 0 5850.20675815 0 602.39204622 0 448.60520512 0 13668
0.11350000 0.11349100 14614.14008163 0 -28.37582188 0 4979.74487021 0 742.75258625 0 304.25198476 0 13791
0.11450000 0.11448600 14429.78587340 0 -160.11688920 0 5190.68373033 0 433.26339185 0 159.33961200 0 14205
0.11550000 0.11549300 14455.47366698 0 84.81245799 0 4669.00007418 0 183.06871132 0 -362.35400925 0 14776
0.11650000 0.11649800 14527.66522480 0 262.33880639 0 4736.76270207 0 -309.15591742 0 -1111.53961622 0 14553
0.11750000 0.11747300 14132.38322878 0 377.53305934 0 4618.02309071 0 -233.26620312 0 -1049.01862690 0 14568
0.11850000 0.11849100 13831.21599371 0 397.04138844 0 4818.57611015 0 -288.22922352 0 -1077.39920987 0 16015
0.11950000 0.11950300 13478.67317148 0 443.87621519 0 5056.77503398 0 254.26375990 0 -396.80554792 0 15270
0.12050000 0.12050700 13530.27020514 0 170.71531852 0 4785.37020802 0 815.01389972 0 -384.58723748 0 15999
0.12150000 0.12150000 13114.28296170 0 -203.58794367 0 4501.91869266 0 971.17132556 0 -64.25115080 0 15670
0.12250000 0.12250700 13392.64120764 0 -67.47352949 0 4409.23226161 0 632.81436590 0 -20.29833947 0 16887
0.12350000 0.12352200 13195.88599561 0 229.84928368 0 4409.05510441 0 -187.22636929 0 879.23338366 0 16407
0.12450000 0.12449800 13399.28460253 0 245.42029407 0 4796.32073727 0 -74.48220038 0 704.19653677 0 16306
0.12550000 0.12549900 13169.64458579 0 -14.79417608 0 4529.33376891 0 -362.71718150 0 1781.00559173 0 17523
0.12650000 0.12650100 13260.99126555 0 16.26048406 0 5064.25992555 0 -51.99906977 0 1362.59350916 0 17154
0.12750000 0.12750600 13729.12915888 0 -134.03713532 0 5239.19158536 0 83.05660872 0 984.68177631 0 18007
0.12850000 0.12850300 13203.30445324 0 240.37463565 0 5301.06373645 0 -25.58382445 0 602.30789655 0 17496
0.12950000 0.12949900 13085.71636367 0 519.06172964 0 4850.04365729 0 454.64515831 0 1188.08259769 0 18405
0.13050000 0.13049000 12750.88926115 0 240.51525418 0 4287.80207532 0 302.61881685 0 701.47274486 0 18100
0.13150000 0.13148800 12566.31360643 0 245.52769562 0 4411.03705055 0 536.35559377 0 509.13760490 0 19059
0.13250000 0.13249300 12389.71002557 0 130.16292887 0 4162.14226095 0 100.37903945 0 265.09913697 0 18957
0.13350000 0.13349100 12004.61456838 0 327.55479957 0 3778.71872481 0 219.45569237 0 692.36465047 0 19468
0.13450000 0.13450700 12057.65100426 0 91.16786171 0 4336.39850895 0 -403.15552620 0 664.44799790 0 19953
0.13550000 0.13551000 11961.76467133 0 117.05440352 0 4268.29263899 0 -125.83143540 0 600.43778089 0 19956
0.13650000 0.13649900 11847.49827920 0 201.50634661 0 4629.67117642 0 63.20979865 0 579.30182005 0 19723
0.13750000 0.13749600 11622.73008538 0 16.08985953 0 4217.78069317 0 301.24363411 0 947.77218152 0 20946
0.13850000 0.13851100 11764.01295007 0 64.31249148 0 4320.88618188 0 534.08465995 0 658.46562080 0 20955
0.13950000 0.13949800 11670.67325185 0 -15.73753816 0 3877.73852566 0 866.77258931 0 1061.98764096 0 20506
0.14050000 0.14048300 11539.46620275 0 6.83928646 0 3366.10854044 0 599.44348612 0 576.85483626 0 21447
0.14150000 0.14148400 11463.62077774 0 189.32678931 0 3144.65097174 0 0.36379673 0 661.40753751 0 21771
0.14250000 0.14249400 11262.87952878 0 466.27774276 0 3287.43967261 0 -85.13355541 0 612.85207148 0 22470
0.14350000 0.14350900 10768.15698355 0 440.42275708 0 3565.83113552 0 -502.10889311 0 620.07676342 0 22519
0.14450000 0.14449900 10495.54527419 0 348.49810197 0 3365.02345261 0 -113.09826186 0 956.70976212 0 22218
0.14550000 0.14550500 10347.41971277 0 -30.41999448 0 3704.09125553 0 271.61409289 0 960.90395876 0 23559
0.14650000 0.14650700 10386.10641569 0 -38.04838339 0 3167.43781622 0 446.48817661 0 621.54384646 0 23044
0.14750000 0.14750500 10534.98489520 0 -93.72412934 0 2977.35921606 0 788.44474908 0 289.70073548 0 23649
0.14850000 0.14849900 10414.01974655 0 -104.03678195 0 2430.93998626 0 400.38523053 0 319.61262098 0 23640
0.14950000 0.14949500 10404.16537747 0 78.26162773 0 2184.41467417 0 194.26061725 0 178.86676405 0 24457
0.15050000 0.15050000 10430.30713636 0 220.37137363 0 1898.79298315 0 194.94488692 0 146.96961071 0 24591
0.15150000 0.15149900 10051.73327849 0 188.96361705 0 1978.11511815 0 17.63334161 0 341.97096649 0 25020
0.15250000 0.15250500 10151.24026163 0 144.32664678 0 2053.69480736 0 -33.65100959 0 193.67267680 0 25297
0.15350000 0.15350100 9926.23954899 0 202.55932470 0 2159.31371381 0 -92.93544764 0 499.97968505 0 25452
0.15450000 0.15450400 9850.79272768 0 143.86382360 0 2155.48268942 0 -84.37266524 0 475.11788690 0 26061
0.15550000 0.15549900 9887.65249700 0 39.97430357 0 2724.81055927 0 -17.77085989 0 897.64665984 0 26128
0.15650000 0.15649500 9856.78285541 0 141.05588203 0 2590.07143855 0 -13.92754522 0 777.67359150 0 26331
0.15750000 0.15749700 9654.51362562 0 260.13762822 0 2730.61245748 0 165.37402903 0 1050.92195953 0 27345
0.15850000 0.15849900 9495.59254750 0 226.41354129 0 2685.96884381 0 2.15938015 0 1017.45032161 0 26980
0.15950000 0.15949700 9330.57061840 0 65.91465688 0 2780.16111104 0 156.63575028 0 975.11639490 0 27777
0.16050000 0.16050000 9269.91642304 0 167.34490284 0 2872.14998563 0 -84.53365685 0 318.03592193 0 28224
0.16150000 0.16150500 9098.32860533 0 298.89630125 0 2685.70310801 0 -293.30366998 0 624.22777800 0 28075
0.16250000 0.16249700 8805.35489063 0 294.23485250 0 2967.34983442 0 -182.77972364 0 535.96806240 0 28590
0.16350000 0.16349900 8771.10818996 0 24.44503584 0 2787.29168822 0 107.66606858 0 387.49593721 0 29163
0.16450000 0.16449100 8782.53482918 0 -118.66542678 0 2649.38588261 0 278.63948299 0 -70.46925769 0 28996
0.16550000 0.16550500 8793.29712890 0 -19.23473195 0 2549.38064484 0 339.20399252 0 -265.14342627 0 30777
0.16650000 0.16650700 8665.91003186 0 144.81936523 0 2407.07912627 0 244.76259798 0 43.07599392 0 29211
0.16750000 0.16749900 8686.89208739 0 158.03750660 0 2111.49234292 0 281.27912523 0 76.35729858 0 30922
0.16850000 0.16850800 8382.60245673 0 123.98567885 0 1970.12089963 0 224.08503138 0 143.51725983 0 30867
0.16950000 0.16949900 8283.69337912 0 212.86212294 0 1988.17986141 0 132.12051590 0 299.18418169 0 30852
0.17050000 0.17049200 8231.85275432 0 173.96283139 0 1797.68051291 0 201.44544882 0 248.82171225 0 31257
0.17150000 0.17149500 8097.15792290 0 64.18704204 0 2047.54966709 0 -67.61248717 0 406.62448557 0 32608
0.17250000 0.17250900 8153.23924811 0 34.07009708 0 2006.54884828 0 -64.23509593 0 485.89347341 0 32361
0.17350000 0.17350400 8043.76717263 0 -79.20986163 0 1973.34294615 0 162.48858118 0 561.30597052 0 32508
0.17450000 0.17449800 8194.06290971 0 26.18936989 0 1952.27231202 0 48.98994405 0 301.11076621 0 32791
0.17550000 0.17549800 8188.63747055 0 150.16619089 0 1948.81774668 0 -2.92467709 0 500.79350092 0 33633
0.17650000 0.17650100 8015.47738271 0 200.25960283 0 2001.01268588 0 -102.68928002 0 -0.25754670 0 33984
0.17750000 0.17750300 7884.82394985 0 250.23232644 0 2216.33618662 0 -350.27188841 0 403.86415499 0 34069
0.17850000 0.17849800 7728.26127692 0 173.60076637 0 2106.59837535 0 -216.79722718 0 175.23614874 0 34536
