### header ###
fiducial parameters:
Omega_m = 0.31
Omega_nu = 0
Omega_de = 0.69
Omega_k = 0
H_0 = 100
w_de = -1
zeff = 0
beta = 0
fgrowth = 0
b_1 = 2
gamma = 0.55
Lx = 3500 Ly = 3500 Lz = 3500
nx = 700 ny = 700 nz = 700
xoffset = -685.467585 yoffset = -31.7331281 zoffset = 572.489161
bins = 400 dk = 0.001
kx_ny = 0.628318531 ky_ny = 0.628318531 kz_ny = 0.628318531
############################
A(data) = 8.01736694 (not used)
A(ran) = 8.01745931 (used)
Ngal = 476990
weighted Ngal = 0
Nran = 23820508
weighted Nran = 0
SN(data) = 3486.29494
SN(ran) = 69.8349783
SN(data+ran) = 3556.12992
############################
13 columns: k_central k_mean P_0(k) sigma^{lin}_{P_0(k)} P^img_1(k) sigma^{lin}_{P_1(k)} P_2(k) sigma^{lin}_{P_2(k)} P^img_3(k) sigma^{lin}_{P_3(k)} P_4(k) sigma^{lin}_{P_4(k)} N_modes
### header ###
0.00050000 0 0 0 0 0 0 0 0 0 0 0 0
0.00150000 0.00179520 16059.29991696 0 -20023.52437178 0 12343.53843108 0 -68193.67349531 0 -8096.58216201 0 3
0.00250000 0.00253879 18086.31042151 0 -6117.85806600 0 -17782.26438199 0 21471.34156507 0 6979.71675755 0 6
0.00350000 0.00331552 22178.64167449 0 -8341.05909401 0 -16831.81601956 0 13500.37492813 0 -11080.07544602 0 7
0.00450000 0.00420575 27498.78302660 0 -20386.80734908 0 -36076.95595660 0 26816.39564802 0 12441.52850572 0 24
0.00550000 0.00557378 52591.43914685 0 -22193.14642000 0 -27468.55557984 0 5724.76839028 0 -8736.14178819 0 45
0.00650000 0.00659388 71861.93470772 0 -14566.08619192 0 -21033.65256499 0 -13145.50691769 0 40843.48106777 0 40
0.00750000 0.00754703 68931.86539096 0 4367.98785166 0 -26332.86722319 0 4554.40151230 0 23095.20872297 0 57
0.00850000 0.00846663 75623.42489511 0 -5486.17086277 0 -11447.56590675 0 -17894.20558591 0 39773.89449029 0 75
0.00950000 0.00948925 74093.56177492 0 -8770.99746671 0 12132.49992003 0 -17864.53175540 0 20537.94458286 0 112
0.01050000 0.01054430 95907.92396287 0 -1619.50466192 0 15236.40473644 0 -17808.83796156 0 6384.87825132 0 105
0.01150000 0.01145670 93439.57059105 0 3001.19793139 0 17565.13609230 0 -17435.92206167 0 4260.96275996 0 144
0.01250000 0.01249090 95955.75640609 0 972.69598469 0 18703.03891391 0 -16929.47392446 0 -14144.34133958 0 169
0.01350000 0.01339930 85833.21561039 0 3434.13690413 0 17364.39484334 0 743.36599305 0 -15738.42394372 0 180
0.01450000 0.01448870 88400.33411959 0 7541.29400003 0 12077.02757269 0 -10020.06642951 0 -51249.14120909 0 267
0.01550000 0.01550050 79666.37357939 0 -1670.53700701 0 5522.11162913 0 8284.67881603 0 -24672.46139339 0 238
0.01650000 0.01653350 75699.60248987 0 8269.96369635 0 12361.03270429 0 -7363.64962064 0 -29495.45536114 0 315
0.01750000 0.01747870 76610.52265270 0 8669.60818835 0 21982.44007870 0 -13386.99432198 0 -11263.32242177 0 297
0.01850000 0.01844180 76563.57599546 0 -3623.82797292 0 42279.67232000 0 -6308.27990823 0 -18841.22152765 0 388
0.01950000 0.01947590 75360.90007366 0 7000.59916216 0 63120.11281691 0 6985.91725945 0 22627.84589238 0 399
0.02050000 0.02045430 84761.96818418 0 1969.04688412 0 80382.31010217 0 25508.08974745 0 31430.12267671 0 462
0.02150000 0.02154770 84720.22551962 0 -4020.30578003 0 74878.25743482 0 32551.08484135 0 58922.70520140 0 571
0.02250000 0.02255340 97401.46985766 0 -1084.24079938 0 87489.52468001 0 32809.73434911 0 63776.25878566 0 510
0.02350000 0.02348930 86960.59972342 0 2094.66240919 0 69432.99881226 0 36583.95771004 0 70148.93533503 0 555
0.02450000 0.02439640 91386.65084643 0 5267.45923062 0 67827.17954381 0 31283.96798910 0 71949.40607379 0 592
0.02550000 0.02547300 79497.40990266 0 4374.11084728 0 43187.27078539 0 22421.90065075 0 57627.24319762 0 837
0.02650000 0.02652900 80042.38973024 0 4267.35149138 0 44124.54308128 0 13860.66837773 0 47291.00653292 0 723
0.02750000 0.02749970 71786.86434545 0 4600.56203447 0 29168.37888600 0 -76.99971487 0 35085.20782259 0 826
0.02850000 0.02848090 66827.23788944 0 4989.05669538 0 31221.07718413 0 2839.94059273 0 33975.09653627 0 831
0.02950000 0.02946900 65670.51211563 0 2743.20169079 0 24069.35186052 0 -2305.25802724 0 7037.92396913 0 996
0.03050000 0.03053250 62282.26999788 0 344.95495803 0 26484.66879646 0 1521.71388913 0 8135.35744353 0 1041
0.03150000 0.03150510 64179.29140906 0 815.52544112 0 23811.58813874 0 -4135.25865629 0 6568.04772080 0 1036
0.03250000 0.03246190 60955.47331486 0 4067.92784907 0 24290.24474065 0 -241.41875588 0 1142.90751243 0 1059
0.03350000 0.03345080 57117.14119323 0 5004.93440917 0 24646.55215331 0 -392.24485733 0 -635.99212312 0 1302
0.03450000 0.03451200 53353.99015711 0 4144.68120471 0 26822.59614992 0 6020.52125851 0 -4950.34784782 0 1339
0.03550000 0.03553350 49420.87893504 0 2523.72606824 0 23664.65838840 0 4975.69239933 0 -4674.79090006 0 1365
0.03650000 0.03647120 48292.05541977 0 171.36858568 0 19242.15040933 0 5572.91145540 0 -7980.95387393 0 1308
0.03750000 0.03744890 48177.67830440 0 603.06524357 0 21651.82045961 0 5450.48475988 0 -3503.49394679 0 1579
0.03850000 0.03847530 47076.75704768 0 -1810.87872409 0 19568.34109849 0 3824.85710233 0 -2445.56652734 0 1662
0.03950000 0.03950240 50336.89236728 0 -1200.31751661 0 18221.94640054 0 1131.58052414 0 1723.45164732 0 1683
0.04050000 0.04050350 49132.11270376 0 1629.62476681 0 21188.00077296 0 2.09313443 0 7464.57386136 0 1822
0.04150000 0.04152450 48746.24218383 0 1010.37067712 0 22127.37681058 0 762.47128952 0 12100.39017806 0 1887
0.04250000 0.04250150 48661.98179197 0 -805.94455846 0 20265.23322258 0 3023.33150871 0 8109.58107135 0 1920
0.04350000 0.04349210 48467.44104490 0 1961.29625675 0 23715.81252906 0 -381.70289687 0 8924.47096103 0 2005
0.04450000 0.04448520 47537.58720663 0 3716.51440398 0 23095.98378571 0 -2747.32059563 0 1753.60158780 0 2151
0.04550000 0.04548030 43070.12558880 0 5164.05478914 0 25725.88237664 0 -1904.81632785 0 3991.57309712 0 2274
0.04650000 0.04648670 39436.52075307 0 3284.51657885 0 20664.16908579 0 -3624.96842238 0 -319.17526415 0 2311
0.04750000 0.04749250 38648.50339573 0 174.11341501 0 23283.21679839 0 5918.82195506 0 -847.58978656 0 2568
0.04850000 0.04851840 37976.74544898 0 39.08364576 0 17289.76737406 0 3730.77555834 0 -4788.82477336 0 2493
0.04950000 0.04949480 39112.21235913 0 -1579.21247191 0 15459.51208154 0 4480.83698621 0 -7522.73678364 0 2644
0.05050000 0.05050630 38183.90864634 0 -329.43045140 0 12963.58862092 0 1531.76756006 0 -5925.17746950 0 2829
0.05150000 0.05149060 38514.30681892 0 497.83940466 0 10562.93144304 0 3049.15217018 0 -3381.36620404 0 2784
0.05250000 0.05249300 38120.57494837 0 1179.03650831 0 10245.87542186 0 625.75575882 0 -4153.05188228 0 3055
0.05350000 0.05348950 36336.49125034 0 593.62940836 0 7613.59628110 0 2822.02557118 0 -3233.01919612 0 3009
0.05450000 0.05448610 37460.77511243 0 -1398.53427552 0 8171.94040473 0 1276.32902649 0 -6815.20415540 0 3336
0.05550000 0.05550870 36955.65565420 0 257.91319816 0 6640.53823138 0 555.95139424 0 -6334.98635569 0 3349
0.05650000 0.05647670 37067.26468838 0 1738.31070723 0 7492.34325201 0 -1788.19153054 0 -6991.38698791 0 3324
0.05750000 0.05747970 34481.32322698 0 1620.40152023 0 9498.60421985 0 -317.22099882 0 -4468.39169311 0 3639
0.05850000 0.05849280 33535.85741072 0 1756.15929484 0 9638.02693396 0 -1325.66730589 0 -2932.01804593 0 3846
0.05950000 0.05951020 33167.48116400 0 418.84168877 0 11101.44503292 0 1323.65214277 0 -2215.93758293 0 3787
0.06050000 0.06049470 32385.55358531 0 -395.39825544 0 12453.15444678 0 519.50905156 0 -1478.42109908 0 3930
0.06150000 0.06148310 33408.85784505 0 699.82518293 0 13406.26016717 0 290.20784796 0 424.36234993 0 4083
0.06250000 0.06249100 32157.68514054 0 735.29094656 0 13257.66956810 0 -94.48723397 0 4586.30088011 0 4303
0.06350000 0.06350600 31977.53841574 0 1154.20128375 0 13786.04090845 0 122.10449087 0 2357.78513618 0 4470
0.06450000 0.06451750 32304.39344439 0 -138.25679831 0 13448.88861772 0 1072.99353183 0 2578.11332775 0 4479
0.06550000 0.06550280 31207.23677811 0 1184.92698512 0 12480.06019609 0 1428.35204626 0 489.85958016 0 4636
0.06650000 0.06648880 31396.57353251 0 13.16565855 0 10775.02182494 0 -213.71469195 0 405.58922320 0 4653
0.06750000 0.06749660 30999.63068776 0 -464.45080917 0 13405.37438118 0 388.18352858 0 -1415.87353618 0 5220
0.06850000 0.06852730 31129.17688814 0 598.92973025 0 11932.97662680 0 -1842.97739374 0 -4333.08788383 0 5029
0.06950000 0.06949320 30271.84677743 0 1495.45033466 0 11872.85390303 0 281.03110515 0 -4219.07615517 0 5040
0.07050000 0.07048030 28963.98376985 0 1155.91749409 0 12342.98481483 0 -1120.91787534 0 -4939.66305437 0 5475
0.07150000 0.07148790 28576.00950820 0 971.25990416 0 12384.50603290 0 223.97209366 0 -6196.89232055 0 5509
0.07250000 0.07249820 27201.26965872 0 -74.44532953 0 11900.20254534 0 1743.96866521 0 -4911.35111981 0 5916
0.07350000 0.07351270 27611.05640026 0 -365.08333732 0 10600.44447953 0 1970.20947823 0 -4973.66616389 0 5721
0.07450000 0.07449140 27515.72368357 0 223.28118060 0 10696.56333128 0 2265.53052579 0 -4386.88831012 0 6028
0.07550000 0.07549160 27537.53616346 0 1023.75711782 0 9762.33592470 0 -80.29074198 0 -3035.40034276 0 6183
0.07650000 0.07648840 26569.70425106 0 1121.06181556 0 10868.78227151 0 -101.85088359 0 -1098.66250245 0 6330
0.07750000 0.07749960 26174.75442478 0 932.44476228 0 10765.99788021 0 563.63226596 0 1002.78945632 0 6583
0.07850000 0.07848650 26041.99725021 0 -200.89404704 0 12029.41657597 0 1185.36987811 0 3895.80855977 0 6549
0.07950000 0.07947320 25908.90790589 0 -36.20218395 0 11880.82597690 0 2306.87458667 0 2789.27363436 0 6828
0.08050000 0.08048110 25988.85009108 0 87.64165842 0 12458.35843944 0 1314.52854712 0 3235.85371127 0 7147
0.08150000 0.08149960 25916.76925651 0 558.52349529 0 10706.83844871 0 873.71825867 0 3537.72957513 0 7386
0.08250000 0.08250610 25191.64270414 0 459.51587400 0 11064.91743334 0 171.02091468 0 4266.55428399 0 7227
0.08350000 0.08350160 24218.38535258 0 749.79015591 0 10416.34493477 0 128.00604000 0 3750.93826184 0 7798
0.08450000 0.08449610 23606.41795985 0 951.68846281 0 9961.89243491 0 2178.33596785 0 3552.66614131 0 7371
0.08550000 0.08548940 23132.85462736 0 472.56682326 0 9575.43508176 0 1076.32851606 0 3272.41452783 0 8256
0.08650000 0.08650700 22205.76887029 0 646.86736055 0 9131.64523071 0 796.66927196 0 3081.84874537 0 8037
0.08750000 0.08749060 22272.64571220 0 456.10670518 0 9196.34082462 0 424.69562691 0 3458.36315083 0 8155
0.08850000 0.08849210 21536.44683500 0 482.41565619 0 8847.56259284 0 675.60115069 0 2952.13646012 0 8718
0.08950000 0.08949900 21197.41224906 0 320.33564379 0 8266.55342030 0 -111.80612155 0 2743.16847382 0 8571
0.09050000 0.09049190 20870.44649716 0 190.00441559 0 8477.58085902 0 825.47171051 0 1337.31539160 0 8932
0.09150000 0.09150830 20607.03588973 0 723.93074129 0 8099.04021812 0 87.14063572 0 676.95972495 0 9285
0.09250000 0.09250820 19745.16612584 0 908.80091986 0 7603.78620131 0 30.93430397 0 1040.18512616 0 9204
0.09350000 0.09350330 19091.56679180 0 656.43606366 0 6958.50218320 0 -442.90185061 0 43.52796622 0 9349
0.09450000 0.09448040 18583.12563613 0 190.83373271 0 6875.37116846 0 237.27881363 0 939.21881060 0 9564
0.09550000 0.09549270 18562.30966547 0 110.16498157 0 6872.47021936 0 956.88913378 0 -26.20531404 0 10155
0.09650000 0.09649430 18370.75844611 0 421.76810422 0 6190.74718028 0 608.90257322 0 699.92926278 0 9913
0.09750000 0.09749140 18278.19381062 0 98.18251165 0 6617.98390573 0 802.22868625 0 1216.09557948 0 10476
0.09850000 0.09850240 18074.90592695 0 210.82592241 0 6196.64872941 0 491.84706247 0 692.29489482 0 10575
0.09950000 0.09950330 17914.91083332 0 356.93078455 0 5969.84322782 0 911.51585391 0 682.64204204 0 10882
0.10050000 0.10051200 17370.59534524 0 185.56552057 0 5891.11899836 0 -161.34370279 0 885.92992571 0 10875
0.10150000 0.10150300 17127.00419923 0 718.01701261 0 5477.14691804 0 133.41597790 0 -634.75091551 0 11118
0.10250000 0.10250800 16401.43475386 0 809.31718860 0 5218.55277190 0 -295.90788078 0 -1223.49189246 0 11575
0.10350000 0.10349800 15778.83792931 0 524.69422127 0 4699.36038883 0 -649.00099755 0 -1675.91815688 0 11364
0.10450000 0.10450100 15381.12002182 0 95.56855721 0 4705.15121471 0 -676.83682214 0 -1703.11178663 0 12093
0.10550000 0.10551000 15777.84142007 0 -372.51176004 0 5311.58244503 0 223.69307108 0 -2801.44211934 0 12067
0.10650000 0.10649700 15703.65684379 0 -279.51198219 0 5400.06139265 0 -322.62872226 0 -2797.77717983 0 12054
0.10750000 0.10749900 15900.52277907 0 323.12365518 0 5680.51230798 0 399.84379385 0 -2155.41625547 0 12807
0.10850000 0.10850100 15718.05086605 0 277.41931280 0 5636.11228546 0 71.76184089 0 -1422.78266687 0 12736
0.10950000 0.10950300 15501.36546935 0 270.76263112 0 5447.28485800 0 1239.85678854 0 -386.84267005 0 12933
0.11050000 0.11050200 15451.42928442 0 133.94191333 0 5522.59881142 0 981.63467252 0 139.79806593 0 13428
0.11150000 0.11150900 15187.46506074 0 124.42635738 0 4830.77781210 0 899.83676569 0 1072.13764112 0 13453
0.11250000 0.11250000 15227.98976958 0 107.28041951 0 4524.30693345 0 909.10097986 0 1523.43009947 0 13668
0.11350000 0.11349100 15012.30088211 0 15.31014642 0 4622.95027526 0 484.84603148 0 897.53040043 0 13791
0.11450000 0.11448600 14943.20957525 0 362.03291183 0 4613.45022056 0 -310.30301028 0 1196.11003318 0 14205
0.11550000 0.11549300 14720.43439989 0 485.78385740 0 4748.02325641 0 -383.55640404 0 899.23775291 0 14776
0.11650000 0.11649800 14049.67296238 0 381.17363974 0 4527.56219694 0 88.44794512 0 758.07889827 0 14553
0.11750000 0.11747300 13983.90335296 0 240.00149830 0 4729.42175071 0 -93.09444623 0 574.79981278 0 14568
0.11850000 0.11849100 14044.24752322 0 -61.04283396 0 4556.58276029 0 -7.28615442 0 -131.88246091 0 16015
0.11950000 0.11950300 14027.30686625 0 115.16767937 0 4570.20171982 0 143.79849688 0 -431.02346054 0 15270
0.12050000 0.12050700 13968.40209821 0 74.08481464 0 4776.13588912 0 -491.23808460 0 -440.64420358 0 15999
0.12150000 0.12150000 13815.16112272 0 259.15551301 0 4882.67379853 0 -325.09120730 0 37.50816466 0 15670
0.12250000 0.12250700 13717.50321782 0 290.37946900 0 5352.46146826 0 99.08357744 0 146.11704170 0 16887
0.12350000 0.12352200 13766.88578651 0 -144.00887106 0 5003.87146599 0 343.07598451 0 274.72541617 0 16407
0.12450000 0.12449800 13615.30565974 0 4.65942251 0 5154.68760235 0 638.98386528 0 296.50800078 0 16306
0.12550000 0.12549900 13698.90171213 0 153.83113040 0 4873.86022797 0 375.95968198 0 628.58141612 0 17523
0.12650000 0.12650100 13541.78542295 0 172.72051654 0 4577.00012726 0 387.20141337 0 416.67704927 0 17154
0.12750000 0.12750600 13274.05660883 0 319.79863604 0 4465.83398608 0 227.00701790 0 380.52590874 0 18007
0.12850000 0.12850300 13102.54629739 0 159.36507835 0 4121.97186651 0 198.00527750 0 430.49198895 0 17496
0.12950000 0.12949900 12913.43098949 0 148.68914276 0 4270.06421096 0 182.17849640 0 -105.15386880 0 18405
0.13050000 0.13049000 12726.75159305 0 208.44315811 0 4117.04468197 0 37.84941371 0 -255.24476788 0 18100
0.13150000 0.13148800 12582.92209365 0 153.92081623 0 3827.89091933 0 313.39661783 0 -418.93358907 0 19059
0.13250000 0.13249300 12425.36291148 0 280.42102005 0 4151.26923798 0 60.07865591 0 136.31249807 0 18957
0.13350000 0.13349100 12199.26603869 0 233.65041279 0 4262.08106477 0 -2.61248182 0 -6.65703600 0 19468
0.13450000 0.13450700 12050.01110013 0 372.27149059 0 4394.69429912 0 105.78831301 0 290.35953881 0 19953
0.13550000 0.13551000 11747.29373959 0 326.17961683 0 4172.33987211 0 -189.10755728 0 572.87322826 0 19956
0.13650000 0.13649900 11750.72616028 0 -49.15027132 0 4404.13899219 0 246.78219002 0 877.34444505 0 19723
0.13750000 0.13749600 11706.87975400 0 -129.22067403 0 4203.18736906 0 -89.96341421 0 346.52833538 0 20946
0.13850000 0.13851100 11879.82946767 0 165.27880703 0 4554.99941784 0 -180.40692443 0 -180.91182244 0 20955
0.13950000 0.13949800 11575.22981191 0 184.23905605 0 4220.83665482 0 68.23652339 0 175.51738579 0 20506
0.14050000 0.14048300 11361.64466616 0 350.56751948 0 3945.03611591 0 226.92176100 0 73.25328304 0 21447
0.14150000 0.14148400 11266.20122622 0 23.12466111 0 3799.56791244 0 655.43180380 0 107.18796560 0 21771
0.14250000 0.14249400 11211.17177187 0 10.27088780 0 3500.27190027 0 560.44122195 0 -62.05462300 0 22470
0.14350000 0.14350900 11143.96276022 0 283.63531595 0 3509.70552101 0 76.04118371 0 -127.54653852 0 22519
0.14450000 0.14449900 10720.62349311 0 442.11571554 0 3581.65348769 0 -199.30295397 0 192.73927982 0 22218
0.14550000 0.14550500 10792.83719557 0 113.29977817 0 3388.72930005 0 222.81725019 0 639.36253879 0 23559
0.14650000 0.14650700 10531.65212543 0 -65.82951070 0 3576.03981900 0 229.72527364 0 907.71029587 0 23044
0.14750000 0.14750500 10668.50606019 0 -46.95175050 0 3283.48685264 0 280.24829179 0 177.97101297 0 23649
0.14850000 0.14849900 10643.80370352 0 109.12252219 0 3536.97665704 0 147.61623448 0 214.77099174 0 23640
0.14950000 0.14949500 10455.38595208 0 291.26857668 0 3145.51461308 0 17.75724093 0 446.59447093 0 24457
0.15050000 0.15050000 10306.88393161 0 82.24157489 0 3290.30740473 0 87.79102408 0 639.91283334 0 24591
0.15150000 0.15149900 10298.00392710 0 -120.45914340 0 3093.92865175 0 382.60196964 0 185.92980005 0 25020
0.15250000 0.15250500 10262.30675189 0 203.67762950 0 3495.23399248 0 62.38147803 0 438.42641691 0 25297
0.15350000 0.15350100 10063.09348375 0 269.33873014 0 3038.07984536 0 262.10518034 0 523.15738259 0 25452
0.15450000 0.15450400 9826.31181750 0 267.24052459 0 2882.00435472 0 -121.55419632 0 889.84509977 0 26061
0.15550000 0.15549900 9664.86624932 0 152.00862574 0 3289.83129477 0 315.13165113 0 1170.77655400 0 26128
0.15650000 0.15649500 9600.76856095 0 278.62508897 0 3355.76698906 0 124.77624285 0 840.98293035 0 26331
0.15750000 0.15749700 9389.17643366 0 269.57014173 0 3104.24805848 0 -16.50728618 0 1083.09259930 0 27345
0.15850000 0.15849900 9182.41184000 0 56.07468181 0 2778.85457671 0 114.96837752 0 703.46354887 0 26980
0.15950000 0.15949700 9215.47380191 0 -44.89606267 0 2821.48302726 0 -55.31667045 0 902.55834313 0 27777
0.16050000 0.16050000 9259.15412332 0 -90.25417346 0 2775.75432576 0 182.57045670 0 218.74817081 0 28224
0.16150000 0.16150500 9039.13595685 0 146.73819912 0 2560.97336893 0 362.11373980 0 545.19684514 0 28075
0.16250000 0.16249700 9106.27853455 0 107.10448027 0 2254.57999655 0 423.27726210 0 299.24729394 0 28590
0.16350000 0.16349900 8929.09919280 0 141.62721399 0 2171.50434343 0 450.48971480 0 357.38253540 0 29163
0.16450000 0.16449100 8857.79342097 0 222.51386849 0 2174.64888368 0 12.86703795 0 261.47959399 0 28996
0.16550000 0.16550500 8648.06144425 0 242.35658179 0 2137.31300439 0 -15.58296850 0 588.60589459 0 30777
0.16650000 0.16650700 8547.89012162 0 32.89565559 0 2145.46223546 0 -228.66454492 0 672.78102956 0 29211
0.16750000 0.16749900 8526.84163214 0 -56.06294515 0 2336.89165925 0 14.90279559 0 465.13950777 0 30922
0.16850000 0.16850800 8675.26614633 0 28.50835760 0 2533.49185873 0 -173.23427242 0 294.20606445 0 30867
0.16950000 0.16949900 8503.76690722 0 275.81825463 0 2360.54214506 0 -208.39111818 0 110.87272457 0 30852
0.17050000 0.17049200 8348.57720256 0 381.94427355 0 2438.96742175 0 -252.61841243 0 328.12170261 0 31257
0.17150000 0.17149500 8031.98621902 0 118.83151165 0 2437.50587488 0 48.63773340 0 376.46568723 0 32608
0.17250000 0.17250900 8095.98425647 0 -5.71118265 0 2500.27488427 0 364.92611030 0 199.80342305 0 32361
0.17350000 0.17350400 8008.13643136 0 31.51460452 0 2394.46774831 0 324.32721689 0 199.05382666 0 32508
0.17450000 0.17449800 7834.92098190 0 121.80000194 0 2197.49108978 0 237.94868928 0 1.54375889 0 32791
0.17550000 0.17549800 7828.36616560 0 108.97260291 0 2176.09935823 0 94.87343666 0 85.39851614 0 33633
0.17650000 0.17650100 7779.48185153 0 125.18481163 0 2142.50592473 0 131.55139840 0 173.70041729 0 33984
0.17750000 0.17750300 7674.51621225 0 79.91306498 0 2139.81534980 0 81.17542073 0 51.96673858 0 34069
0.17850000 0.17849800 7690.71502346 0 15.17949299 0 1838.78098263 0 217.62543708 0 265.65718214 0 34536
