### header ###
fiducial parameters:
Omega_m = 0.31
Omega_nu = 0
Omega_de = 0.69
Omega_k = 0
H_0 = 100
w_de = -1
zeff = 0
beta = 0
fgrowth = 0
b_1 = 2
gamma = 0.55
Lx = 3500 Ly = 3500 Lz = 3500
nx = 700 ny = 700 nz = 700
xoffset = -685.467585 yoffset = -31.7331281 zoffset = 572.489161
bins = 400 dk = 0.001
kx_ny = 0.628318531 ky_ny = 0.628318531 kz_ny = 0.628318531
############################
A(data) = 8.00587319 (not used)
A(ran) = 8.00700081 (used)
Ngal = 476277
weighted Ngal = 0
Nran = 23820508
weighted Nran = 0
SN(data) = 3488.55258
SN(ran) = 69.7438809
SN(data+ran) = 3558.29646
############################
13 columns: k_central k_mean P_0(k) sigma^{lin}_{P_0(k)} P^img_1(k) sigma^{lin}_{P_1(k)} P_2(k) sigma^{lin}_{P_2(k)} P^img_3(k) sigma^{lin}_{P_3(k)} P_4(k) sigma^{lin}_{P_4(k)} N_modes
### header ###
0.00050000 0 0 0 0 0 0 0 0 0 0 0 0
0.00150000 0.00179520 61130.74821674 0 -49459.63207190 0 49589.28899553 0 -68875.83942738 0 -32600.24596354 0 3
0.00250000 0.00253879 92632.50883502 0 -22654.41947194 0 10735.52684231 0 -27717.79361151 0 6189.08633155 0 6
0.00350000 0.00331552 101015.14450872 0 -12828.83842788 0 -10286.79873439 0 -7063.05814646 0 69428.12698934 0 7
0.00450000 0.00420575 84135.27459945 0 11444.68710230 0 14325.37385036 0 -45231.55411665 0 57460.49398585 0 24
0.00550000 0.00557378 86910.66353849 0 1292.62748863 0 39925.58534031 0 -1714.40555794 0 4076.37603291 0 45
0.00650000 0.00659388 78451.85027004 0 -19028.67598683 0 50325.15570297 0 802.86313046 0 29005.17281817 0 40
0.00750000 0.00754703 92306.42886911 0 -2226.47843616 0 24430.08820311 0 -2349.02692725 0 -10872.41399405 0 57
0.00850000 0.00846663 112812.59587974 0 -18210.43118273 0 30164.88811968 0 -6875.11650499 0 4061.81592577 0 75
0.00950000 0.00948925 118265.71585293 0 -609.86918717 0 40442.22001635 0 -11780.84288379 0 12509.84474985 0 112
0.01050000 0.01054430 119215.72132236 0 17364.94845958 0 27507.53016320 0 -34450.43144074 0 -14577.60140973 0 105
0.01150000 0.01145670 120057.21800858 0 18716.65787344 0 72541.00038885 0 -37104.91059276 0 734.96763467 0 144
0.01250000 0.01249090 109287.05693424 0 4440.46728992 0 56491.22267123 0 -13830.44093097 0 -1018.41361387 0 169
0.01350000 0.01339930 99522.92729291 0 13551.52906879 0 76445.10211991 0 26263.88663957 0 -21873.37767924 0 180
0.01450000 0.01448870 115231.89885262 0 2789.36221296 0 86939.67302951 0 19699.32670109 0 -24251.93449678 0 267
0.01550000 0.01550050 96506.49384257 0 2450.27226539 0 65409.86958940 0 18511.15552481 0 -21708.62148593 0 238
0.01650000 0.01653350 96080.09861380 0 15010.64003339 0 63076.70930362 0 27914.99171653 0 -25949.43261472 0 315
0.01750000 0.01747870 81197.56537856 0 5994.30199334 0 52391.69440713 0 14635.95256153 0 -26973.40121395 0 297
0.01850000 0.01844180 80544.74110726 0 4543.73886350 0 50018.00941250 0 13278.92843175 0 -38868.06759688 0 388
0.01950000 0.01947590 77376.61680690 0 1455.04742139 0 28443.03088713 0 -633.57724908 0 -31917.41569197 0 399
0.02050000 0.02045430 77274.52997207 0 -6163.76392469 0 22837.33427795 0 -11.59549217 0 -29706.16170244 0 462
0.02150000 0.02154770 76281.67460558 0 -2662.51765984 0 29985.40573437 0 -8243.96587767 0 -38634.22009671 0 571
0.02250000 0.02255340 78216.89553738 0 9394.73474072 0 20351.04373992 0 2550.54323895 0 -33570.62451065 0 510
0.02350000 0.02348930 67462.23571779 0 7880.02963321 0 22208.42622825 0 -760.62885467 0 -26214.61479413 0 555
0.02450000 0.02439640 66343.26657161 0 4679.78451855 0 17525.05427646 0 10169.17742784 0 -23531.34759758 0 592
0.02550000 0.02547300 63865.05883070 0 -5464.38052752 0 16393.68412649 0 8967.19906250 0 -20404.08017580 0 837
0.02650000 0.02652900 67231.82063831 0 -313.31357539 0 19613.95907674 0 3275.40405553 0 -11365.07708685 0 723
0.02750000 0.02749970 67079.13327906 0 2197.74575325 0 21135.96084631 0 -4416.27426019 0 -9385.37862625 0 826
0.02850000 0.02848090 67385.50450679 0 4093.60457033 0 19711.39553515 0 -1726.72905547 0 5878.68477759 0 831
0.02950000 0.02946900 66287.79422427 0 721.79488984 0 20284.83123750 0 -1188.13795931 0 722.50130416 0 996
0.03050000 0.03053250 62875.30371516 0 2095.98001584 0 27116.45565061 0 -1214.00291009 0 -12431.78485988 0 1041
0.03150000 0.03150510 63057.77562818 0 4231.92005196 0 24673.23645613 0 2208.00979836 0 -7595.52624699 0 1036
0.03250000 0.03246190 60464.96932539 0 2185.34474946 0 25063.75735248 0 1580.71830808 0 -13646.86178548 0 1059
0.03350000 0.03345080 56723.40932268 0 1101.40954624 0 19446.65624873 0 1793.89377782 0 -8315.52631297 0 1302
0.03450000 0.03451200 57927.41392346 0 171.45273535 0 18421.13752403 0 9077.40191142 0 -12183.43261420 0 1339
0.03550000 0.03553350 55467.36479525 0 -153.60193328 0 11785.93615321 0 8500.22376327 0 -5747.06805247 0 1365
0.03650000 0.03647120 55765.32105612 0 -111.29790184 0 7037.17105104 0 12258.61369972 0 -10153.18899080 0 1308
0.03750000 0.03744890 52890.28119371 0 1173.06852524 0 5234.98410193 0 2362.46872958 0 -9471.79812146 0 1579
0.03850000 0.03847530 51322.99361563 0 4733.88389761 0 7779.58150245 0 -3531.39620533 0 -7802.96625247 0 1662
0.03950000 0.03950240 48113.45882045 0 3888.60047631 0 9561.10749345 0 -8438.09694872 0 -1778.97935629 0 1683
0.04050000 0.04050350 45313.37859706 0 2937.75351018 0 15567.13507878 0 -5666.93763776 0 -174.78550512 0 1822
0.04150000 0.04152450 46698.74787837 0 -44.33004543 0 19052.70293169 0 -3364.91272936 0 3508.31040809 0 1887
0.04250000 0.04250150 44889.53000300 0 717.98379563 0 23224.86564660 0 234.09441301 0 1111.43996530 0 1920
0.04350000 0.04349210 45374.60855331 0 2062.19835282 0 24767.79411008 0 663.18575287 0 -172.92867625 0 2005
0.04450000 0.04448520 44478.41458249 0 1962.31491063 0 27470.54859831 0 -292.18868687 0 3055.21980418 0 2151
0.04550000 0.04548030 41942.74147577 0 2905.05693499 0 25590.80001385 0 3163.88359995 0 5094.00019002 0 2274
0.04650000 0.04648670 41932.11204394 0 -707.16945598 0 23802.06593940 0 1660.37261283 0 -1911.16076997 0 2311
0.04750000 0.04749250 40306.25186757 0 622.28015606 0 22527.53062952 0 3867.75128868 0 1587.51671552 0 2568
0.04850000 0.04851840 42536.77170229 0 677.35611418 0 23368.47369950 0 2378.61217917 0 -1213.40500455 0 2493
0.04950000 0.04949480 39080.65623340 0 659.05023955 0 19971.59516839 0 3750.04140353 0 3299.03239669 0 2644
0.05050000 0.05050630 39433.64194862 0 1162.61625061 0 19461.05027100 0 2011.48710515 0 -1838.01699222 0 2829
0.05150000 0.05149060 38121.46073436 0 1889.51437495 0 19666.10972664 0 -785.22159533 0 -514.38367240 0 2784
0.05250000 0.05249300 36633.22955548 0 2327.28088131 0 20707.46187583 0 -666.44987423 0 2455.07765436 0 3055
0.05350000 0.05348950 36793.22464911 0 476.93817710 0 23226.85866507 0 376.99383712 0 5638.74749877 0 3009
0.05450000 0.05448610 36225.87872541 0 -740.54476468 0 23570.54362744 0 2362.51301888 0 4264.61662715 0 3336
0.05550000 0.05550870 37128.38392137 0 -311.31723523 0 25302.14450583 0 1132.01234481 0 3277.07597657 0 3349
0.05650000 0.05647670 36416.43343553 0 966.11791652 0 23790.10782859 0 2890.65184040 0 998.78127473 0 3324
0.05750000 0.05747970 35696.84304557 0 1076.07606706 0 22964.77673661 0 -23.98475930 0 984.59319771 0 3639
0.05850000 0.05849280 35520.46091121 0 374.01206005 0 23706.51177621 0 1527.49364268 0 1025.40135806 0 3846
0.05950000 0.05951020 35308.20444444 0 -575.42539913 0 19973.80963335 0 923.56143608 0 -371.29712600 0 3787
0.06050000 0.06049470 35373.30971437 0 -302.43501626 0 17814.37412397 0 5132.04469809 0 -1710.81812470 0 3930
0.06150000 0.06148310 35163.26771256 0 340.52934980 0 13668.00992588 0 3235.89800057 0 -3098.49044957 0 4083
0.06250000 0.06249100 34276.59594108 0 1906.62111680 0 12858.29081189 0 2438.94527710 0 -3124.24467710 0 4303
0.06350000 0.06350600 32166.54300039 0 2270.33591476 0 11412.57736032 0 1571.39541059 0 -1615.97259031 0 4470
0.06450000 0.06451750 30496.28280150 0 1382.76728498 0 12073.81659849 0 1177.48638284 0 -699.41772138 0 4479
0.06550000 0.06550280 30808.63308464 0 -517.33998313 0 11482.22228343 0 2811.73938142 0 198.42048968 0 4636
0.06650000 0.06648880 30406.70769372 0 -776.29951599 0 12304.89601746 0 1107.60894091 0 488.44675151 0 4653
0.06750000 0.06749660 31477.06933394 0 18.74699604 0 11039.49537556 0 935.26488341 0 537.28899075 0 5220
0.06850000 0.06852730 31424.58651430 0 -706.55272749 0 10929.01571852 0 -233.98811870 0 1506.26799600 0 5029
0.06950000 0.06949320 31651.90134282 0 630.95421533 0 10989.20487623 0 -337.45677966 0 1311.68295964 0 5040
0.07050000 0.07048030 29888.19072246 0 1719.88635873 0 9710.52851688 0 681.85037082 0 -1936.46103218 0 5475
0.07150000 0.07148790 29244.55648075 0 1114.51807160 0 9597.53544210 0 -78.35828913 0 -1179.46832898 0 5509
0.07250000 0.07249820 28508.24688031 0 335.53683854 0 9573.39777400 0 893.94850335 0 -2594.35642826 0 5916
0.07350000 0.07351270 27638.40504256 0 5.84391768 0 9663.43791942 0 195.13090198 0 -1162.57196131 0 5721
0.07450000 0.07449140 28906.85057378 0 164.92006371 0 9701.15025775 0 1467.23805102 0 -705.29823309 0 6028
0.07550000 0.07549160 28233.21033182 0 147.31617448 0 9817.62004252 0 241.88600799 0 -549.54605433 0 6183
0.07650000 0.07648840 28149.72500269 0 742.50345894 0 10649.25128733 0 -50.38682855 0 240.67912458 0 6330
0.07750000 0.07749960 27971.68201960 0 540.23201469 0 11036.14046114 0 306.13760168 0 1015.69092919 0 6583
0.07850000 0.07848650 27035.40623294 0 811.91586323 0 10670.39942773 0 421.67398946 0 1514.36186545 0 6549
0.07950000 0.07947320 26747.30434116 0 718.43665372 0 10156.96465356 0 513.92859985 0 750.76452049 0 6828
0.08050000 0.08048110 25734.40806675 0 456.57063559 0 10289.19035655 0 594.21624158 0 1149.32946083 0 7147
0.08150000 0.08149960 25725.66093014 0 322.85902662 0 8888.87343673 0 447.89989803 0 -948.08885001 0 7386
0.08250000 0.08250610 24736.12726110 0 90.79428147 0 7892.67422815 0 1185.86813273 0 -1696.33552384 0 7227
0.08350000 0.08350160 24941.74033298 0 511.18487776 0 8010.66092142 0 -299.82194760 0 -3254.28913210 0 7798
0.08450000 0.08449610 23615.38654295 0 1227.72152054 0 7500.68071260 0 -228.37445001 0 -2734.86423021 0 7371
0.08550000 0.08548940 23155.22072349 0 893.48457294 0 7532.53579110 0 87.46870871 0 -2175.26893387 0 8256
0.08650000 0.08650700 22329.66818501 0 502.50306787 0 7305.95173601 0 697.32283752 0 -2446.93949562 0 8037
0.08750000 0.08749060 22407.72807498 0 167.42019465 0 8048.70542950 0 289.92771814 0 -2589.09707397 0 8155
0.08850000 0.08849210 21702.19953754 0 382.33844831 0 8950.13660996 0 -548.91493181 0 -2379.45367585 0 8718
0.08950000 0.08949900 21642.07681377 0 848.56858008 0 8980.78480505 0 68.60733555 0 -922.35565990 0 8571
0.09050000 0.09049190 20696.83244401 0 868.04147774 0 8829.52577571 0 -443.42003541 0 -1824.32052642 0 8932
0.09150000 0.09150830 20510.59594056 0 576.98438246 0 9745.30668913 0 53.87859691 0 -223.90455248 0 9285
0.09250000 0.09250820 19766.42498950 0 383.21648367 0 9257.37147902 0 1112.46969150 0 -903.75193974 0 9204
0.09350000 0.09350330 19601.22590320 0 349.79245674 0 8313.45578823 0 800.45489981 0 -1538.59918447 0 9349
0.09450000 0.09448040 19236.94641667 0 111.90909417 0 8360.93391706 0 1043.80024021 0 -751.77874544 0 9564
0.09550000 0.09549270 18947.73729240 0 126.37730102 0 6541.58486448 0 1528.92197258 0 -697.16450328 0 10155
0.09650000 0.09649430 18684.99102446 0 187.41459881 0 6466.65844243 0 1209.12001485 0 -572.63517327 0 9913
0.09750000 0.09749140 18572.38548105 0 240.34695484 0 5574.92661851 0 1345.30961012 0 -411.85394458 0 10476
0.09850000 0.09850240 17871.83948978 0 581.91710317 0 6071.60896523 0 694.55807801 0 -91.17295498 0 10575
0.09950000 0.09950330 17550.18845380 0 551.15154143 0 5597.49201649 0 -33.03704918 0 472.39077330 0 10882
0.10050000 0.10051200 17130.43661992 0 374.50034957 0 6051.54591266 0 -281.68547955 0 941.88834812 0 10875
0.10150000 0.10150300 17261.86511552 0 90.60250880 0 6767.39385683 0 -186.21768050 0 1438.21748767 0 11118
0.10250000 0.10250800 16933.90285439 0 37.38382245 0 6204.23327191 0 88.27887072 0 1376.07960079 0 11575
0.10350000 0.10349800 17142.61617722 0 116.85399444 0 7416.44246538 0 278.40142801 0 1872.27476521 0 11364
0.10450000 0.10450100 17113.49596295 0 298.12123851 0 6837.78062570 0 262.17050706 0 1130.13004959 0 12093
0.10550000 0.10551000 16943.97866997 0 424.93700359 0 6874.82862455 0 -33.72165102 0 1238.63883281 0 12067
0.10650000 0.10649700 16225.38478924 0 598.14913135 0 6409.97921169 0 -362.64742586 0 840.29312451 0 12054
0.10750000 0.10749900 16039.92334853 0 515.39125396 0 6742.29289647 0 221.13204235 0 1460.01889524 0 12807
0.10850000 0.10850100 15396.17838358 0 240.45103469 0 6221.46180932 0 220.04141835 0 244.20898174 0 12736
0.10950000 0.10950300 15630.35805349 0 110.34291383 0 5980.16263455 0 700.81615600 0 -150.50832572 0 12933
0.11050000 0.11050200 15094.45753227 0 147.16780533 0 5557.87523829 0 584.98967331 0 -354.84586579 0 13428
0.11150000 0.11150900 15035.99565723 0 187.51646420 0 5376.76522123 0 597.77488677 0 384.94376634 0 13453
0.11250000 0.11250000 14860.94220184 0 221.08775305 0 5360.23424028 0 478.48940981 0 554.34701437 0 13668
0.11350000 0.11349100 14635.39894529 0 372.44421885 0 5178.62596860 0 678.85752142 0 1016.63761297 0 13791
0.11450000 0.11448600 14650.01441405 0 282.27452723 0 5493.13535508 0 406.05979700 0 1591.87921150 0 14205
0.11550000 0.11549300 14200.92091940 0 46.61504110 0 5101.89475761 0 449.63271686 0 1958.37316300 0 14776
0.11650000 0.11649800 14298.80027080 0 63.25298071 0 5463.52795851 0 469.41010345 0 1691.91766624 0 14553
0.11750000 0.11747300 14098.83408458 0 213.38473667 0 4997.84812129 0 336.85001626 0 1564.58593082 0 14568
0.11850000 0.11849100 14226.83015948 0 -95.28377701 0 4581.57299741 0 182.45530452 0 1172.73635549 0 16015
0.11950000 0.11950300 13796.55961703 0 11.79944439 0 4358.29956744 0 323.59976515 0 1131.65803041 0 15270
0.12050000 0.12050700 14300.12894978 0 44.16495707 0 3939.76568930 0 106.87484025 0 84.58724690 0 15999
0.12150000 0.12150000 13820.25439214 0 262.52260699 0 4135.32509024 0 -175.63696690 0 -166.61191494 0 15670
0.12250000 0.12250700 13501.14999086 0 518.28555967 0 3473.95298418 0 -447.45036164 0 -666.55616855 0 16887
0.12350000 0.12352200 13064.56822327 0 217.72398077 0 4078.21403883 0 172.76591308 0 -71.57538294 0 16407
0.12450000 0.12449800 13258.88752383 0 88.21354400 0 3791.54047695 0 162.66020221 0 -505.69964805 0 16306
0.12550000 0.12549900 13215.15184080 0 -220.09456551 0 3827.83555770 0 479.66971963 0 -216.78726209 0 17523
0.12650000 0.12650100 13200.75781853 0 63.70030264 0 3756.76230469 0 310.65068127 0 -101.73329550 0 17154
0.12750000 0.12750600 13277.37830628 0 216.58020962 0 3523.36876984 0 132.46154350 0 145.05409852 0 18007
0.12850000 0.12850300 13171.52688101 0 134.77455216 0 3753.09736518 0 147.89082814 0 296.00421000 0 17496
0.12950000 0.12949900 12887.30030292 0 73.19183164 0 3694.51369456 0 -91.72867496 0 546.37936943 0 18405
0.13050000 0.13049000 12899.25841372 0 176.08539606 0 3863.46629897 0 108.44711037 0 242.01333972 0 18100
0.13150000 0.13148800 12738.48825736 0 313.12313141 0 3937.04189739 0 -142.96032190 0 587.01369428 0 19059
0.13250000 0.13249300 12463.00881587 0 129.51630510 0 3777.20181631 0 -9.12173550 0 438.04663617 0 18957
0.13350000 0.13349100 12465.55545058 0 197.60224488 0 4168.94066839 0 3.26594829 0 193.28182373 0 19468
0.13450000 0.13450700 12331.13742728 0 124.10636719 0 3915.80517839 0 304.29959576 0 -6.25248646 0 19953
0.13550000 0.13551000 12174.13186135 0 77.70081448 0 3812.87684687 0 51.94282236 0 -148.80540217 0 19956
0.13650000 0.13649900 12100.83307105 0 77.18163317 0 3297.65942841 0 318.93056577 0 -375.74820058 0 19723
0.13750000 0.13749600 12065.29090838 0 100.37981451 0 3071.95008698 0 610.55013515 0 -394.42831978 0 20946
0.13850000 0.13851100 11671.00542159 0 169.88600139 0 2680.14480095 0 306.41219533 0 -1100.28016911 0 20955
0.13950000 0.13949800 11575.56198165 0 209.67550786 0 2272.21820998 0 335.23234960 0 -1085.19191208 0 20506
0.14050000 0.14048300 11355.22271776 0 474.89865487 0 2460.29271935 0 -537.77395858 0 -1325.93304168 0 21447
0.14150000 0.14148400 11031.53437401 0 346.78853502 0 2691.49393389 0 -542.25382120 0 -491.07199973 0 21771
0.14250000 0.14249400 10784.17863757 0 183.38980874 0 3128.82861958 0 -229.30673976 0 -360.80499101 0 22470
0.14350000 0.14350900 10793.02542510 0 151.49597710 0 3546.83102613 0 5.09041276 0 -32.23773805 0 22519
0.14450000 0.14449900 10907.25860025 0 45.96299189 0 3703.70372416 0 116.10107635 0 -15.45109711 0 22218
0.14550000 0.14550500 10742.40275603 0 166.22991973 0 3905.77365210 0 73.42678637 0 367.86138361 0 23559
0.14650000 0.14650700 10675.00551485 0 278.45125347 0 4032.92823032 0 203.50711570 0 1088.45824790 0 23044
0.14750000 0.14750500 10597.11170975 0 48.63551894 0 4053.10200614 0 -60.24662308 0 512.25003541 0 23649
0.14850000 0.14849900 10467.29977358 0 196.32782029 0 4301.79749389 0 282.18594863 0 683.49793275 0 23640
0.14950000 0.14949500 10300.03016255 0 176.84827924 0 3955.22265474 0 160.53985201 0 490.49402437 0 24457
0.15050000 0.15050000 10118.80942224 0 232.04714015 0 4119.08198973 0 178.55563172 0 536.22272587 0 24591
0.15150000 0.15149900 9990.70262409 0 123.93253170 0 3730.07800188 0 82.73794721 0 376.51994162 0 25020
0.15250000 0.15250500 9923.02857480 0 89.26508269 0 3635.97431325 0 451.27474263 0 390.11897096 0 25297
0.15350000 0.15350100 9871.12151605 0 28.98867505 0 3365.01238028 0 59.58405516 0 187.60172110 0 25452
0.15450000 0.15450400 9696.03484369 0 218.45807590 0 3400.16701158 0 194.06020817 0 344.33047891 0 26061
0.15550000 0.15549900 9654.85686769 0 244.91871776 0 3288.64655601 0 184.53800882 0 119.89999100 0 26128
0.15650000 0.15649500 9365.35986298 0 241.55494548 0 3142.66902560 0 161.10011165 0 365.30146211 0 26331
0.15750000 0.15749700 9169.83367901 0 148.54852423 0 3035.65500623 0 289.90668073 0 346.54494387 0 27345
0.15850000 0.15849900 9015.90621938 0 47.23420551 0 2934.91899503 0 307.58918346 0 339.05119443 0 26980
0.15950000 0.15949700 9102.22606366 0 -28.55275763 0 2797.40072078 0 492.66752174 0 456.62156829 0 27777
0.16050000 0.16050000 8899.68002576 0 65.01004794 0 2519.03140252 0 181.45325913 0 414.49690852 0 28224
0.16150000 0.16150500 8890.93288915 0 219.43465495 0 2496.86460823 0 248.51943779 0 631.58755231 0 28075
0.16250000 0.16249700 8652.56788045 0 135.60386929 0 2369.86504256 0 84.95141566 0 912.44260749 0 28590
0.16350000 0.16349900 8665.30105400 0 24.84363954 0 2254.66857515 0 155.69017374 0 707.53373547 0 29163
0.16450000 0.16449100 8699.62526093 0 -68.58563379 0 2208.24231718 0 277.54885900 0 701.70304922 0 28996
0.16550000 0.16550500 8667.52659128 0 -37.34850174 0 2084.37621943 0 115.49099125 0 835.68814462 0 30777
0.16650000 0.16650700 8824.83110998 0 15.90805196 0 2126.04137773 0 -1.46538897 0 714.72521044 0 29211
0.16750000 0.16749900 8666.14255068 0 71.66750468 0 2085.62739214 0 21.30868911 0 623.04636094 0 30922
0.16850000 0.16850800 8824.76467603 0 75.33122624 0 1943.11549940 0 -40.07495100 0 529.50071748 0 30867
0.16950000 0.16949900 8595.94401133 0 78.56633811 0 2125.10023012 0 -113.27984799 0 545.09940868 0 30852
0.17050000 0.17049200 8664.79172705 0 107.73792797 0 2172.82195009 0 37.69572985 0 411.26268244 0 31257
0.17150000 0.17149500 8649.22403836 0 0.48979536 0 2104.40605503 0 -53.03211767 0 440.06622822 0 32608
0.17250000 0.17250900 8564.01142656 0 128.82871373 0 2194.13617536 0 43.62839221 0 25.68103946 0 32361
0.17350000 0.17350400 8401.11538382 0 171.07184738 0 1997.48061426 0 -94.81918226 0 133.65846182 0 32508
0.17450000 0.17449800 8346.19665272 0 249.25796185 0 2189.61866684 0 22.57469873 0 105.33545493 0 32791
0.17550000 0.17549800 8165.60703493 0 166.04944084 0 2116.04306842 0 -72.10187199 0 222.39871631 0 33633
0.17650000 0.17650100 8001.76984459 0 96.06681182 0 2136.40507376 0 337.78119878 0 232.37598820 0 33984
0.17750000 0.17750300 8055.54812623 0 66.25800967 0 2042.41210837 0 94.88140873 0 288.75073002 0 34069
0.17850000 0.17849800 8047.93036676 0 66.65705626 0 2083.83367552 0 144.00554936 0 300.42206761 0 34536
