### header ###
fiducial parameters:
Omega_m = 0.31
Omega_nu = 0
Omega_de = 0.69
Omega_k = 0
H_0 = 100
w_de = -1
zeff = 0
beta = 0
fgrowth = 0
b_1 = 2
gamma = 0.55
Lx = 3500 Ly = 3500 Lz = 3500
nx = 700 ny = 700 nz = 700
xoffset = -685.467585 yoffset = -31.7331281 zoffset = 572.489161
bins = 400 dk = 0.001
kx_ny = 0.628318531 ky_ny = 0.628318531 kz_ny = 0.628318531
############################
A(data) = 8.0815009 (not used)
A(ran) = 8.07470206 (used)
Ngal = 479872
weighted Ngal = 0
Nran = 23820508
weighted Nran = 0
SN(data) = 3496.18002
SN(ran) = 70.3335834
SN(data+ran) = 3566.5136
############################
13 columns: k_central k_mean P_0(k) sigma^{lin}_{P_0(k)} P^img_1(k) sigma^{lin}_{P_1(k)} P_2(k) sigma^{lin}_{P_2(k)} P^img_3(k) sigma^{lin}_{P_3(k)} P_4(k) sigma^{lin}_{P_4(k)} N_modes
### header ###
0.00050000 0 0 0 0 0 0 0 0 0 0 0 0
0.00150000 0.00179520 25610.39802878 0 -9810.24587419 0 24553.21245509 0 3048.63177092 0 -50141.46583423 0 3
0.00250000 0.00253879 42450.18612221 0 -5353.74585794 0 24383.91660862 0 -1240.44362176 0 9663.60400429 0 6
0.00350000 0.00331552 41664.49395308 0 6829.13314002 0 28843.29542933 0 -10592.02951266 0 56564.18929178 0 7
0.00450000 0.00420575 41520.22156069 0 8467.81506853 0 36402.26085977 0 -4901.05385773 0 7739.35574639 0 24
0.00550000 0.00557378 44084.01837245 0 5622.09472224 0 46952.19339347 0 23633.32370916 0 4413.12971994 0 45
0.00650000 0.00659388 55502.02117193 0 -5297.86383458 0 42095.09666527 0 5064.47029972 0 -17489.51211379 0 40
0.00750000 0.00754703 64169.43703997 0 -5578.82407685 0 37712.44905556 0 5503.86443783 0 -21067.75532543 0 57
0.00850000 0.00846663 76183.35236119 0 -13224.56331689 0 48057.32213362 0 8036.41514895 0 -1693.47886404 0 75
0.00950000 0.00948925 78531.01739249 0 1285.89551514 0 37175.88419485 0 -3367.92440171 0 -17046.06550480 0 112
0.01050000 0.01054430 93985.87909760 0 -989.83262181 0 42487.27841035 0 17667.22292713 0 -3334.00987079 0 105
0.01150000 0.01145670 95569.99660941 0 -10679.99913335 0 57633.33297627 0 12820.64490751 0 -10834.43591992 0 144
0.01250000 0.01249090 94338.53264308 0 5428.47297814 0 60324.57224669 0 9888.28361951 0 -16928.14524548 0 169
0.01350000 0.01339930 103990.16746424 0 17750.59753301 0 64237.75328410 0 -8003.82929701 0 -21047.60369426 0 180
0.01450000 0.01448870 86098.72995954 0 7509.11782411 0 77911.07792589 0 -8443.78812367 0 7631.25663918 0 267
0.01550000 0.01550050 91993.96786273 0 -1776.69845737 0 98206.31714873 0 21216.56737099 0 22077.32990240 0 238
0.01650000 0.01653350 86932.58674163 0 145.63761004 0 84831.17021430 0 34805.07800468 0 -916.16512310 0 315
0.01750000 0.01747870 92476.05688533 0 5392.51006713 0 89732.99913476 0 32962.97532460 0 14329.58133380 0 297
0.01850000 0.01844180 89137.41878277 0 1001.80291217 0 61870.82240762 0 39369.86535766 0 7175.56403895 0 388
0.01950000 0.01947590 81550.44037053 0 -407.77822182 0 41095.81935039 0 38793.66157410 0 12218.19971413 0 399
0.02050000 0.02045430 81551.21543327 0 7348.03764265 0 36991.86215636 0 14268.24065430 0 6253.61584060 0 462
0.02150000 0.02154770 69491.79285704 0 8292.67303455 0 22108.55385838 0 7825.89703717 0 11942.60954939 0 571
0.02250000 0.02255340 65216.10390508 0 -1186.56568919 0 23272.80881306 0 2759.16798318 0 16669.38501447 0 510
0.02350000 0.02348930 66781.95208093 0 -732.02571797 0 18643.46980639 0 -2914.82272548 0 8848.48159580 0 555
0.02450000 0.02439640 65935.58357179 0 409.18329984 0 19935.94228247 0 -2459.87197101 0 5297.12198881 0 592
0.02550000 0.02547300 65112.02405178 0 2870.90988525 0 23309.45820821 0 -5813.94489437 0 6000.96753289 0 837
0.02650000 0.02652900 64278.83160918 0 2943.98722906 0 24926.68197123 0 7583.99995686 0 12448.39334711 0 723
0.02750000 0.02749970 63801.06079325 0 -2072.73920605 0 22166.12994744 0 7277.54015053 0 3518.84018899 0 826
0.02850000 0.02848090 68003.34023167 0 -135.41231807 0 21966.16376122 0 11731.01742211 0 11435.38634945 0 831
0.02950000 0.02946900 62865.22789958 0 1993.53886662 0 20641.58154316 0 1717.29543472 0 8420.42551831 0 996
0.03050000 0.03053250 61535.99530510 0 6487.87301679 0 20315.50157725 0 -4157.40330593 0 10598.61754593 0 1041
0.03150000 0.03150510 58814.86075767 0 2892.37912308 0 24659.06388036 0 -5590.53859651 0 12046.91084918 0 1036
0.03250000 0.03246190 53736.31753310 0 2249.67495665 0 21923.09241767 0 -3089.37792625 0 8125.86846116 0 1059
0.03350000 0.03345080 55651.60828023 0 768.92202596 0 27572.85687963 0 -2471.45362277 0 8338.99964159 0 1302
0.03450000 0.03451200 53652.16786448 0 2363.12199674 0 27775.48042382 0 4692.25195630 0 540.26080274 0 1339
0.03550000 0.03553350 51887.35001164 0 1902.46899499 0 27997.59125968 0 4519.00328986 0 9380.54002031 0 1365
0.03650000 0.03647120 49800.43822982 0 -273.27494162 0 23254.76092361 0 7735.45828805 0 2229.97729080 0 1308
0.03750000 0.03744890 49819.81479825 0 1263.65121458 0 24706.89632358 0 4273.85094605 0 3156.03332166 0 1579
0.03850000 0.03847530 48971.56399389 0 3328.83909510 0 25746.91979379 0 4044.08913374 0 4855.21443298 0 1662
0.03950000 0.03950240 44040.06124292 0 2661.88653733 0 21908.03405592 0 5411.32194699 0 12575.28218953 0 1683
0.04050000 0.04050350 43523.20512038 0 1252.66746836 0 19097.98874019 0 4970.45518969 0 10085.28242269 0 1822
0.04150000 0.04152450 42941.79734416 0 971.21561486 0 19942.47495411 0 1012.49877795 0 10742.11487558 0 1887
0.04250000 0.04250150 41967.43276012 0 1267.75904709 0 19366.38189380 0 1464.53640376 0 7538.81379927 0 1920
0.04350000 0.04349210 41107.88818444 0 686.55389440 0 21509.20891595 0 -2333.37065996 0 8060.14314103 0 2005
0.04450000 0.04448520 41092.16548320 0 1471.48982375 0 23438.67223885 0 -2399.09598008 0 9982.07728305 0 2151
0.04550000 0.04548030 40144.81737172 0 -304.12686749 0 22566.28376639 0 447.53561854 0 5815.91576819 0 2274
0.04650000 0.04648670 42193.30818642 0 -776.04042359 0 22298.99784526 0 3692.76426724 0 4765.40680637 0 2311
0.04750000 0.04749250 42738.17729074 0 -1279.60643464 0 21873.26695599 0 2398.06625387 0 2797.16820196 0 2568
0.04850000 0.04851840 42826.86661254 0 116.22176469 0 20107.78476365 0 2797.01318941 0 -217.87567162 0 2493
0.04950000 0.04949480 41292.90673216 0 2375.23512010 0 16782.54417412 0 1424.48780489 0 3416.10008700 0 2644
0.05050000 0.05050630 40031.32604233 0 1885.38439779 0 15838.18559034 0 3755.24539619 0 753.95445727 0 2829
0.05150000 0.05149060 37629.40661942 0 955.66564189 0 15154.91242578 0 3146.34503744 0 2353.07939813 0 2784
0.05250000 0.05249300 37205.89019510 0 696.41379965 0 12758.75061177 0 3412.95554675 0 740.06201132 0 3055
0.05350000 0.05348950 36380.89127287 0 -763.72578392 0 10843.96919159 0 3094.53762961 0 2515.02322093 0 3009
0.05450000 0.05448610 36358.74662323 0 121.04265492 0 9280.71193974 0 854.83440869 0 334.70419971 0 3336
0.05550000 0.05550870 36905.83019252 0 847.98396133 0 9118.70168299 0 -1264.33769872 0 -458.59908550 0 3349
0.05650000 0.05647670 36387.97756075 0 -391.42993422 0 9901.19395025 0 -2669.31606728 0 -363.37487760 0 3324
0.05750000 0.05747970 36168.41335960 0 692.80532900 0 10406.06981733 0 -521.21418958 0 1719.11129599 0 3639
0.05850000 0.05849280 36283.78698421 0 950.89679159 0 12423.70206276 0 -809.52645554 0 -3120.42472504 0 3846
0.05950000 0.05951020 34892.88154049 0 1104.52972738 0 13425.08311936 0 -2670.55616766 0 -2477.28873795 0 3787
0.06050000 0.06049470 34275.93160159 0 2484.84006348 0 14282.41323007 0 -2138.06592248 0 -3644.06818269 0 3930
0.06150000 0.06148310 33742.68843833 0 716.31630351 0 16098.71739332 0 -1496.86759223 0 -3553.24190220 0 4083
0.06250000 0.06249100 33172.79587991 0 25.81756123 0 15377.68760113 0 193.69482145 0 -1893.47826724 0 4303
0.06350000 0.06350600 32848.04459298 0 135.89396420 0 15426.18438383 0 2033.86427361 0 -3631.13570730 0 4470
0.06450000 0.06451750 33054.32200435 0 -127.16232884 0 15357.09307697 0 3598.48342141 0 -4430.50219758 0 4479
0.06550000 0.06550280 32628.92328482 0 1460.82717495 0 13537.46721627 0 2401.18864947 0 -3751.62474598 0 4636
0.06650000 0.06648880 30621.28934870 0 1370.03411144 0 11849.26985117 0 2602.58316560 0 -1986.97297801 0 4653
0.06750000 0.06749660 29362.14457033 0 693.42537918 0 11845.39453748 0 2914.39090482 0 408.28533429 0 5220
0.06850000 0.06852730 28935.19572532 0 505.17039092 0 11021.34783518 0 587.31818322 0 -85.16400430 0 5029
0.06950000 0.06949320 28403.83485727 0 741.03305421 0 10036.35381931 0 2757.14174774 0 -1155.20886530 0 5040
0.07050000 0.07048030 27805.48642407 0 753.66657683 0 10156.24495245 0 -1025.05036536 0 770.28835084 0 5475
0.07150000 0.07148790 27527.01745488 0 88.46433216 0 11164.55728439 0 -82.73927589 0 -1297.47716690 0 5509
0.07250000 0.07249820 28534.70973663 0 -374.96538722 0 11418.55641573 0 115.13667686 0 665.64159452 0 5916
0.07350000 0.07351270 27304.24227953 0 42.75124263 0 10521.12234452 0 782.71039206 0 44.29140302 0 5721
0.07450000 0.07449140 28150.50006542 0 931.25338013 0 10026.93127089 0 2351.19710291 0 1670.50379004 0 6028
0.07550000 0.07549160 27140.70404196 0 118.73518243 0 8691.67533171 0 2865.13013170 0 1877.00264791 0 6183
0.07650000 0.07648840 27228.28613128 0 -311.05482113 0 8496.24879866 0 1226.71393898 0 448.77571892 0 6330
0.07750000 0.07749960 26481.78999200 0 903.63235863 0 8262.72239591 0 158.11722734 0 336.82897884 0 6583
0.07850000 0.07848650 25700.52675280 0 1301.33033594 0 8927.63764592 0 -797.95144717 0 567.41235766 0 6549
0.07950000 0.07947320 24483.23536224 0 991.37721112 0 7584.11068010 0 -1310.85253528 0 1283.49282065 0 6828
0.08050000 0.08048110 23981.65904795 0 439.65987390 0 8694.60949779 0 120.98840053 0 1134.21573745 0 7147
0.08150000 0.08149960 23698.20753260 0 200.76450084 0 7769.27316805 0 1371.73924946 0 -1320.38580695 0 7386
0.08250000 0.08250610 23118.34988184 0 146.02735587 0 8356.12852808 0 287.17513819 0 -970.99527560 0 7227
0.08350000 0.08350160 23106.94538728 0 514.88303425 0 7328.22925355 0 146.24105174 0 -1358.76248477 0 7798
0.08450000 0.08449610 22626.84938314 0 949.40867113 0 8209.56416446 0 -429.36150458 0 -1214.01398242 0 7371
0.08550000 0.08548940 21972.69643286 0 623.76052589 0 8232.04098384 0 -590.29553136 0 -866.89549212 0 8256
0.08650000 0.08650700 21532.68224457 0 558.01527558 0 8064.35062446 0 -75.96356671 0 -917.32328827 0 8037
0.08750000 0.08749060 21465.03033992 0 180.83099447 0 8356.56034875 0 174.53416335 0 -1544.98791589 0 8155
0.08850000 0.08849210 21273.47912056 0 -45.74198829 0 7493.66085866 0 707.99102248 0 -2094.29702247 0 8718
0.08950000 0.08949900 21476.65628098 0 94.33786830 0 7925.28222474 0 37.08143726 0 -2260.73620915 0 8571
0.09050000 0.09049190 20802.90531577 0 916.00457439 0 7811.80196768 0 61.57939882 0 -3001.06506350 0 8932
0.09150000 0.09150830 20095.38375986 0 830.99790782 0 7211.70410715 0 13.91436915 0 -2192.12101225 0 9285
0.09250000 0.09250820 19755.46338793 0 404.67132747 0 7789.50230549 0 107.21265688 0 -1818.44112194 0 9204
0.09350000 0.09350330 19286.66115510 0 256.90893830 0 7084.59381824 0 579.73142625 0 -1815.09727985 0 9349
0.09450000 0.09448040 19361.95296387 0 -159.73046507 0 7683.23013188 0 1433.84391937 0 -1953.50134008 0 9564
0.09550000 0.09549270 19238.82871189 0 69.23325407 0 7499.37417827 0 593.97375766 0 -626.71240769 0 10155
0.09650000 0.09649430 19159.88303593 0 884.35101220 0 7633.07250045 0 369.96955426 0 -509.86173495 0 9913
0.09750000 0.09749140 18155.40172838 0 632.85533350 0 7603.13293414 0 -96.29689473 0 774.19577427 0 10476
0.09850000 0.09850240 18003.82160162 0 472.79823485 0 7846.41405506 0 -121.73910415 0 805.56920665 0 10575
0.09950000 0.09950330 17287.44218585 0 585.05500002 0 7795.72495204 0 699.09108779 0 8.44702124 0 10882
0.10050000 0.10051200 17056.25204364 0 653.48971803 0 7944.27126181 0 50.30777215 0 862.11667673 0 10875
0.10150000 0.10150300 16337.43671641 0 -1.80507683 0 6806.01412580 0 794.69175474 0 155.58830835 0 11118
0.10250000 0.10250800 16599.85081461 0 151.36532367 0 7277.82803097 0 544.63879997 0 -389.90084616 0 11575
0.10350000 0.10349800 15938.94374619 0 239.55528361 0 5869.92656866 0 495.20751305 0 -354.24906748 0 11364
0.10450000 0.10450100 15955.88440316 0 398.41767841 0 6052.55349422 0 613.60498957 0 83.94361266 0 12093
0.10550000 0.10551000 15753.03941248 0 -35.09628015 0 5326.69616840 0 741.38072521 0 -414.02633471 0 12067
0.10650000 0.10649700 15568.24231126 0 2.60475334 0 5873.76866537 0 159.37172174 0 694.24473122 0 12054
0.10750000 0.10749900 15792.23544234 0 227.69350204 0 5437.10939150 0 381.81140565 0 -1.75437665 0 12807
0.10850000 0.10850100 15346.35292189 0 236.14722203 0 5411.90878021 0 -149.27929767 0 1443.24432314 0 12736
0.10950000 0.10950300 15558.49866542 0 89.91480671 0 5576.44352701 0 145.10060228 0 722.00637124 0 12933
0.11050000 0.11050200 15435.26369019 0 -35.10945621 0 5792.79675397 0 302.10284651 0 906.66728287 0 13428
0.11150000 0.11150900 15413.00831730 0 144.03323017 0 5894.37426186 0 151.82925408 0 -117.17398463 0 13453
0.11250000 0.11250000 15448.55047997 0 312.80646292 0 5573.36542071 0 -369.73703544 0 558.86230843 0 13668
0.11350000 0.11349100 15076.52036606 0 274.67005454 0 5720.39482198 0 165.29873722 0 143.63684094 0 13791
0.11450000 0.11448600 14888.73373714 0 32.37038450 0 5049.95448189 0 84.04536732 0 326.98014592 0 14205
0.11550000 0.11549300 14993.92082291 0 -117.69770559 0 5249.06809910 0 856.74217026 0 -318.85305950 0 14776
0.11650000 0.11649800 14989.27044649 0 132.82028683 0 4848.62639971 0 361.34199876 0 -258.14682422 0 14553
0.11750000 0.11747300 14832.04343407 0 286.80864424 0 4777.81888249 0 287.98341791 0 -521.18540154 0 14568
0.11850000 0.11849100 14554.57097411 0 82.99261068 0 4161.45577681 0 -57.73497692 0 -159.31857458 0 16015
0.11950000 0.11950300 14271.67307499 0 224.28101153 0 4653.85313382 0 11.18404458 0 -129.15313285 0 15270
0.12050000 0.12050700 14306.10800518 0 259.63383744 0 4851.19517907 0 55.39938072 0 -581.29040958 0 15999
0.12150000 0.12150000 14017.56322041 0 35.73482112 0 4568.76231759 0 115.55853243 0 -453.34748184 0 15670
0.12250000 0.12250700 14132.38322878 0 177.85696803 0 5037.64205669 0 -102.77951947 0 -400.96763482 0 16887
0.12350000 0.12352200 14211.66107448 0 145.59110627 0 4676.06421741 0 146.37613410 0 -103.94521383 0 16407
0.12450000 0.12449800 14060.30239421 0 -9.32791326 0 4810.77012115 0 77.88395073 0 161.34038109 0 16306
0.12550000 0.12549900 14026.75325001 0 343.92855352 0 5067.17194698 0 -321.10406314 0 135.71680700 0 17523
0.12650000 0.12650100 13804.75313739 0 316.70835018 0 4951.02325963 0 -21.58516506 0 197.94548695 0 17154
0.12750000 0.12750600 13429.62277254 0 380.99869701 0 5392.10039111 0 -48.80880082 0 427.30869556 0 18007
0.12850000 0.12850300 13143.84606897 0 283.81247315 0 4703.91111433 0 707.89580049 0 126.05177467 0 17496
0.12950000 0.12949900 13076.52633407 0 -190.93670534 0 4552.02096247 0 792.78177871 0 192.57762387 0 18405
0.13050000 0.13049000 13188.13536824 0 6.18888703 0 3990.08940560 0 956.74962249 0 -478.45176390 0 18100
0.13150000 0.13148800 13042.75574337 0 184.60222831 0 4264.45054228 0 -103.15918949 0 -407.12938358 0 19059
0.13250000 0.13249300 12786.54214707 0 448.20881589 0 4270.48495930 0 -0.31871908 0 509.46645295 0 18957
0.13350000 0.13349100 12461.12652065 0 361.92551028 0 4208.91176099 0 321.58349480 0 1042.19253865 0 19468
0.13450000 0.13450700 12213.21716796 0 78.99494780 0 4197.24153063 0 96.56218764 0 479.81476709 0 19953
0.13550000 0.13551000 12218.42116062 0 178.38622515 0 4513.32318723 0 -82.01979622 0 274.55600960 0 19956
0.13650000 0.13649900 11906.07087749 0 361.55126570 0 4723.01087464 0 -57.43336679 0 312.00482660 0 19723
0.13750000 0.13749600 11808.85586558 0 356.69383680 0 4463.38700229 0 -271.78128500 0 415.20443007 0 20946
0.13850000 0.13851100 11576.44776764 0 132.87675568 0 4374.29907680 0 -57.51297681 0 275.58905750 0 20955
0.13950000 0.13949800 11432.61826825 0 -27.44530370 0 4225.79705634 0 167.51541665 0 -287.56488403 0 20506
0.14050000 0.14048300 11397.29755207 0 173.99494113 0 4140.48479361 0 399.66885112 0 -572.33954220 0 21447
0.14150000 0.14148400 11196.99919610 0 196.88697269 0 3884.21583568 0 239.63943328 0 -361.74170969 0 21771
0.14250000 0.14249400 10929.51397314 0 138.94438968 0 3821.94508090 0 341.07521541 0 20.90122756 0 22470
0.14350000 0.14350900 10988.56268139 0 61.54241725 0 3726.67879816 0 785.35667769 0 517.72308557 0 22519
0.14450000 0.14449900 10847.39053996 0 53.61319328 0 3778.03224067 0 386.96668009 0 698.22523199 0 22218
0.14550000 0.14550500 10780.09294971 0 171.95541890 0 3580.87842495 0 354.28671338 0 892.09721064 0 23559
0.14650000 0.14650700 10637.73606951 0 240.00149830 0 3917.08956807 0 39.69162712 0 1119.06879710 0 23044
0.14750000 0.14750500 10561.97922311 0 60.04355664 0 3562.87482479 0 -88.98838529 0 1276.91585971 0 23649
0.14850000 0.14849900 10486.13379810 0 91.90372842 0 3889.60805787 0 -59.78468569 0 1255.65699606 0 23640
0.14950000 0.14949500 10390.69035816 0 85.29842232 0 3829.30817690 0 154.60619314 0 1077.33277592 0 24457
0.15050000 0.15050000 10390.16995889 0 257.95859469 0 3791.75085112 0 213.91952996 0 770.01707889 0 24591
0.15150000 0.15149900 10037.92608944 0 298.59181231 0 3475.08236131 0 -153.49010280 0 650.11819512 0 25020
0.15250000 0.15250500 9930.81241914 0 290.93751417 0 3652.15097981 0 -144.18049209 0 465.86806674 0 25297
0.15350000 0.15350100 9674.00091730 0 96.48191328 0 3290.60635750 0 -12.55081235 0 315.31545172 0 25452
0.15450000 0.15450400 9654.34754075 0 21.75357512 0 3425.48941844 0 122.01259057 0 -223.00437247 0 26061
0.15550000 0.15549900 9620.05655078 0 -36.82057329 0 3088.65822514 0 145.24897144 0 -216.38090777 0 26128
0.15650000 0.15649500 9638.84628600 0 24.42100890 0 2987.94435859 0 149.01245464 0 -569.17396453 0 26331
0.15750000 0.15749700 9524.50238760 0 185.67402935 0 2864.13362246 0 303.33630350 0 -333.63350590 0 27345
0.15850000 0.15849900 9352.64883409 0 217.56564652 0 2822.05878815 0 295.71522233 0 -153.42477608 0 26980
0.15950000 0.15949700 9178.81333444 0 67.63751062 0 2699.25563359 0 236.08743148 0 144.07198331 0 27777
0.16050000 0.16050000 9242.75601026 0 2.76041916 0 2798.14256654 0 349.27537917 0 192.58537450 0 28224
0.16150000 0.16150500 9118.21450070 0 136.55276752 0 2799.10585880 0 74.49482283 0 420.55900635 0 28075
0.16250000 0.16249700 9133.59395988 0 203.04097083 0 3021.10597142 0 -175.39448299 0 817.24718763 0 28590
0.16350000 0.16349900 8932.74198767 0 153.09482080 0 2775.92041063 0 -162.41550383 0 1086.66674575 0 29163
0.16450000 0.16449100 8902.66955346 0 6.32342685 0 2685.88026521 0 354.29778571 0 826.44828956 0 28996
0.16550000 0.16550500 8911.72671516 0 28.18371704 0 2601.59772869 0 216.51931183 0 483.30697833 0 30777
0.16650000 0.16650700 8849.65526223 0 151.40296957 0 2584.80101194 0 94.11022131 0 479.46931055 0 29211
0.16750000 0.16749900 8731.77929221 0 99.96327365 0 2385.55452683 0 94.12915498 0 156.60474777 0 30922
0.16850000 0.16850800 8655.63491443 0 107.94066224 0 2255.32184231 0 45.37505145 0 315.80817017 0 30867
0.16950000 0.16949900 8541.56782415 0 85.11130003 0 2228.73719042 0 116.35573982 0 295.49709753 0 30852
0.17050000 0.17049200 8530.40692073 0 173.72145471 0 2597.67812570 0 59.53611200 0 205.87880768 0 31257
0.17150000 0.17149500 8309.86835499 0 238.24653482 0 2190.00619820 0 88.73505050 0 564.50033623 0 32608
0.17250000 0.17250900 8214.88995270 0 145.24343527 0 2275.78349857 0 266.09564620 0 516.60035183 0 32361
0.17350000 0.17350400 8077.22773823 0 -45.70633540 0 2306.47598297 0 178.06069880 0 732.03236136 0 32508
0.17450000 0.17449800 8122.45818511 0 56.67435892 0 2303.63039549 0 135.20637283 0 186.65503733 0 32791
0.17550000 0.17549800 8011.95638342 0 203.78613829 0 2174.81496855 0 -330.06046668 0 345.52296829 0 33633
0.17650000 0.17650100 7837.88836495 0 238.20667445 0 2244.42667469 0 -252.28402823 0 180.11018613 0 33984
0.17750000 0.17750300 7692.30943823 0 172.46253138 0 2220.34436821 0 -228.78191157 0 362.95523649 0 34069
0.17850000 0.17849800 7707.88819925 0 -126.19017873 0 2294.79468029 0 145.77269240 0 54.79095647 0 34536
