### header ###
fiducial parameters:
Omega_m = 0.31
Omega_nu = 0
Omega_de = 0.69
Omega_k = 0
H_0 = 100
w_de = -1
zeff = 0
beta = 0
fgrowth = 0
b_1 = 2
gamma = 0.55
Lx = 3500 Ly = 3500 Lz = 3500
nx = 700 ny = 700 nz = 700
xoffset = -685.467585 yoffset = -31.7331281 zoffset = 572.489161
bins = 400 dk = 0.001
kx_ny = 0.628318531 ky_ny = 0.628318531 kz_ny = 0.628318531
############################
A(data) = 8.05740454 (not used)
A(ran) = 8.05216498 (used)
Ngal = 478227
weighted Ngal = 0
Nran = 23820508
weighted Nran = 0
SN(data) = 3494.9398
SN(ran) = 70.1372772
SN(data+ran) = 3565.07708
############################
13 columns: k_central k_mean P_0(k) sigma^{lin}_{P_0(k)} P^img_1(k) sigma^{lin}_{P_1(k)} P_2(k) sigma^{lin}_{P_2(k)} P^img_3(k) sigma^{lin}_{P_3(k)} P_4(k) sigma^{lin}_{P_4(k)} N_modes
### header ###
0.00050000 0 0 0 0 0 0 0 0 0 0 0 0
0.00150000 0.00179520 7349.55455115 0 -11339.05712353 0 -17822.67836758 0 25011.49597934 0 18022.31238406 0 3
0.00250000 0.00253879 24357.12158255 0 -25851.44254008 0 -16733.82594492 0 -12966.24597888 0 -23102.84862710 0 6
0.00350000 0.00331552 41076.11061221 0 -33952.06610065 0 -29263.15798645 0 -6911.66624922 0 35950.28856067 0 7
0.00450000 0.00420575 53672.09804915 0 -17746.16860309 0 -24202.66265133 0 -2386.09707074 0 7329.34755835 0 24
0.00550000 0.00557378 70713.73462403 0 -16149.65008748 0 -36676.74379202 0 5929.86106290 0 18134.36431123 0 45
0.00650000 0.00659388 73320.04916309 0 -17357.86217170 0 -43710.10596332 0 10546.84335508 0 -12037.16720334 0 40
0.00750000 0.00754703 91042.85516081 0 -11931.31577808 0 -46130.40544543 0 13650.18348292 0 6025.65881723 0 57
0.00850000 0.00846663 97774.82865055 0 -14195.82764999 0 -36676.85451527 0 -26365.86275115 0 8355.85171996 0 75
0.00950000 0.00948925 105149.88276575 0 -2266.65990292 0 -33369.32964544 0 -28610.66588489 0 9442.43431604 0 112
0.01050000 0.01054430 92844.10096231 0 7645.89425259 0 -28293.66522533 0 -23633.65587890 0 12435.32800382 0 105
0.01150000 0.01145670 90869.24110765 0 11119.38219913 0 -26669.02300469 0 -21852.56170858 0 8027.53514444 0 144
0.01250000 0.01249090 79733.02897480 0 12419.49457933 0 -9210.70162991 0 -30867.75929917 0 2525.04367489 0 169
0.01350000 0.01339930 73531.08767413 0 8451.29515990 0 -11532.04774512 0 -11074.20711387 0 -19096.77078446 0 180
0.01450000 0.01448870 65273.56927088 0 2262.30847927 0 13252.13340569 0 -13206.29398094 0 2569.60978229 0 267
0.01550000 0.01550050 76342.79383858 0 -977.97748363 0 37198.91463047 0 -9077.63443024 0 14310.64765836 0 238
0.01650000 0.01653350 73482.70161468 0 700.13742249 0 41598.50289716 0 -1738.68716627 0 17915.68589606 0 315
0.01750000 0.01747870 78873.59512238 0 3509.48407452 0 58447.48102019 0 3661.77283007 0 39329.56209532 0 297
0.01850000 0.01844180 77367.64822379 0 3092.93214252 0 53176.39006702 0 24180.51800170 0 35575.49036556 0 388
0.01950000 0.01947590 81723.27936095 0 3102.77543928 0 69567.63828205 0 20500.63084822 0 40183.57050858 0 399
0.02050000 0.02045430 76775.94318549 0 2009.80411178 0 57577.30701269 0 19300.83373087 0 36818.02665671 0 462
0.02150000 0.02154770 71152.19868685 0 4636.43636688 0 50723.42722670 0 12428.79533218 0 19278.24618824 0 571
0.02250000 0.02255340 68190.13035136 0 5890.63181607 0 40889.65266227 0 1850.72802111 0 19721.24990424 0 510
0.02350000 0.02348930 67386.05812303 0 -2056.24144207 0 31940.22468110 0 7561.99924744 0 1992.38734484 0 555
0.02450000 0.02439640 63054.56465398 0 -2572.73217789 0 28600.47934605 0 9145.39705813 0 724.19869155 0 592
0.02550000 0.02547300 68707.65081339 0 444.20506324 0 21557.04135917 0 9798.88566893 0 -9854.02584653 0 837
0.02650000 0.02652900 66332.52641654 0 2012.07393837 0 18462.32657236 0 9364.19726887 0 -14249.86059510 0 723
0.02750000 0.02749970 62708.77594989 0 1515.03727726 0 7074.68408752 0 6170.34088564 0 -777.87400058 0 826
0.02850000 0.02848090 60491.32145846 0 1523.17543600 0 4307.18971608 0 5574.79375062 0 1526.49713345 0 831
0.02950000 0.02946900 60967.65287216 0 -1346.04038355 0 1285.98409374 0 6075.52856821 0 -3718.89495381 0 996
0.03050000 0.03053250 61568.54794007 0 852.40292616 0 -2093.61053833 0 -502.60161156 0 -1230.50067407 0 1041
0.03150000 0.03150510 56873.77149371 0 4614.61281467 0 -102.74752045 0 -2490.38729821 0 3791.89479134 0 1036
0.03250000 0.03246190 54356.47844619 0 3780.24670563 0 2523.10601805 0 -2374.44898503 0 166.62963066 0 1059
0.03350000 0.03345080 51971.16751051 0 2366.47691116 0 4899.24906878 0 -3700.97993226 0 4152.52041069 0 1302
0.03450000 0.03451200 50920.73605497 0 1748.30901654 0 3952.26634402 0 -727.39416450 0 -4412.85291182 0 1339
0.03550000 0.03553350 48828.84172698 0 560.87082815 0 9129.59685062 0 1627.78676089 0 -701.95881992 0 1365
0.03650000 0.03647120 49349.01954696 0 391.57941061 0 12343.09553808 0 -386.84599175 0 1015.66546285 0 1308
0.03750000 0.03744890 48828.28811074 0 673.26599739 0 14355.49057387 0 -51.51011591 0 -1103.18443991 0 1579
0.03850000 0.03847530 46869.04023408 0 1431.54087580 0 14345.96837453 0 -420.27444761 0 2988.50904715 0 1662
0.03950000 0.03950240 47026.04580001 0 2216.74586264 0 16361.13149152 0 -973.60612979 0 5040.63158439 0 1683
0.04050000 0.04050350 47047.52611016 0 1382.53476616 0 20226.14791597 0 1278.53241913 0 8323.87484589 0 1822
0.04150000 0.04152450 47047.96900315 0 -186.62182035 0 18493.43980510 0 687.31013419 0 6437.71538536 0 1887
0.04250000 0.04250150 44436.67191792 0 1393.13098101 0 19060.01066607 0 -165.08171965 0 9104.27444376 0 1920
0.04350000 0.04349210 45999.19839633 0 1789.79701763 0 23359.17294665 0 -308.62333860 0 7104.64579848 0 2005
0.04450000 0.04448520 45029.81635846 0 -188.73884886 0 24913.39518144 0 2054.08233873 0 7594.88405215 0 2151
0.04550000 0.04548030 42112.59093849 0 1210.67014032 0 21884.11783431 0 4098.23280210 0 3515.87280594 0 2274
0.04650000 0.04648670 43522.31933440 0 2572.44429744 0 22579.23838642 0 3196.83483861 0 8118.81539025 0 2311
0.04750000 0.04749250 40774.83265390 0 930.51928499 0 19416.53952523 0 4185.10626263 0 6158.01738811 0 2568
0.04850000 0.04851840 40702.75181933 0 294.97116210 0 15490.51459103 0 2777.89128445 0 3616.66417876 0 2493
0.04950000 0.04949480 39921.26713363 0 1155.69604760 0 13906.17563273 0 -731.97699974 0 5895.84688106 0 2644
0.05050000 0.05050630 38440.56513563 0 1414.52271256 0 15149.26554012 0 403.09905735 0 7211.83697505 0 2829
0.05150000 0.05149060 38144.60189323 0 -655.92120056 0 15318.89355634 0 1303.10190791 0 3255.81711292 0 2784
0.05250000 0.05249300 39187.61489115 0 -680.25817051 0 14306.77234467 0 1077.63283593 0 -533.62848017 0 3055
0.05350000 0.05348950 39118.30213778 0 110.02779546 0 13074.97620859 0 105.49035675 0 -2983.17218659 0 3009
0.05450000 0.05448610 39141.88618964 0 1261.32602637 0 14855.73820918 0 -973.70024455 0 -4414.59126682 0 3336
0.05550000 0.05550870 37610.58366723 0 2216.81229659 0 11949.69583728 0 -1467.64772704 0 -2867.78748965 0 3349
0.05650000 0.05647670 36240.27274767 0 1493.39088224 0 12882.76064974 0 594.80086033 0 -4877.69125236 0 3324
0.05750000 0.05747970 34218.57695903 0 828.71811614 0 11806.08778438 0 2723.76976074 0 -4865.10201904 0 3639
0.05850000 0.05849280 34121.91556337 0 1218.47612932 0 11173.41514424 0 2740.73256236 0 -5026.02718795 0 3846
0.05950000 0.05951020 32478.33966729 0 1102.87662928 0 10502.03365654 0 2095.92465422 0 -4122.61406135 0 3787
0.06050000 0.06049470 30814.50141679 0 768.54888861 0 9007.67948204 0 1982.25616763 0 116.17858262 0 3930
0.06150000 0.06148310 31464.44688364 0 -39.22127476 0 10286.06796095 0 2823.76392617 0 -244.86335613 0 4083
0.06250000 0.06249100 31248.20437994 0 -350.74135498 0 10236.06534207 0 975.83277431 0 1675.06558786 0 4303
0.06350000 0.06350600 31882.31642230 0 594.01361803 0 10073.30216723 0 700.83276449 0 1726.62940454 0 4470
0.06450000 0.06451750 31276.21736173 0 451.40539607 0 9408.63050837 0 -2114.34900272 0 3908.50851633 0 4479
0.06550000 0.06550280 30646.64497254 0 1125.66790269 0 10979.07369902 0 405.63461973 0 1788.64549585 0 4636
0.06650000 0.06648880 29466.66731662 0 752.28585792 0 10258.22106403 0 -978.72154386 0 3427.28313506 0 4653
0.06750000 0.06749660 30122.92400862 0 371.48314106 0 11991.65994834 0 1195.47891067 0 3281.92565485 0 5220
0.06850000 0.06852730 30001.68205185 0 -381.06734542 0 11527.28664544 0 1217.63463263 0 3839.47257109 0 5029
0.06950000 0.06949320 30031.24515912 0 345.14540201 0 12852.97609598 0 -100.38800803 0 3103.25154925 0 5040
0.07050000 0.07048030 29041.71149008 0 1298.14150639 0 11349.13293911 0 868.50430091 0 2190.89198419 0 5475
0.07150000 0.07148790 28483.88776571 0 856.53954672 0 12844.33968262 0 690.28748233 0 4807.41520673 0 5509
0.07250000 0.07249820 27869.04156853 0 375.63969180 0 11414.68110204 0 1420.08101962 0 4591.99205506 0 5916
0.07350000 0.07351270 27234.37590993 0 32.69646447 0 11559.72855716 0 2196.99283517 0 4460.17602810 0 5721
0.07450000 0.07449140 27692.65943417 0 8.88551852 0 9294.10945277 0 1669.92802915 0 2836.86248644 0 6028
0.07550000 0.07549160 26799.89788404 0 -67.03783351 0 9113.58626893 0 1426.86835473 0 3404.45200129 0 6183
0.07650000 0.07648840 27146.01875788 0 56.49044761 0 7380.03666137 0 627.04900636 0 1943.65804331 0 6330
0.07750000 0.07749960 26306.84725987 0 613.99141370 0 6602.42728936 0 179.47131299 0 1110.94171068 0 6583
0.07850000 0.07848650 26341.28219006 0 1161.91869414 0 6873.24528210 0 -67.84843841 0 592.82887928 0 6549
0.07950000 0.07947320 25614.38406571 0 193.38590359 0 6993.53501893 0 -904.14611451 0 -2272.78289855 0 6828
0.08050000 0.08048110 25144.58532366 0 718.22960124 0 7678.05935619 0 -1699.25861759 0 -1765.24967351 0 7147
0.08150000 0.08149960 24520.32765038 0 779.64778701 0 7147.73928668 0 -1379.22414103 0 -2853.99137293 0 7386
0.08250000 0.08250610 24491.20743611 0 264.62413424 0 8421.03449617 0 556.08426213 0 -2066.66049973 0 7227
0.08350000 0.08350160 23637.97408558 0 323.84114183 0 7962.76204425 0 1129.17782966 0 -2399.73817492 0 7798
0.08450000 0.08449610 23275.90906401 0 681.07087915 0 7569.28483717 0 818.02667930 0 -2846.94937434 0 7371
0.08550000 0.08548940 22993.23261139 0 822.31166900 0 7581.67476864 0 298.80440095 0 -3021.41599651 0 8256
0.08650000 0.08650700 21999.71290542 0 655.18599819 0 7389.18240167 0 -79.79591978 0 -1692.96953710 0 8037
0.08750000 0.08749060 21951.32684596 0 338.76109952 0 7804.39458237 0 30.01629752 0 -2457.74608464 0 8155
0.08850000 0.08849210 21751.36065973 0 -251.70937457 0 7507.81128978 0 -110.92697896 0 -2008.65259000 0 8718
0.08950000 0.08949900 21971.92137012 0 310.98506548 0 7973.53541630 0 -123.46417236 0 -2370.15292300 0 8571
0.09050000 0.09049190 21769.74071893 0 658.26631896 0 8698.81698122 0 -779.04434531 0 -3223.04303146 0 8932
0.09150000 0.09150830 20402.08715733 0 995.78510364 0 8363.91237243 0 464.58478430 0 -1720.98251889 0 9285
0.09250000 0.09250820 20276.52699389 0 885.65976099 0 8470.58314974 0 397.18422143 0 -1502.29303139 0 9204
0.09350000 0.09350330 19816.80406742 0 3.07145183 0 8673.73816551 0 817.29147693 0 -1027.09985269 0 9349
0.09450000 0.09448040 20029.06053419 0 20.07811093 0 9093.39034846 0 130.98006644 0 -1488.25332352 0 9564
0.09550000 0.09549270 19585.28175546 0 639.87629466 0 8927.93659869 0 -68.00522253 0 115.44448749 0 10155
0.09650000 0.09649430 19456.84278757 0 489.70678208 0 9315.74477547 0 -591.33743712 0 -136.70888730 0 9913
0.09750000 0.09749140 18843.76816236 0 533.13576172 0 9446.03282161 0 489.30817839 0 884.46394991 0 10476
0.09850000 0.09850240 18891.93277532 0 150.44410624 0 9581.09303975 0 435.28962729 0 25.88023058 0 10575
0.09950000 0.09950330 18248.07708711 0 381.72614875 0 9729.24074582 0 1748.67440326 0 1567.22114413 0 10882
0.10050000 0.10051200 18241.21224573 0 102.68319024 0 8896.96730618 0 1360.24617630 0 784.12432794 0 10875
0.10150000 0.10150300 17723.24889071 0 39.02153002 0 8184.17532365 0 1536.73903390 0 1864.28054669 0 11118
0.10250000 0.10250800 17780.93570302 0 264.60974021 0 7826.69424456 0 817.57382121 0 771.59377794 0 11575
0.10350000 0.10349800 17256.10750661 0 426.53474006 0 7213.47567913 0 655.27900572 0 1812.92710418 0 11364
0.10450000 0.10450100 16845.21353259 0 345.49085855 0 6404.64235112 0 109.20312871 0 468.67822278 0 12093
0.10550000 0.10551000 16457.34999419 0 407.14488484 0 6203.66858334 0 -55.97049124 0 413.95325737 0 12067
0.10650000 0.10649700 16282.29653881 0 314.33665821 0 6425.15936901 0 -389.41144941 0 -914.36254862 0 12054
0.10750000 0.10749900 15825.89530979 0 446.68637123 0 6442.94152267 0 -284.31737116 0 -974.71668397 0 12807
0.10850000 0.10850100 15604.33809017 0 262.25797842 0 6035.83428374 0 -156.77193987 0 -1492.27257743 0 12736
0.10950000 0.10950300 15413.45121029 0 300.66012259 0 6514.72340447 0 101.15830967 0 -1373.76548490 0 12933
0.11050000 0.11050200 15194.55134863 0 347.94337850 0 6066.89215486 0 572.99391660 0 -704.70807818 0 13428
0.11150000 0.11150900 15117.15579815 0 -66.10654027 0 5853.56167257 0 1044.79232051 0 -832.55135500 0 13453
0.11250000 0.11250000 14832.15415731 0 -9.65551013 0 5016.47177164 0 621.41097856 0 -347.35433082 0 13668
0.11350000 0.11349100 15014.73679357 0 226.40579066 0 4928.48000630 0 944.99967139 0 -808.63291892 0 13791
0.11450000 0.11448600 14460.56693640 0 338.27170277 0 4634.29940819 0 19.03509794 0 -704.76676150 0 14205
0.11550000 0.11549300 14451.48763005 0 441.33511664 0 4459.46739931 0 57.75612506 0 200.40907922 0 14776
0.11650000 0.11649800 13993.97916854 0 111.84708916 0 4776.49020352 0 -121.70035101 0 -76.03022211 0 14553
0.11750000 0.11747300 13919.24097602 0 322.08839281 0 4888.19888861 0 23.18777336 0 71.75187580 0 14568
0.11850000 0.11849100 13811.28580903 0 93.15910860 0 5345.59662687 0 256.14162619 0 254.37116145 0 16015
0.11950000 0.11950300 13855.02149207 0 -58.05208830 0 5094.94133762 0 521.42345652 0 1308.97024006 0 15270
0.12050000 0.12050700 13952.12578073 0 -119.77044480 0 5226.31447160 0 559.67723154 0 941.81305631 0 15999
0.12150000 0.12150000 13995.41857077 0 90.77567996 0 5444.20675170 0 159.47137267 0 1428.07523813 0 15670
0.12250000 0.12250700 13868.08683535 0 228.34234027 0 5180.78507194 0 283.05623336 0 1024.25426521 0 16887
0.12350000 0.12352200 13636.67524664 0 245.25531643 0 5309.40119704 0 -281.55150442 0 1964.81725604 0 16407
0.12450000 0.12449800 13848.48882043 0 -21.20438781 0 4981.29499569 0 273.92488708 0 795.92189003 0 16306
0.12550000 0.12549900 13668.67426537 0 -38.03155346 0 5068.13523924 0 -31.72353928 0 685.72457727 0 17523
0.12650000 0.12650100 13710.41692994 0 147.98494290 0 4812.36453593 0 162.98240687 0 27.82652384 0 17154
0.12750000 0.12750600 13588.95352668 0 72.24891246 0 4627.00274614 0 -313.18292196 0 -352.96467780 0 18007
0.12850000 0.12850300 13673.10319530 0 -103.10260991 0 4617.76842724 0 220.62050094 0 -491.50714209 0 17496
0.12950000 0.12949900 13447.89210849 0 174.58620328 0 4260.71916881 0 -107.95915302 0 -702.84682037 0 18405
0.13050000 0.13049000 13496.94250743 0 295.40187553 0 4304.41056255 0 581.07782095 0 -421.41378983 0 18100
0.13150000 0.13148800 13167.54084408 0 234.14866740 0 4107.19031288 0 277.97957243 0 -481.77235411 0 19059
0.13250000 0.13249300 12932.47538818 0 347.51820122 0 4325.61406458 0 370.21203817 0 28.83665203 0 18957
0.13350000 0.13349100 12742.91718728 0 107.07812813 0 4316.42403498 0 242.89469678 0 128.26181070 0 19468
0.13450000 0.13450700 12580.70762869 0 271.62295075 0 4572.91443940 0 102.73976982 0 873.43259269 0 19953
0.13550000 0.13551000 12327.70500658 0 278.69373738 0 4276.74082283 0 395.54883905 0 984.71388605 0 19956
0.13650000 0.13649900 12145.78670981 0 210.39963790 0 4166.08400859 0 783.26733000 0 1627.56531439 0 19723
0.13750000 0.13749600 12069.38766857 0 118.71414501 0 4116.94503104 0 387.35864039 0 1758.84986977 0 20946
0.13850000 0.13851100 11751.05833003 0 256.69967136 0 3888.42331911 0 619.16108216 0 1207.12699638 0 20955
0.13950000 0.13949800 11500.38089614 0 272.87080176 0 3611.38267982 0 -62.04775816 0 1432.59274666 0 20506
0.14050000 0.14048300 11383.01425306 0 336.11592112 0 3753.85028327 0 -219.60738322 0 1125.28037132 0 21447
0.14150000 0.14148400 11178.84058340 0 -13.85823247 0 3367.74724451 0 186.12467297 0 1439.72332384 0 21771
0.14250000 0.14249400 11241.95283487 0 -61.01205289 0 3273.33353079 0 101.79795787 0 378.20957839 0 22470
0.14350000 0.14350900 11355.11199451 0 -39.60869540 0 3009.20322224 0 106.93474153 0 234.97466284 0 22519
0.14450000 0.14449900 11090.37270810 0 237.62205570 0 3058.53042930 0 -139.20237485 0 -4.70515121 0 22218
0.14550000 0.14550500 11029.89566994 0 425.94679961 0 2848.02338985 0 -375.90210590 0 169.64573194 0 23559
0.14650000 0.14650700 10830.64918483 0 -43.37937562 0 2983.98046630 0 4.19525958 0 -333.31351571 0 23044
0.14750000 0.14750500 10495.36811700 0 301.77842740 0 3261.34220301 0 53.77042029 0 -412.31123160 0 23649
0.14850000 0.14849900 10490.27484758 0 345.36463405 0 3180.54744881 0 159.48576669 0 -346.98894410 0 23640
0.14950000 0.14949500 10116.66139122 0 201.45652115 0 3023.88512495 0 230.07737357 0 -63.07748437 0 24457
0.15050000 0.15050000 10069.69258934 0 14.53519441 0 2945.20518479 0 427.42163328 0 -94.76503860 0 24591
0.15150000 0.15149900 9954.35218171 0 133.54773857 0 3028.83445414 0 312.83967989 0 -201.66246639 0 25020
0.15250000 0.15250500 9852.68609522 0 256.47047424 0 2781.51193467 0 278.27188181 0 510.79070300 0 25297
0.15350000 0.15350100 9528.43306291 0 252.13565907 0 2610.02376788 0 252.06368896 0 540.78452370 0 25452
0.15450000 0.15450400 9466.23981440 0 161.61497475 0 2393.13906933 0 205.19564524 0 171.62989255 0 26061
0.15550000 0.15549900 9342.82768197 0 54.97453562 0 2543.51231269 0 -182.25378821 0 342.69288207 0 26128
0.15650000 0.15649500 9296.91075095 0 108.05548224 0 2700.32964910 0 -179.69165225 0 150.06432550 0 26331
0.15750000 0.15749700 9350.60045400 0 164.08410318 0 2873.47866461 0 -432.93232934 0 384.74667896 0 27345
0.15850000 0.15849900 9243.91860437 0 111.88362783 0 3229.80822192 0 -174.16877663 0 471.24478768 0 26980
0.15950000 0.15949700 9251.87960591 0 92.41648778 0 3380.38076713 0 -225.96511213 0 551.16593545 0 27777
0.16050000 0.16050000 9198.97603793 0 148.60056416 0 3712.40657147 0 -55.12035814 0 560.51097760 0 28224
0.16150000 0.16150500 9199.47429255 0 151.68752832 0 3986.35803213 0 -74.48319689 0 949.68990818 0 28075
0.16250000 0.16249700 8988.01503316 0 142.64697510 0 4011.64722202 0 180.15336819 0 1218.17717655 0 28590
0.16350000 0.16349900 8909.20222510 0 50.96081787 0 4002.37968614 0 383.15890758 0 1309.43527770 0 29163
0.16450000 0.16449100 8892.23942348 0 -4.02449112 0 3668.01762127 0 852.90007355 0 1388.91242525 0 28996
0.16550000 0.16550500 8840.85276400 0 -22.43330515 0 3354.83691378 0 702.49804214 0 1189.77666339 0 30777
0.16650000 0.16650700 8836.47919569 0 96.02816941 0 2952.94473983 0 508.61609840 0 1373.55511073 0 29211
0.16750000 0.16749900 8730.49490253 0 74.85899159 0 2857.06947923 0 66.79579249 0 1353.97924045 0 30922
0.16850000 0.16850800 8697.99762919 0 -10.35241333 0 2506.19857805 0 180.52318384 0 1457.67156237 0 30867
0.16950000 0.16949900 8761.50848435 0 -71.06339864 0 2507.66012493 0 -15.09047150 0 1101.92551658 0 30852
0.17050000 0.17049200 8749.58359052 0 94.89535986 0 2622.03724030 0 -79.99212138 0 1340.86960786 0 31257
0.17150000 0.17149500 8748.99675730 0 53.95842837 0 2432.22437594 0 51.08826033 0 1080.89474282 0 32608
0.17250000 0.17250900 8612.84037901 0 141.39690963 0 2426.02387404 0 120.30191639 0 1355.51829360 0 32361
0.17350000 0.17350400 8646.68847598 0 169.22276913 0 2339.63759580 0 -43.20255059 0 744.08569416 0 32508
0.17450000 0.17449800 8383.30001319 0 169.83063977 0 2449.66328753 0 115.65596889 0 602.33668460 0 32791
0.17550000 0.17549800 8270.98235023 0 216.29565087 0 2402.06336313 0 -99.72167552 0 488.55083137 0 33633
0.17650000 0.17650100 8138.16981403 0 204.27664228 0 2366.08937980 0 -110.43226749 0 473.00750179 0 33984
0.17750000 0.17750300 7891.85487611 0 97.09819888 0 2286.68973852 0 38.17914755 0 282.59894635 0 34069
0.17850000 0.17849800 7861.06274079 0 182.57820733 0 2288.82669721 0 79.54269571 0 119.49363668 0 34536
