### header ###
fiducial parameters:
Omega_m = 0.31
Omega_nu = 0
Omega_de = 0.69
Omega_k = 0
H_0 = 100
w_de = -1
zeff = 0
beta = 0
fgrowth = 0
b_1 = 2
gamma = 0.55
Lx = 3500 Ly = 3500 Lz = 3500
nx = 700 ny = 700 nz = 700
xoffset = -685.467585 yoffset = -31.7331281 zoffset = 572.489161
bins = 400 dk = 0.001
kx_ny = 0.628318531 ky_ny = 0.628318531 kz_ny = 0.628318531
############################
A(data) = 8.01747299 (not used)
A(ran) = 8.01859336 (used)
Ngal = 476536
weighted Ngal = 0
Nran = 23820508
weighted Nran = 0
SN(data) = 3484.5616
SN(ran) = 69.8448563
SN(data+ran) = 3554.40646
############################
13 columns: k_central k_mean P_0(k) sigma^{lin}_{P_0(k)} P^img_1(k) sigma^{lin}_{P_1(k)} P_2(k) sigma^{lin}_{P_2(k)} P^img_3(k) sigma^{lin}_{P_3(k)} P_4(k) sigma^{lin}_{P_4(k)} N_modes
### header ###
0.00050000 0 0 0 0 0 0 0 0 0 0 0 0
0.00150000 0.00179520 25711.26690787 0 -29520.25736874 0 -1368.11859924 0 20388.02530481 0 -85655.39407380 0 3
0.00250000 0.00253879 53174.06487881 0 -43080.75502063 0 -26533.49774891 0 -20200.01722939 0 46893.06717894 0 6
0.00350000 0.00331552 65364.03016465 0 -30969.29251775 0 -28497.28527874 0 -9284.57618110 0 57720.25072610 0 7
0.00450000 0.00420575 73369.43173178 0 -11729.57801988 0 -27732.74125002 0 -42443.98562031 0 11196.11341012 0 24
0.00550000 0.00557378 75721.19352326 0 4414.70199007 0 -4838.91597084 0 -26982.92341330 0 11019.11122557 0 45
0.00650000 0.00659388 63324.17576331 0 2769.22165412 0 -42153.22637057 0 -18535.73608590 0 58125.38709121 0 40
0.00750000 0.00754703 68676.53758065 0 340.47177371 0 10580.89075390 0 5384.90337998 0 26772.65996499 0 57
0.00850000 0.00846663 69289.94437560 0 4723.12159789 0 -8686.09488001 0 -1929.96157751 0 33046.34993048 0 75
0.00950000 0.00948925 75876.64896372 0 -3215.35883804 0 27240.79785832 0 21899.39764256 0 22165.35488470 0 112
0.01050000 0.01054430 70262.64811092 0 2486.31268268 0 -6253.80407012 0 11533.04425435 0 16742.79452802 0 105
0.01150000 0.01145670 79362.32753987 0 -6848.90831215 0 7012.08116300 0 2653.43835349 0 11630.48071275 0 144
0.01250000 0.01249090 75728.94415064 0 -4828.67407039 0 6990.94409492 0 -2270.82309706 0 -9262.18794032 0 169
0.01350000 0.01339930 85463.62140794 0 -6275.21794632 0 14785.65039308 0 -13544.88567390 0 -27557.57707138 0 180
0.01450000 0.01448870 76218.89452386 0 7246.93624473 0 8767.05571908 0 -11728.02789441 0 -20348.93999820 0 267
0.01550000 0.01550050 85810.62806776 0 6283.28967111 0 29722.21657343 0 -15063.45502278 0 -11096.01959376 0 238
0.01650000 0.01653350 69181.43559238 0 2859.09571467 0 21424.17346134 0 -5586.97330792 0 2650.57062136 0 315
0.01750000 0.01747870 75211.31296536 0 7451.74103690 0 25224.19533910 0 9516.24243328 0 -13461.06817502 0 297
0.01850000 0.01844180 67809.68527059 0 211.66852633 0 11901.30977782 0 12091.97521120 0 -323.98397482 0 388
0.01950000 0.01947590 66480.00978312 0 1044.02279394 0 14572.95103331 0 9514.11654692 0 -13817.04341794 0 399
0.02050000 0.02045430 61670.19188190 0 3297.44905424 0 4609.85171500 0 2918.75340079 0 -8026.52756288 0 462
0.02150000 0.02154770 59174.71131428 0 5214.51137334 0 6292.11431399 0 -2692.16934570 0 -7520.24551055 0 571
0.02250000 0.02255340 54290.70883677 0 5026.65831047 0 6727.34525796 0 -6795.13003050 0 1893.26789307 0 510
0.02350000 0.02348930 49029.14008295 0 277.80241523 0 3744.58274739 0 175.65468262 0 -2226.53379778 0 555
0.02450000 0.02439640 53273.71580218 0 -1551.44308126 0 4562.72790057 0 1251.64881447 0 -5740.60181477 0 592
0.02550000 0.02547300 54257.27041582 0 -1463.42917128 0 10408.71610297 0 -2550.46573268 0 -8896.26974971 0 837
0.02650000 0.02652900 59007.74065601 0 -813.93324081 0 14017.56322041 0 -435.84213630 0 -7976.24813588 0 723
0.02750000 0.02749970 53931.19044991 0 161.18647578 0 21983.87948093 0 24.95270193 0 -3503.36107889 0 826
0.02850000 0.02848090 58227.36320279 0 91.42241446 0 14743.57555876 0 2775.84290436 0 -3050.73551263 0 831
0.02950000 0.02946900 56776.77792830 0 -3189.78176770 0 9812.75929193 0 5026.49222560 0 -4719.79990044 0 996
0.03050000 0.03053250 58792.16249179 0 -525.78152357 0 10270.40062133 0 4799.13310777 0 -5153.04889827 0 1041
0.03150000 0.03150510 56889.49419496 0 3219.99814213 0 9856.74963843 0 3520.24637424 0 -3698.41115290 0 1036
0.03250000 0.03246190 54321.37917652 0 3937.75052618 0 9407.93295191 0 -1882.79347379 0 -3528.82742598 0 1059
0.03350000 0.03345080 52059.63538581 0 4143.50753828 0 10300.87165923 0 -1062.99743698 0 3751.84619247 0 1302
0.03450000 0.03451200 50818.98138989 0 1264.84702566 0 10883.05449820 0 -2993.63553354 0 1709.44515643 0 1339
0.03550000 0.03553350 51309.37465610 0 -714.42625767 0 14117.54631352 0 -2302.39029511 0 -2346.69066671 0 1365
0.03650000 0.03647120 51519.41665791 0 380.85364955 0 15267.07507619 0 -6065.04307661 0 -7191.57462063 0 1308
0.03750000 0.03744890 50906.00986296 0 152.72611239 0 16231.25312140 0 -1246.54447273 0 -7669.01326681 0 1579
0.03850000 0.03847530 50116.33165689 0 1353.22632236 0 13749.28079005 0 2331.23370127 0 -6661.69744411 0 1662
0.03950000 0.03950240 49884.92006818 0 1025.97158279 0 13284.02170117 0 4302.94901567 0 -7518.42964928 0 1683
0.04050000 0.04050350 48672.16833080 0 840.10932392 0 10725.76105182 0 4525.65775707 0 -8923.24193297 0 1822
0.04150000 0.04152450 46021.67521571 0 2721.35599393 0 10733.72205337 0 3107.97943194 0 -7572.91655971 0 1887
0.04250000 0.04250150 44867.16390687 0 1654.67036555 0 9532.80663121 0 2079.60404744 0 -3511.06741697 0 1920
0.04350000 0.04349210 42941.35445116 0 1862.29860055 0 13701.78051658 0 382.05499680 0 -2725.64098363 0 2005
0.04450000 0.04448520 43469.50434501 0 1304.18699574 0 13593.60390310 0 -456.79761825 0 -956.79280455 0 2151
0.04550000 0.04548030 41771.00971783 0 1177.51959981 0 14178.66554652 0 -4021.72303760 0 3720.69974276 0 2274
0.04650000 0.04648670 42050.25374976 0 902.81854276 0 14432.77540111 0 277.50124800 0 2344.85266079 0 2311
0.04750000 0.04749250 42363.48981888 0 -312.48757996 0 14599.85678262 0 -34.09567415 0 1972.54573877 0 2568
0.04850000 0.04851840 40811.70349554 0 1356.75839398 0 13795.56310779 0 -131.64772763 0 -1091.65593531 0 2493
0.04950000 0.04949480 40128.31960774 0 1752.22861953 0 17212.03965383 0 -3277.19777215 0 1011.27971499 0 2644
0.05050000 0.05050630 37720.75329917 0 1501.59547493 0 14666.29073153 0 2590.02714925 0 -5258.76745564 0 2829
0.05150000 0.05149060 39071.35548055 0 -774.81471723 0 15765.10824653 0 493.86222558 0 -4611.95545671 0 2784
0.05250000 0.05249300 37881.30200904 0 468.89191865 0 14208.00720729 0 2176.86334865 0 -5101.95011924 0 3055
0.05350000 0.05348950 37551.23600620 0 391.60598419 0 15827.11326552 0 1088.66530038 0 -3722.75919517 0 3009
0.05450000 0.05448610 36344.46332421 0 1257.59465290 0 13724.58950570 0 1818.25289242 0 -2246.72971825 0 3336
0.05550000 0.05550870 36368.60099232 0 -779.97552783 0 10664.35393838 0 4064.46221140 0 -1898.79298315 0 3349
0.05650000 0.05647670 36832.75284872 0 -1100.92125672 0 13278.26409227 0 3890.36097595 0 -1418.14336277 0 3324
0.05750000 0.05747970 37451.25291309 0 -6.36239036 0 11288.23515261 0 -213.11014302 0 -1597.12749347 0 3639
0.05850000 0.05849280 37025.63274706 0 2061.08004802 0 13574.44878116 0 -1996.69447920 0 2703.99458861 0 3846
0.05950000 0.05951020 34982.01375528 0 2521.36766305 0 12782.88827988 0 -1738.63180465 0 3998.81439755 0 3787
0.06050000 0.06049470 34126.45521654 0 1422.55014805 0 14628.64482715 0 -132.56451612 0 5939.28361132 0 3930
0.06150000 0.06148310 33407.97205906 0 -5.64359718 0 13243.71843883 0 2572.00140445 0 2850.31536109 0 4083
0.06250000 0.06249100 32469.03891444 0 424.13647450 0 13603.45827219 0 3603.66526943 0 4986.37719278 0 4303
0.06350000 0.06350600 32636.45246570 0 651.77572215 0 11688.72114130 0 4096.11798806 0 3942.60020445 0 4470
0.06450000 0.06451750 31643.26492946 0 462.35813978 0 9442.33466512 0 2795.60700416 0 4160.10495319 0 4479
0.06550000 0.06550280 31099.61378087 0 57.92608524 0 9640.70643657 0 1007.51733901 0 5536.28420490 0 4636
0.06650000 0.06648880 30912.71293793 0 562.32351717 0 9839.06713570 0 -910.28461139 0 5167.04431684 0 4653
0.06750000 0.06749660 30403.60744277 0 1225.15274118 0 9158.42918444 0 -565.49241653 0 6443.87159796 0 5220
0.06850000 0.06852730 29682.24548083 0 1417.37937236 0 10646.52749542 0 835.45451856 0 6076.54722210 0 5029
0.06950000 0.06949320 28253.25123974 0 527.80775901 0 10985.75031089 0 207.83307301 0 8505.11773084 0 5040
0.07050000 0.07048030 27874.13483795 0 452.65435431 0 10386.87040610 0 1280.59187155 0 3908.69674585 0 5475
0.07150000 0.07148790 27810.13680050 0 -16.60749072 0 10221.67131980 0 619.15665323 0 4700.77764641 0 5509
0.07250000 0.07249820 27402.45380068 0 131.81934866 0 10404.69684906 0 -1277.50269293 0 921.59609842 0 5916
0.07350000 0.07351270 27987.07255110 0 848.93285957 0 10937.64105955 0 -1716.58680593 0 672.31820638 0 5721
0.07450000 0.07449140 26456.98798441 0 1133.44067471 0 10449.21866715 0 -2643.05251281 0 -1642.40222965 0 6028
0.07550000 0.07549160 26108.54192237 0 961.15862223 0 9386.23119526 0 391.87504168 0 -1310.25462974 0 6183
0.07650000 0.07648840 26032.25360437 0 -626.58839765 0 9029.10443056 0 1216.26166435 0 -2705.24576132 0 6330
0.07750000 0.07749960 25775.04349883 0 -539.83008930 0 9082.57268711 0 2288.58310607 0 -3208.88152802 0 6583
0.07850000 0.07848650 26076.10001065 0 383.02603968 0 8081.05876262 0 -553.61291923 0 -4536.69686492 0 6549
0.07950000 0.07947320 25687.46140951 0 1239.55783577 0 8630.85505149 0 149.96246011 0 -3670.01063974 0 6828
0.08050000 0.08048110 24531.17852870 0 703.74367868 0 8745.47575801 0 129.13652436 0 -793.18591857 0 7147
0.08150000 0.08149960 24451.78995975 0 359.18953881 0 7786.31347594 0 1047.09204238 0 -1045.48323358 0 7386
0.08250000 0.08250610 24220.15692455 0 -597.02418315 0 8326.36611897 0 1637.39753883 0 -1963.58822799 0 7227
0.08350000 0.08350160 24302.64574445 0 202.76416271 0 7900.11483043 0 806.48156621 0 -2356.53396348 0 7798
0.08450000 0.08449610 24113.75188304 0 657.21444810 0 8549.98279101 0 10.27622466 0 -1842.86667049 0 7371
0.08550000 0.08548940 22827.25846236 0 1384.94853297 0 7882.55412327 0 -666.53956006 0 -152.30093511 0 8256
0.08650000 0.08650700 22147.63916499 0 1331.70172291 0 8036.96876519 0 7.40755139 0 195.72105689 0 8037
0.08750000 0.08749060 21085.91393813 0 491.53039398 0 8015.00127275 0 408.07163842 0 546.95402309 0 8155
0.08850000 0.08849210 20969.43308104 0 95.36726234 0 7983.31227912 0 2281.96185582 0 221.43320958 0 8718
0.08950000 0.08949900 20867.56769271 0 163.57699071 0 6565.85540048 0 1228.04261796 0 -363.69929671 0 8571
0.09050000 0.09049190 20617.00098206 0 163.66003314 0 5824.44145830 0 525.25448091 0 -1148.66512134 0 8932
0.09150000 0.09150830 20521.88971187 0 294.38986505 0 6058.86471936 0 -382.74590987 0 -495.80652582 0 9285
0.09250000 0.09250820 19883.79163257 0 738.22511263 0 6021.94958842 0 -1040.70441819 0 -573.71361771 0 9204
0.09350000 0.09350330 19653.37655310 0 333.35005439 0 5968.11594515 0 199.16565714 0 -1129.33284220 0 9349
0.09450000 0.09448040 18830.37064933 0 366.37769209 0 6546.41239810 0 298.09577216 0 -77.95215625 0 9564
0.09550000 0.09549270 19123.78725702 0 443.15540684 0 6429.44435872 0 216.01330658 0 -1115.84675057 0 10155
0.09650000 0.09649430 18570.39246259 0 179.83116354 0 6814.66161148 0 770.17319867 0 -130.11974680 0 9913
0.09750000 0.09749140 18416.59787085 0 313.73321650 0 6413.77701910 0 442.15225422 0 -137.20271299 0 10476
0.09850000 0.09850240 18297.57037905 0 97.26162640 0 6133.81328606 0 736.80342613 0 485.93776271 0 10575
0.09950000 0.09950330 18472.07021820 0 -187.86856413 0 6018.68325259 0 587.79872211 0 229.80277991 0 10882
0.10050000 0.10051200 17861.87439744 0 450.96803924 0 5328.97706732 0 579.58194986 0 852.77717074 0 10875
0.10150000 0.10150300 17618.50469793 0 894.17216431 0 5482.33983838 0 -100.06502832 0 340.84048212 0 11118
0.10250000 0.10250800 16981.62457436 0 281.85267165 0 5019.26199749 0 189.85826090 0 393.23693763 0 11575
0.10350000 0.10349800 16850.52824851 0 504.60348789 0 5735.05458004 0 128.14001513 0 1082.58105789 0 11364
0.10450000 0.10450100 16575.27025351 0 125.15713082 0 5367.76342116 0 171.57120923 0 1129.54321637 0 12093
0.10550000 0.10551000 16402.20981660 0 85.28812506 0 6180.90388351 0 669.08730200 0 1858.13540642 0 12067
0.10650000 0.10649700 16503.96448168 0 354.10623449 0 6193.38239358 0 -220.55738869 0 1085.02471998 0 12054
0.10750000 0.10749900 15991.09439608 0 380.85364955 0 5591.41331017 0 498.73294127 0 1888.93861406 0 12807
0.10850000 0.10850100 15484.86770537 0 573.94392207 0 5851.41364156 0 203.66655718 0 1736.63878618 0 12736
0.10950000 0.10950300 15261.76036028 0 120.41153240 0 5455.35658280 0 442.15225422 0 1757.15580407 0 12933
0.11050000 0.11050200 15025.69839514 0 -55.42429345 0 4988.87953819 0 554.99474537 0 790.47984238 0 13428
0.11150000 0.11150900 15051.05401898 0 82.11811846 0 4211.08193665 0 352.58157536 0 298.25189194 0 13453
0.11250000 0.11250000 14809.89878443 0 261.59917510 0 4264.35089135 0 337.76348306 0 195.18515637 0 13668
0.11350000 0.11349100 14702.60795694 0 185.91872773 0 3563.81597240 0 128.27399026 0 262.85477673 0 13791
0.11450000 0.11448600 14702.82940343 0 -117.77410463 0 3424.32682434 0 517.86702579 0 365.10991089 0 14205
0.11550000 0.11549300 14778.01048895 0 -124.92682646 0 3567.81308166 0 -20.05098374 0 -242.16503057 0 14776
0.11650000 0.11649800 14606.50017751 0 113.40385803 0 3244.58977556 0 22.42832260 0 -532.33966156 0 14553
0.11750000 0.11747300 14723.31320435 0 180.17662008 0 3337.71909961 0 -129.52294850 0 -374.18700278 0 14568
0.11850000 0.11849100 14461.89561538 0 302.28996880 0 3454.37711390 0 -633.96367321 0 -629.07856350 0 16015
0.11950000 0.11950300 14401.77289161 0 267.33131765 0 3493.92745815 0 -7.53333300 0 -371.02474681 0 15270
0.12050000 0.12050700 13905.17912350 0 468.57082123 0 3669.66739767 0 299.23068546 0 -641.14186139 0 15999
0.12150000 0.12150000 13695.69073793 0 190.28786710 0 3628.63336189 0 341.62108102 0 -46.22728829 0 15670
0.12250000 0.12250700 13316.13144314 0 157.00224423 0 3449.04025333 0 444.83175682 0 -195.60479748 0 16887
0.12350000 0.12352200 13556.51161496 0 -115.01266682 0 3080.32076455 0 769.77570220 0 -34.75713484 0 16407
0.12450000 0.12449800 13383.45117804 0 -199.37049515 0 2812.49229951 0 544.65430122 0 -203.31445725 0 16306
0.12550000 0.12549900 13670.77800709 0 -193.07920019 0 2712.54242337 0 55.27946744 0 -276.15706777 0 17523
0.12650000 0.12650100 13543.77844142 0 175.57274742 0 2935.79370869 0 -40.60520464 0 -582.65452000 0 17154
0.12750000 0.12750600 13348.57335486 0 499.07507611 0 2600.95553385 0 -587.66253252 0 -675.42952966 0 18007
0.12850000 0.12850300 13036.33379498 0 275.95887315 0 3058.74080348 0 -328.09623626 0 -724.18872646 0 17496
0.12950000 0.12949900 12904.68385288 0 233.82314106 0 2868.13073172 0 -306.22064411 0 -606.12452692 0 18405
0.13050000 0.13049000 12787.31720981 0 230.42836627 0 3103.01903043 0 6.14700042 0 -1025.38917850 0 18100
0.13150000 0.13148800 12488.80733270 0 186.75579548 0 3018.14966069 0 -64.69681187 0 -854.90416434 0 19059
0.13250000 0.13249300 12569.74602712 0 93.31622489 0 3349.36718532 0 384.25396051 0 -492.73727738 0 18957
0.13350000 0.13349100 12544.72257303 0 92.22803681 0 2943.94293976 0 -28.72648240 0 -482.28721722 0 19468
0.13450000 0.13450700 12520.80635142 0 70.69900843 0 3322.33964043 0 -187.20311741 0 -644.33401264 0 19953
0.13550000 0.13551000 12289.28403946 0 288.68208160 0 3678.23737708 0 -259.27620135 0 -866.47142208 0 19956
0.13650000 0.13649900 12238.68351504 0 280.10656603 0 3582.61677995 0 -231.71275594 0 -391.42329083 0 19723
0.13750000 0.13749600 11944.27039811 0 190.06088444 0 3682.55558376 0 212.81451194 0 -275.63777573 0 20946
0.13850000 0.13851100 11914.15367461 0 74.60942139 0 3567.94594956 0 542.72771671 0 -297.01732773 0 20955
0.13950000 0.13949800 11815.83143022 0 172.22115469 0 3290.69493610 0 748.57441464 0 -142.68794271 0 20506
0.14050000 0.14048300 11651.07523692 0 172.75926968 0 3061.71925885 0 355.78037000 0 -114.42140468 0 21447
0.14150000 0.14148400 11533.15497760 0 193.59184883 0 2807.63154891 0 483.95803103 0 197.13167107 0 21771
0.14250000 0.14249400 11426.86065934 0 47.61431842 0 2854.54498917 0 130.96013626 0 452.00994500 0 22470
0.14350000 0.14350900 11192.45954293 0 219.97830610 0 3049.97152222 0 4.78717500 0 485.35314396 0 22519
0.14450000 0.14449900 11060.25598459 0 197.92444953 0 2879.29163514 0 -254.08992440 0 642.74845572 0 22218
0.14550000 0.14550500 10944.66091349 0 17.82832525 0 3074.81781911 0 123.46749405 0 844.52607429 0 23559
0.14650000 0.14650700 11002.04877302 0 38.69246053 0 2988.14366043 0 311.28733995 0 929.77965369 0 23044
0.14750000 0.14750500 10999.13675160 0 124.25473635 0 3217.87225577 0 104.59261266 0 484.16508351 0 23649
0.14850000 0.14849900 10716.50458827 0 202.60693569 0 2970.04040935 0 62.51246363 0 966.10241526 0 23640
0.14950000 0.14949500 10623.66314467 0 298.79222139 0 3301.35758490 0 -295.93666882 0 769.03053474 0 24457
0.15050000 0.15050000 10336.44703887 0 395.40822053 0 3245.68593571 0 -12.05931185 0 846.58774117 0 24591
0.15150000 0.15149900 10022.82343839 0 342.77592450 0 3435.37700451 0 -46.07294008 0 1080.42306178 0 25020
0.15250000 0.15250500 9790.37105114 0 117.32567548 0 3379.56141510 0 242.17499567 0 794.85894685 0 25297
0.15350000 0.15350100 9818.89335988 0 77.55521341 0 3236.90558213 0 240.96921949 0 446.47931875 0 25452
0.15450000 0.15450400 9575.47937106 0 175.45316631 0 3225.96612521 0 -18.02939867 0 216.46395020 0 26061
0.15550000 0.15549900 9686.81159711 0 50.29869285 0 3091.27129379 0 -166.84111206 0 54.23689734 0 26128
0.15650000 0.15649500 9550.07945793 0 119.28769143 0 3466.37951400 0 -440.60655767 0 -55.36206699 0 26331
0.15750000 0.15749700 9439.71052414 0 331.36921548 0 3292.97583501 0 -84.76883303 0 -270.29980794 0 27345
0.15850000 0.15849900 9199.09783350 0 184.20362461 0 3014.58437210 0 119.43938228 0 -38.22155455 0 26980
0.15950000 0.15949700 9117.61659516 0 -69.18885405 0 2807.96371866 0 395.40046990 0 -301.42411300 0 27777
0.16050000 0.16050000 9181.23817357 0 -102.65251990 0 2904.72476525 0 422.90966091 0 -487.30962376 0 28224
0.16150000 0.16150500 9251.52529152 0 170.70646066 0 2595.48580539 0 309.77043145 0 -602.78732822 0 28075
0.16250000 0.16249700 8940.12722832 0 217.94874896 0 2425.69170429 0 -271.46904544 0 -493.23331753 0 28590
0.16350000 0.16349900 8810.29314750 0 164.47384902 0 2478.51776600 0 -43.85105666 0 -412.32451839 0 29163
0.16450000 0.16449100 8847.93905188 0 -28.79513082 0 2767.70474562 0 -118.76729217 0 -535.89830676 0 28996
0.16550000 0.16550500 8841.12957212 0 -11.31480873 0 2468.24264857 0 330.30737952 0 -703.31739418 0 30777
0.16650000 0.16650700 8806.99359470 0 116.92264285 0 2369.67681304 0 144.64552973 0 -510.22379997 0 29211
0.16750000 0.16749900 8679.14146002 0 127.39041874 0 2095.18280846 0 286.35578616 0 -383.94836434 0 30922
0.16850000 0.16850800 8616.44995690 0 89.10364819 0 2007.29069405 0 469.67141032 0 -425.49394153 0 30867
0.16950000 0.16949900 8462.53356959 0 57.28112232 0 1781.26025520 0 486.75268582 0 -432.76070830 0 30852
0.17050000 0.17049200 8362.71656135 0 108.70520627 0 1649.85390425 0 292.27615824 0 -236.09075318 0 31257
0.17150000 0.17149500 8439.95709929 0 38.27436954 0 1670.88024908 0 182.52727464 0 -105.82595892 0 32608
0.17250000 0.17250900 8306.00411363 0 36.92520676 0 1717.26221775 0 -131.84149331 0 228.25265444 0 32361
0.17350000 0.17350400 8380.01153272 0 78.25553795 0 1800.45966644 0 -214.71120119 0 438.21382828 0 32508
0.17450000 0.17449800 8311.24132327 0 163.02558893 0 2136.89225605 0 -206.10025417 0 639.40572086 0 32791
0.17550000 0.17549800 8185.74759378 0 228.09985636 0 2110.14151929 0 -38.61451136 0 799.01771205 0 33633
0.17650000 0.17650100 8058.69266648 0 103.89040582 0 2157.44249091 0 235.49838380 0 621.49291377 0 33984
0.17750000 0.17750300 7958.31096968 0 65.71779094 0 2063.77062295 0 398.22501996 0 715.39065716 0 34069
