### header ###
fiducial parameters:
Omega_m = 0.31
Omega_nu = 0
Omega_de = 0.69
Omega_k = 0
H_0 = 100
w_de = -1
zeff = 0
beta = 0
fgrowth = 0
b_1 = 2
gamma = 0.55
Lx = 3500 Ly = 3500 Lz = 3500
nx = 700 ny = 700 nz = 700
xoffset = -685.467585 yoffset = -31.7331281 zoffset = 572.489161
bins = 400 dk = 0.001
kx_ny = 0.628318531 ky_ny = 0.628318531 kz_ny = 0.628318531
############################
A(data) = 7.96424542 (not used)
A(ran) = 7.9611166 (used)
Ngal = 473087
weighted Ngal = 0
Nran = 23820508
weighted Nran = 0
SN(data) = 3488.78299
SN(ran) = 69.3442128
SN(data+ran) = 3558.1272
############################
13 columns: k_central k_mean P_0(k) sigma^{lin}_{P_0(k)} P^img_1(k) sigma^{lin}_{P_1(k)} P_2(k) sigma^{lin}_{P_2(k)} P^img_3(k) sigma^{lin}_{P_3(k)} P_4(k) sigma^{lin}_{P_4(k)} N_modes
### header ###
0.00050000 0 0 0 0 0 0 0 0 0 0 0 0
0.00150000 0.00179520 44848.23023143 0 -51097.67180557 0 51371.26895184 0 -25150.34293256 0 40268.60596319 0 3
0.00250000 0.00253879 81085.51345140 0 -49914.37245220 0 4222.46428657 0 -24238.75843024 0 -41615.77572387 0 6
0.00350000 0.00331552 77761.60154084 0 -7860.30982271 0 22966.76975508 0 -26623.07285669 0 73035.60113850 0 7
0.00450000 0.00420575 88932.02715738 0 7098.66674308 0 6115.51073313 0 -45743.75986276 0 23894.29840514 0 24
0.00550000 0.00557378 76674.74213664 0 13687.94011056 0 27119.44517831 0 -41284.27031880 0 21567.67079099 0 45
0.00650000 0.00659388 91210.26871207 0 15629.69371400 0 37482.58759232 0 -20395.99737868 0 28800.55625553 0 40
0.00750000 0.00754703 67073.37567015 0 7367.31456016 0 48005.28220697 0 6901.00360042 0 14339.87859588 0 57
0.00850000 0.00846663 77091.06154982 0 8584.50629979 0 37893.59228959 0 49426.19365095 0 12292.27356716 0 75
0.00950000 0.00948925 59640.85618914 0 6917.21348395 0 28571.58057828 0 28996.31495832 0 10882.96591960 0 112
0.01050000 0.01054430 59400.36529408 0 8175.05172800 0 40955.42227169 0 49935.07769961 0 10386.22821126 0 105
0.01150000 0.01145670 53207.28185327 0 -1671.03526163 0 13991.10036409 0 39147.86524505 0 30571.68533352 0 144
0.01250000 0.01249090 56027.40298458 0 -10603.68867070 0 8639.31430765 0 25357.94902291 0 20132.80821774 0 169
0.01350000 0.01339930 72604.00191707 0 -9728.94179305 0 7258.65076439 0 33.21896747 0 19645.29375598 0 180
0.01450000 0.01448870 81717.18958230 0 -12384.83820265 0 -553.37929318 0 -13290.77581931 0 8415.36546586 0 267
0.01550000 0.01550050 75219.39576248 0 2193.25038938 0 12050.01110013 0 -18611.24934117 0 11664.25130345 0 238
0.01650000 0.01653350 83372.72358919 0 13329.63967942 0 15723.69775171 0 -27296.82382191 0 1348.05554667 0 315
0.01750000 0.01747870 77625.07977583 0 -1506.81053992 0 16162.82615402 0 1129.24426360 0 -1299.08265400 0 297
0.01850000 0.01844180 76353.09110066 0 -4557.26924443 0 20114.09598880 0 -2846.77221715 0 -29356.38696142 0 388
0.01950000 0.01947590 84673.05741589 0 -3771.35562880 0 22854.49638142 0 -5167.84152423 0 -34308.04134357 0 399
0.02050000 0.02045430 87390.09520314 0 2183.90534723 0 25038.51245189 0 -10700.11754754 0 -36241.49070340 0 462
0.02150000 0.02154770 78280.56140509 0 8983.13213792 0 26654.40753593 0 -5221.33192543 0 -21491.05030325 0 571
0.02250000 0.02255340 79061.60319780 0 2095.08315753 0 21923.31386417 0 -3587.86506191 0 -10929.51397314 0 510
0.02350000 0.02348930 70986.44598431 0 2574.07192919 0 23013.05207282 0 9701.58207842 0 -24733.91279613 0 555
0.02450000 0.02439640 74507.88816963 0 2451.97740341 0 17743.06835214 0 8275.80988385 0 -24270.09310948 0 592
0.02550000 0.02547300 67954.28983273 0 3373.74844457 0 17025.24953414 0 2720.91310093 0 -29893.83760812 0 837
0.02650000 0.02652900 64369.07105645 0 5008.94259076 0 13986.89288066 0 550.34769065 0 -21590.70122662 0 723
0.02750000 0.02749970 58104.46039731 0 2657.72334319 0 15388.87064920 0 -1860.39416068 0 -14410.74147472 0 826
0.02850000 0.02848090 58777.76846953 0 -276.38737212 0 17178.60123288 0 6677.92947230 0 -6556.87574505 0 831
0.02950000 0.02946900 59650.93200473 0 745.64578473 0 20674.79851762 0 4600.52881750 0 -7058.20846819 0 996
0.03050000 0.03053250 59979.00498910 0 3408.89200354 0 24679.10478828 0 3810.35235682 0 -2252.57590576 0 1041
0.03150000 0.03150510 58182.85245702 0 1150.71350143 0 28696.80857197 0 -2687.38610138 0 9111.11714049 0 1036
0.03250000 0.03246190 57653.59533069 0 803.75666707 0 30064.12996383 0 -917.30446532 0 3348.33745911 0 1059
0.03350000 0.03345080 59868.17101767 0 1364.80797412 0 38532.24398513 0 -2785.37617603 0 10354.53921763 0 1302
0.03450000 0.03451200 55834.08019324 0 2078.78469540 0 34736.31886755 0 5262.42132283 0 2731.02213349 0 1339
0.03550000 0.03553350 54956.04483512 0 3541.41665930 0 36167.85974336 0 5523.69497158 0 -1316.70979511 0 1365
0.03650000 0.03647120 52017.22838176 0 1857.92503224 0 25857.42159548 0 3202.32671172 0 -2560.20937852 0 1308
0.03750000 0.03744890 49125.69075537 0 3070.24494896 0 26129.80078602 0 5223.49102877 0 -1593.49577093 0 1579
0.03850000 0.03847530 46296.49031771 0 2656.20643469 0 20936.54827633 0 3828.48882487 0 -1520.21912528 0 1662
0.03950000 0.03950240 45317.14318750 0 963.25461332 0 21622.36807560 0 1491.42000842 0 -3446.99187324 0 1683
0.04050000 0.04050350 44271.14066188 0 -644.87323486 0 18362.67564899 0 -265.80112236 0 -4699.10572536 0 1822
0.04150000 0.04152450 46538.97423124 0 -955.13195583 0 22463.86476181 0 -3004.79643696 0 -5781.21510221 0 1887
0.04250000 0.04250150 45321.01850119 0 1543.61494762 0 22732.47936191 0 -3221.91365433 0 -1460.00782291 0 1920
0.04350000 0.04349210 46366.24596407 0 1127.72735510 0 26581.77308512 0 627.56940563 0 357.90404190 0 2005
0.04450000 0.04448520 43719.73888591 0 1915.82221872 0 24636.47633773 0 4972.74716093 0 1289.61581628 0 2151
0.04550000 0.04548030 41978.83725468 0 3396.42456579 0 23228.07662080 0 7628.27818381 0 -694.30341454 0 2274
0.04650000 0.04648670 37838.78428174 0 2913.90372252 0 17702.87581304 0 6715.52001506 0 3313.33784036 0 2311
0.04750000 0.04749250 36536.23599007 0 1395.61118177 0 17294.41775048 0 6077.17834461 0 2229.72262733 0 2568
0.04850000 0.04851840 34452.31373596 0 269.92445613 0 12782.00249389 0 4811.29052042 0 5065.11249456 0 2493
0.04950000 0.04949480 33941.10449908 0 285.29727190 0 11822.14265537 0 2776.90584754 0 5676.14981201 0 2644
0.05050000 0.05050630 33356.70719515 0 420.60440289 0 9827.85087065 0 3016.07913595 0 7010.61961612 0 2829
0.05150000 0.05149060 34736.98320704 0 -2552.18194302 0 8197.07458207 0 410.65591904 0 2892.94381164 0 2784
0.05250000 0.05249300 35349.83638575 0 -1403.89328073 0 8139.85280740 0 -551.08621471 0 621.39437008 0 3055
0.05350000 0.05348950 36252.89519796 0 1338.38940710 0 12376.64468228 0 -3042.84094504 0 66.23055030 0 3009
0.05450000 0.05448610 35441.40451200 0 2002.98355969 0 10917.72194720 0 -3371.79971540 0 1650.30786957 0 3336
0.05550000 0.05550870 33612.81006821 0 1523.91728176 0 11643.54605604 0 -258.05492392 0 3130.65555317 0 3349
0.05650000 0.05647670 33351.61392573 0 -395.02401086 0 9687.14376686 0 3176.40639932 0 -454.06607572 0 3324
0.05750000 0.05747970 34713.73132492 0 -1567.12149321 0 12335.45563396 0 1872.97232167 0 31.62876018 0 3639
0.05850000 0.05849280 34632.90335375 0 -185.37175488 0 8875.33198348 0 -268.33668475 0 -2632.60023818 0 3846
0.05950000 0.05951020 34491.84193556 0 1530.98142500 0 11603.46424020 0 -387.78824659 0 1301.72893963 0 3787
0.06050000 0.06049470 33649.01657036 0 1059.82743039 0 11461.95992901 0 -1783.34185227 0 -1921.57982763 0 3930
0.06150000 0.06148310 33945.53342901 0 1040.19730572 0 14040.37220953 0 -852.99640277 0 -21.19464417 0 4083
0.06250000 0.06249100 32852.03062992 0 718.42890309 0 12936.68287161 0 -543.91799162 0 -992.24749586 0 4303
0.06350000 0.06350600 32555.95666427 0 1052.52301770 0 15373.92301069 0 260.88501014 0 1623.11423982 0 4470
0.06450000 0.06451750 32024.81724272 0 120.58647513 0 14254.95386452 0 3908.08776799 0 1996.25158620 0 4479
0.06550000 0.06550280 31411.63189426 0 332.77429349 0 13348.79480136 0 2866.32594278 0 3390.92162036 0 4636
0.06650000 0.06648880 31584.58160793 0 407.82251112 0 13637.67175588 0 2908.15718594 0 3646.58160042 0 4653
0.06750000 0.06749660 30653.73126042 0 472.88902791 0 12286.95885125 0 1137.49314559 0 2880.39886762 0 5220
0.06850000 0.06852730 30293.54853407 0 1154.66632139 0 12799.16459736 0 -209.89141819 0 3860.95288124 0 5029
0.06950000 0.06949320 29294.60338893 0 768.92091873 0 12089.65002298 0 -1343.96985881 0 4787.60681763 0 5040
0.07050000 0.07048030 29228.61233301 0 256.83253926 0 13465.49710495 0 868.03815604 0 4168.20989495 0 5475
0.07150000 0.07148790 28887.58472860 0 673.84286551 0 13201.86505102 0 663.55889022 0 5240.64205991 0 5509
0.07250000 0.07249820 28508.68977331 0 830.10547844 0 12871.13470868 0 1648.76881642 0 1648.03804298 0 5916
0.07350000 0.07351270 27560.45587584 0 745.97795447 0 10880.86217788 0 121.15891433 0 1152.21933760 0 5721
0.07450000 0.07449140 27299.03828687 0 376.26084922 0 10597.06742046 0 -360.35877632 0 942.45635838 0 6028
0.07550000 0.07549160 26714.08736670 0 22.92868096 0 10264.86445892 0 -40.43502301 0 -656.53350012 0 6183
0.07650000 0.07648840 26855.81312438 0 335.70403064 0 10077.25498719 0 530.34996479 0 -1077.85206796 0 6330
0.07750000 0.07749960 26129.57933952 0 465.08857508 0 10369.21004801 0 -85.87030790 0 -1552.83819419 0 6583
0.07850000 0.07848650 26079.42170809 0 32.84926255 0 9349.24963037 0 1566.51251534 0 -1625.76052545 0 6549
0.07950000 0.07947320 26432.85031631 0 -593.45557286 0 9304.89389715 0 947.71017650 0 -1722.07867904 0 6828
0.08050000 0.08048110 25989.51443057 0 641.28690885 0 8866.92808894 0 2073.21531602 0 -297.00182647 0 7147
0.08150000 0.08149960 25804.16371310 0 51.90440139 0 8197.62819831 0 294.64674298 0 -292.45995883 0 7386
0.08250000 0.08250610 25132.84865935 0 382.55989481 0 7161.61290967 0 436.56405188 0 58.72041383 0 7227
0.08350000 0.08350160 24745.64946044 0 682.70293983 0 8068.00449165 0 672.62933871 0 -537.73741991 0 7798
0.08450000 0.08449610 24157.93045907 0 741.41726388 0 7054.35529916 0 450.00474698 0 -1666.01949849 0 7371
0.08550000 0.08548940 23286.20632610 0 1123.11019565 0 6160.19863610 0 460.11156507 0 -538.05408840 0 8256
0.08650000 0.08650700 22234.22474508 0 763.81657699 0 5780.53969040 0 622.46727835 0 -813.60439277 0 8037
0.08750000 0.08749060 21822.77715481 0 614.54724441 0 5129.24339991 0 902.07669700 0 -634.94578842 0 8155
0.08850000 0.08849210 21298.94546764 0 586.19323501 0 5005.93091841 0 215.80514688 0 41.58588045 0 8718
0.08950000 0.08949900 20444.71560789 0 457.95467620 0 5382.44532387 0 547.37255697 0 904.19704720 0 8571
0.09050000 0.09049190 20667.04789024 0 89.27028668 0 6123.31672213 0 -287.53388152 0 499.45817855 0 8932
0.09150000 0.09150830 20306.86516389 0 274.87267809 0 6514.03692033 0 -129.72003588 0 814.95853809 0 9285
0.09250000 0.09250820 20362.55895773 0 384.63484848 0 6801.19766450 0 -343.90973056 0 486.10827651 0 9204
0.09350000 0.09350330 20453.24129800 0 53.96451815 0 7179.09611056 0 -285.31388039 0 -91.33527526 0 9349
0.09450000 0.09448040 19962.84803178 0 482.00265847 0 7523.89937774 0 -969.59130481 0 912.83567502 0 9564
0.09550000 0.09549270 19822.11878333 0 799.31445036 0 6955.33549830 0 833.20683663 0 6.39052514 0 10155
0.09650000 0.09649430 19357.41331069 0 -233.97815360 0 6998.18539535 0 291.43023262 0 -88.85097774 0 9913
0.09750000 0.09749140 18827.71329137 0 330.09257642 0 5833.05572701 0 1030.35290172 0 -790.32150814 0 10476
0.09850000 0.09850240 18988.15127799 0 470.09769483 0 6393.66967723 0 678.12231905 0 -620.85846956 0 10575
0.09950000 0.09950330 18486.35351721 0 555.80745401 0 5827.51956460 0 -221.96800287 0 -476.68240639 0 10882
0.10050000 0.10051200 17535.35153854 0 685.84969454 0 6530.04750202 0 -321.96549001 0 167.44123207 0 10875
0.10150000 0.10150300 17456.29513933 0 486.43158840 0 5908.29217415 0 95.10850211 0 235.93684786 0 11118
0.10250000 0.10250800 17028.01761535 0 89.18757641 0 6505.37836232 0 -599.76347631 0 -310.84555419 0 11575
0.10350000 0.10349800 17058.46650860 0 366.05880913 0 6359.51155516 0 396.45344799 0 713.37660128 0 11364
0.10450000 0.10450100 16837.02001223 0 286.43439966 0 6835.86511351 0 25.02046456 0 272.56077667 0 12093
0.10550000 0.10551000 16598.41141238 0 39.02252653 0 6074.66492688 0 961.65909131 0 1143.10681428 0 12067
0.10650000 0.10649700 16725.52170130 0 217.06074851 0 5784.21570224 0 1177.03241752 0 -0.34526498 0 12054
0.10750000 0.10749900 16240.88604399 0 364.28723716 0 5748.72890119 0 571.69402566 0 1090.52323648 0 12807
0.10850000 0.10850100 16141.78873686 0 23.98774883 0 4837.46549629 0 741.26225133 0 1192.14614090 0 12736
0.10950000 0.10950300 15909.93425516 0 88.65377963 0 4531.08319624 0 1015.02769694 0 1651.73619947 0 12933
0.11050000 0.11050200 15858.44794475 0 -18.65420996 0 4083.51768242 0 916.85492893 0 819.94440596 0 13428
0.11150000 0.11150900 15765.55113953 0 42.26084937 0 3622.23355815 0 322.34969968 0 609.69756614 0 13453
0.11250000 0.11250000 15620.28223791 0 250.24561323 0 3614.97011307 0 -294.37325656 0 805.46291233 0 13668
0.11350000 0.11349100 15258.21721634 0 536.77302042 0 3612.79993740 0 383.97715239 0 720.28241026 0 13791
0.11450000 0.11448600 14990.70984872 0 338.73120425 0 3427.51565389 0 -15.27770451 0 922.52949540 0 14205
0.11550000 0.11549300 14802.48032680 0 171.39073033 0 3896.19609113 0 49.72824667 0 851.48281597 0 14776
0.11650000 0.11649800 14736.71071738 0 264.72378516 0 3886.71818109 0 31.78022959 0 1241.29619077 0 14553
0.11750000 0.11747300 14282.41323007 0 580.43894781 0 4043.40264960 0 173.26416769 0 1925.28905644 0 14568
0.11850000 0.11849100 14242.10996773 0 103.30301899 0 4133.16598690 0 569.84162572 0 2018.14157237 0 16015
0.11950000 0.11950300 13954.11879920 0 -134.23865164 0 4141.61417074 0 310.16792791 0 2589.29637581 0 15270
0.12050000 0.12050700 13861.99705670 0 261.05884564 0 4007.76083601 0 549.89704703 0 2048.52403167 0 15999
0.12150000 0.12150000 14155.74583414 0 20.48025777 0 3994.87264992 0 -34.76643559 0 2307.17353944 0 15670
0.12250000 0.12250700 13588.95352668 0 239.73797697 0 3775.40809969 0 -486.31754345 0 1545.17614542 0 16887
0.12350000 0.12352200 13947.58612755 0 60.30508496 0 4152.06644537 0 -247.64250966 0 1604.45737250 0 16407
0.12450000 0.12449800 13648.41191095 0 -16.52843432 0 3970.67962019 0 -535.54399236 0 1353.35919026 0 16306
0.12550000 0.12549900 13695.46929143 0 249.55580739 0 4489.31838702 0 445.35437055 0 1130.72795513 0 17523
0.12650000 0.12650100 13429.06915630 0 294.44522667 0 4254.98370456 0 333.76637380 0 1122.22440967 0 17154
0.12750000 0.12750600 13230.54237230 0 298.40579726 0 3931.05176966 0 424.67791119 0 1046.34687492 0 18007
0.12850000 0.12850300 13039.43404593 0 337.13125331 0 3935.51391657 0 297.98283445 0 1789.64200509 0 17496
0.12950000 0.12949900 12567.42083891 0 337.90520882 0 4076.96286612 0 -9.98094791 0 1076.46802736 0 18405
0.13050000 0.13049000 12387.49556061 0 241.25488547 0 4237.29012950 0 -18.13248202 0 1384.32848278 0 18100
0.13150000 0.13148800 12136.26451047 0 126.25329098 0 3645.96155023 0 47.77243122 0 738.39894813 0 19059
0.13250000 0.13249300 12022.21956484 0 -156.69111190 0 3467.26529998 0 395.94633551 0 825.81052365 0 18957
0.13350000 0.13349100 12330.80525753 0 -132.91883052 0 3149.01346772 0 657.72266781 0 64.34216531 0 19468
0.13450000 0.13450700 12259.16731596 0 43.30386237 0 2679.61332936 0 340.28354419 0 76.41808565 0 19953
0.13550000 0.13551000 12234.69747811 0 177.89904286 0 2333.72497435 0 -23.91511438 0 -176.95346632 0 19956
0.13650000 0.13649900 12141.02561014 0 150.69987694 0 2475.48394900 0 111.26911380 0 254.96131637 0 19723
0.13750000 0.13749600 11829.67183624 0 312.56951517 0 2222.12701250 0 77.09859073 0 137.75632923 0 20946
0.13850000 0.13851100 11802.65536368 0 51.92687821 0 2182.41058338 0 9.78977315 0 203.37203334 0 20955
0.13950000 0.13949800 11471.03923537 0 58.58643870 0 2458.89760643 0 -34.35443438 0 21.45052559 0 20506
0.14050000 0.14048300 11522.63626902 0 225.62740622 0 2312.12286863 0 56.82649267 0 118.93891320 0 21447
0.14150000 0.14148400 11440.03672587 0 288.59018131 0 2477.69841397 0 -14.26824065 0 -2.68141812 0 21771
0.14250000 0.14249400 11035.78614674 0 297.56540780 0 2492.14779786 0 -245.27746108 0 200.96269546 0 22470
0.14350000 0.14350900 10975.78521855 0 241.51508511 0 2826.99704502 0 -298.92730376 0 92.53341153 0 22519
0.14450000 0.14449900 10811.62693079 0 130.11974680 0 3030.58388146 0 -183.06981855 0 47.46506348 0 22218
0.14550000 0.14550500 10683.21010754 0 176.20165547 0 3196.40301795 0 -67.99492526 0 -63.68568717 0 23559
0.14650000 0.14650700 10631.98953293 0 48.21299902 0 2957.66155021 0 266.47210525 0 181.40564813 0 23044
0.14750000 0.14750500 10663.24670590 0 -10.45412371 0 2890.29752601 0 1.48610529 0 -406.18712874 0 23649
0.14850000 0.14849900 10631.56878459 0 58.77455750 0 2786.97059080 0 25.28332155 0 -142.27162329 0 23640
0.14950000 0.14949500 10506.57330971 0 213.72244258 0 2821.36123169 0 32.84837676 0 -475.15774727 0 24457
0.15050000 0.15050000 10281.97120077 0 322.94649799 0 2774.61387630 0 -78.78734171 0 -13.75271321 0 24591
0.15150000 0.15149900 10137.06768586 0 213.84534538 0 2895.56795262 0 137.60020945 0 -212.43473120 0 25020
0.15250000 0.15250500 9828.58164409 0 120.15133277 0 2906.41883095 0 460.42380463 0 274.09650812 0 25297
0.15350000 0.15350100 9889.67873244 0 44.15720644 0 2878.82659750 0 282.45832782 0 355.52127760 0 25452
0.15450000 0.15450400 9795.06571687 0 132.77046137 0 2735.31819552 0 236.56907761 0 453.36962649 0 26061
0.15550000 0.15549900 9664.60051353 0 231.90319993 0 2741.61834835 0 123.40548903 0 381.35079694 0 26128
0.15650000 0.15649500 9401.65494374 0 228.28919311 0 2846.57291530 0 -49.90285723 0 811.48072087 0 26331
0.15750000 0.15749700 9140.73560938 0 282.51590391 0 2694.67169111 0 4.96736601 0 527.78229267 0 27345
0.15850000 0.15849900 9073.29407891 0 84.43389520 0 2707.16127351 0 150.02778683 0 399.13848676 0 26980
0.15950000 0.15949700 9006.73833443 0 -5.80737901 0 2709.13214733 0 -22.16147957 0 167.65160624 0 27777
0.16050000 0.16050000 9048.06025065 0 17.87505046 0 2499.67697873 0 10.20042353 0 -14.91331430 0 28224
0.16150000 0.16150500 9029.10443056 0 45.41923002 0 2648.35615640 0 -64.13511283 0 195.31470257 0 28075
0.16250000 0.16249700 9207.29135387 0 33.36700446 0 2643.41789953 0 -26.24960334 0 -85.31071260 0 28590
0.16350000 0.16349900 8909.47903322 0 166.00293708 0 2768.09227699 0 -157.52928689 0 131.06421611 0 29163
0.16450000 0.16449100 8946.44952579 0 254.85834375 0 2684.25263346 0 134.64279149 0 502.27165628 0 28996
0.16550000 0.16550500 8880.97886914 0 62.37262017 0 2738.72847157 0 334.65326702 0 789.38478946 0 30777
0.16650000 0.16650700 8761.96244966 0 -76.99761113 0 2610.45558854 0 601.17298326 0 897.28791651 0 29211
0.16750000 0.16749900 8787.67238789 0 32.98213045 0 2595.41937144 0 411.89159049 0 841.51883087 0 30922
0.16850000 0.16850800 8715.41439613 0 222.84050207 0 2506.58610942 0 52.96247275 0 811.22605740 0 30867
0.16950000 0.16949900 8524.94826459 0 257.30532753 0 2623.57629345 0 -104.08882188 0 1047.89589316 0 30852
0.17050000 0.17049200 8540.31665144 0 59.80705178 0 2722.68467291 0 -285.93946674 0 1091.35476807 0 31257
0.17150000 0.17149500 8424.74372499 0 68.10930238 0 2672.81492192 0 -71.04158616 0 1153.28228079 0 32608
0.17250000 0.17250900 8381.99347886 0 45.88316043 0 2639.06647587 0 73.16857976 0 753.36540959 0 32361
0.17350000 0.17350400 8402.17832701 0 20.67955962 0 2493.53183846 0 381.95977480 0 686.60482710 0 32508
0.17450000 0.17449800 8314.62945466 0 86.44396505 0 2410.24581117 0 375.72494870 0 623.27223637 0 32791
0.17550000 0.17549800 8152.47525770 0 108.12401994 0 2201.99752598 0 438.45963389 0 645.97050224 0 33633
0.17650000 0.17650100 8048.05216233 0 146.35066776 0 1877.98808482 0 220.50424153 0 587.37908100 0 33984
0.17750000 0.17750300 7903.18186440 0 193.48223281 0 2062.30907607 0 -142.86288544 0 483.92924299 0 34069
0.17850000 0.17849800 7845.28467793 0 130.20721817 0 1975.38025392 0 -292.23519064 0 526.27977819 0 34536
