### header ###
fiducial parameters:
Omega_m = 0.31
Omega_nu = 0
Omega_de = 0.69
Omega_k = 0
H_0 = 100
w_de = -1
zeff = 0
beta = 0
fgrowth = 0
b_1 = 2
gamma = 0.55
Lx = 3500 Ly = 3500 Lz = 3500
nx = 700 ny = 700 nz = 700
xoffset = -685.467585 yoffset = -31.7331281 zoffset = 572.489161
bins = 400 dk = 0.001
kx_ny = 0.628318531 ky_ny = 0.628318531 kz_ny = 0.628318531
############################
A(data) = 7.94629312 (not used)
A(ran) = 7.94187368 (used)
Ngal = 472271
weighted Ngal = 0
Nran = 23820508
weighted Nran = 0
SN(data) = 3486.01703
SN(ran) = 69.1766
SN(data+ran) = 3555.19363
############################
13 columns: k_central k_mean P_0(k) sigma^{lin}_{P_0(k)} P^img_1(k) sigma^{lin}_{P_1(k)} P_2(k) sigma^{lin}_{P_2(k)} P^img_3(k) sigma^{lin}_{P_3(k)} P_4(k) sigma^{lin}_{P_4(k)} N_modes
### header ###
0.00050000 0 0 0 0 0 0 0 0 0 0 0 0
0.00150000 0.00179520 10396.74691984 0 -15760.79003985 0 1551.90811891 0 -23927.40465634 0 6370.11884234 0 3
0.00250000 0.00253879 38360.51222719 0 -35498.42698482 0 -9344.36673512 0 -17318.55541859 0 -10325.07576129 0 6
0.00350000 0.00331552 50344.64299465 0 -19978.68145627 0 -15377.79832438 0 -3242.27565967 0 25473.87626376 0 7
0.00450000 0.00420575 69481.05270197 0 -4405.71126231 0 -1054.85042038 0 -49577.10943823 0 -11273.50896060 0 24
0.00550000 0.00557378 65335.35284337 0 987.36902954 0 16360.13498229 0 -12318.84714673 0 5101.62902182 0 45
0.00650000 0.00659388 74127.88598186 0 -205.99728155 0 34763.99967960 0 6141.64141971 0 1218.77508209 0 40
0.00750000 0.00754703 72326.75090361 0 -13150.82163360 0 6382.28732731 0 23414.53457074 0 -18913.63453196 0 57
0.00850000 0.00846663 86380.40990292 0 -12146.56177255 0 14565.75402218 0 4665.50121953 0 -28928.44160718 0 75
0.00950000 0.00948925 112218.01203698 0 -15285.45513539 0 -20924.70088877 0 -4036.80354401 0 -39316.60747528 0 112
0.01050000 0.01054430 98169.88920007 0 651.22653484 0 -6105.82244892 0 -25398.58445500 0 -6325.88490469 0 105
0.01150000 0.01145670 106827.45069902 0 16439.85572098 0 -21046.05356879 0 -11393.42223839 0 -18396.66768618 0 144
0.01250000 0.01249090 92803.13336048 0 1014.95683406 0 -5663.67130193 0 -3718.76208592 0 -5990.09450991 0 169
0.01350000 0.01339930 88489.79850413 0 5785.56652586 0 235.50613443 0 -3677.20765087 0 -42358.95016570 0 180
0.01450000 0.01448870 79435.07271393 0 10355.65752243 0 15136.20019683 0 3825.24463370 0 -37323.47828468 0 267
0.01550000 0.01550050 73360.35242543 0 8560.44613796 0 3259.94709008 0 -13005.44200873 0 -7547.80452702 0 238
0.01650000 0.01653350 66859.34763141 0 937.51477981 0 19897.63203860 0 -3800.35404750 0 2301.19448403 0 315
0.01750000 0.01747870 65963.04293734 0 3420.37400438 0 34605.88688119 0 -7157.58258344 0 17278.58432599 0 297
0.01850000 0.01844180 61814.24282779 0 9335.98498524 0 39324.46882590 0 15085.59967241 0 11848.60551168 0 388
0.01950000 0.01947590 59331.05254072 0 3764.18076232 0 31076.02972901 0 -1093.79178677 0 15375.91602916 0 399
0.02050000 0.02045430 59431.36780357 0 -122.46212696 0 27277.89014647 0 -841.39260636 0 -1454.69310700 0 462
0.02150000 0.02154770 60539.48607142 0 -3357.74893520 0 28296.54402978 0 -3344.62823029 0 -5240.22131157 0 571
0.02250000 0.02255340 67158.07895502 0 -4654.77213678 0 31414.84286846 0 -4355.12181022 0 -4669.02221883 0 510
0.02350000 0.02348930 70625.26674873 0 -492.45050417 0 35280.96652538 0 -2447.80313696 0 189.87929831 0 555
0.02450000 0.02439640 74367.49109093 0 355.95752720 0 30288.67671115 0 -637.47360018 0 -9418.04198447 0 592
0.02550000 0.02547300 69055.54325919 0 2537.69934216 0 36790.34584466 0 7376.10598606 0 -3187.36800089 0 837
0.02650000 0.02652900 69204.79819774 0 3762.48669662 0 32909.05310273 0 12229.60420869 0 -8719.83225373 0 723
0.02750000 0.02749970 62552.98833969 0 -1077.49111017 0 22955.25453727 0 18245.08755941 0 2214.48710838 0 826
0.02850000 0.02848090 65526.12900000 0 -907.03266959 0 22290.13998541 0 7688.56699244 0 3754.73606925 0 831
0.02950000 0.02946900 64616.09462315 0 1563.62263856 0 15960.53477958 0 2000.22655081 0 -3567.86844329 0 996
0.03050000 0.03053250 63512.40528523 0 3106.72825924 0 15603.23085768 0 -689.37180107 0 -2841.56822448 0 1041
0.03150000 0.03150510 55897.08172146 0 6112.07831244 0 9659.30794227 0 -4313.23520543 0 3561.10325282 0 1036
0.03250000 0.03246190 56854.28420203 0 2837.01749898 0 11306.39376531 0 177.10958610 0 -1230.65568662 0 1059
0.03350000 0.03345080 53447.32985534 0 376.28853003 0 13916.47289481 0 -2544.11021823 0 -4775.33868173 0 1302
0.03450000 0.03451200 52431.22260673 0 1646.02287986 0 16522.01237114 0 376.21545269 0 -17174.94736569 0 1339
0.03550000 0.03553350 50305.77913454 0 1549.35041187 0 19897.52131535 0 -2365.45825728 0 -9856.57248123 0 1365
0.03650000 0.03647120 48499.21861713 0 2442.44413175 0 13702.00196307 0 -1050.21443798 0 -8593.80705264 0 1308
0.03750000 0.03744890 50067.39198120 0 -1389.24459500 0 17796.21551127 0 2860.02578996 0 -7650.28996555 0 1579
0.03850000 0.03847530 49487.97722344 0 -153.73258671 0 17391.85420889 0 389.29629723 0 -6946.30048125 0 1662
0.03950000 0.03950240 50961.03931731 0 3377.85627707 0 15917.79560578 0 -131.59900940 0 -5014.10229412 0 1683
0.04050000 0.04050350 47517.21412897 0 2372.40060494 0 16447.82779485 0 553.04933790 0 2320.39389527 0 1822
0.04150000 0.04152450 48535.86801228 0 124.42967908 0 21319.31854531 0 5464.42481682 0 4197.16402435 0 1887
0.04250000 0.04250150 45953.91258782 0 -42.92751405 0 22972.08447099 0 7541.68153140 0 10158.97981668 0 1920
0.04350000 0.04349210 47021.61687008 0 2840.51635363 0 21813.91929496 0 4521.97067291 0 3501.60057925 0 2005
0.04450000 0.04448520 43658.73037616 0 3124.12288153 0 24182.40029692 0 1043.41492331 0 10488.84651768 0 2151
0.04550000 0.04548030 41001.92603593 0 3067.07826406 0 23622.36210759 0 -1978.85696391 0 7608.89054305 0 2274
0.04650000 0.04648670 40207.70817669 0 1857.81430900 0 22952.81862581 0 -1820.81059945 0 7284.36070261 0 2311
0.04750000 0.04749250 39159.38046286 0 -936.91687427 0 21664.66435640 0 -595.92913023 0 7101.45696894 0 2568
0.04850000 0.04851840 39605.59515305 0 -329.77147900 0 20061.72389241 0 3589.97987595 0 19.31854945 0 2493
0.04950000 0.04949480 39448.81103362 0 428.72373868 0 18215.30300565 0 441.21664277 0 -904.52921694 0 2644
0.05050000 0.05050630 39742.55981106 0 -746.80173544 0 15737.98105073 0 3461.33053388 0 -3926.76677996 0 2829
0.05150000 0.05149060 38765.98076205 0 453.18028973 0 16773.79703751 0 2081.89601868 0 -1362.29455639 0 2784
0.05250000 0.05249300 38744.72189840 0 1383.32090122 0 15057.03307438 0 984.31528236 0 -2074.77651382 0 3055
0.05350000 0.05348950 38694.23209723 0 538.09505600 0 16302.33744673 0 32.68971035 0 958.95633682 0 3009
0.05450000 0.05448610 37984.38535310 0 -180.75459543 0 15551.96599377 0 2750.87481189 0 2319.27559046 0 3336
0.05550000 0.05550870 38274.36954010 0 409.69705571 0 16170.46605814 0 470.07887187 0 2448.15745135 0 3349
0.05650000 0.05647670 37742.12288607 0 417.63480537 0 15573.33558067 0 2465.88424339 0 1911.17184230 0 3324
0.05750000 0.05747970 37044.01280626 0 216.07641884 0 14274.44115620 0 4235.10888151 0 2101.70440778 0 3639
0.05850000 0.05849280 35474.17859347 0 1474.11396473 0 12643.70915691 0 1559.30443189 0 4326.88738193 0 3846
0.05950000 0.05951020 35487.02249026 0 955.86272927 0 12599.08768789 0 1606.26216144 0 2751.76059788 0 3787
0.06050000 0.06049470 33630.30434142 0 1696.10300502 0 11727.80644791 0 628.61020416 0 6706.29676848 0 3930
0.06150000 0.06148310 33851.52939130 0 -222.13962391 0 11165.33234712 0 99.57507794 0 4855.71268759 0 4083
0.06250000 0.06249100 32969.50799624 0 -118.63442427 0 12436.65668280 0 109.32282054 0 5900.36438958 0 4303
0.06350000 0.06350600 34310.58797828 0 1094.01987666 0 12953.51280533 0 -1120.24246353 0 2700.78361441 0 4470
0.06450000 0.06451750 32918.02168584 0 305.47879835 0 12530.54999726 0 -740.76399671 0 2594.71074265 0 4479
0.06550000 0.06550280 31830.16577240 0 1844.94826756 0 13196.32888861 0 1221.15563192 0 1959.62433570 0 4636
0.06650000 0.06648880 30508.57308205 0 1411.16779814 0 11953.90332071 0 783.47881140 0 947.13884454 0 4653
0.06750000 0.06749660 29206.02479038 0 1376.19032403 0 12109.13731466 0 2892.95488397 0 -210.77166802 0 5220
0.06850000 0.06852730 27821.87346481 0 681.37536808 0 10495.95495021 0 2005.80700252 0 -55.71604921 0 5029
0.06950000 0.06949320 26546.00947595 0 857.63238518 0 9426.55660225 0 2236.26637130 0 2410.71084881 0 5040
0.07050000 0.07048030 27486.82491579 0 -152.29650618 0 9125.05719744 0 1661.75665343 0 1352.19659615 0 5475
0.07150000 0.07148790 26322.68068436 0 -550.64553618 0 7950.60463160 0 423.52306771 0 1570.24388881 0 5509
0.07250000 0.07249820 27274.67917227 0 498.47606334 0 8320.42028054 0 425.11416078 0 1754.49844611 0 5916
0.07350000 0.07351270 26364.86624192 0 838.60016604 0 8304.77508558 0 -2176.59761285 0 1164.53176280 0 5721
0.07450000 0.07449140 26409.15554119 0 581.58161173 0 9696.88741270 0 -558.58660754 0 1933.69295098 0 6028
0.07550000 0.07549160 25763.30683452 0 -146.23994451 0 8531.51415321 0 -1153.73624610 0 1313.41024231 0 6183
0.07650000 0.07648840 26178.51901522 0 190.88023648 0 9422.11660000 0 989.08856158 0 1929.54082917 0 6330
0.07750000 0.07749960 26176.96888975 0 -306.86062449 0 8841.47281419 0 881.49878132 0 -48.94598692 0 6583
0.07850000 0.07848650 26196.56690468 0 374.47488323 0 8572.23816390 0 101.14247624 0 451.81728655 0 6549
0.07950000 0.07947320 25842.91684997 0 928.12987730 0 8490.30296024 0 -193.46340986 0 -1523.13114670 0 6828
0.08050000 0.08048110 24811.41906986 0 527.03823244 0 8673.31741716 0 247.93149734 0 32.00787659 0 7147
0.08150000 0.08149960 24976.72887941 0 -172.94307027 0 9046.51012518 0 165.94646822 0 -967.50527882 0 7386
0.08250000 0.08250610 24564.72767290 0 -205.71383004 0 8730.29560068 0 949.73973364 0 -866.81909308 0 7227
0.08350000 0.08350160 25059.10697606 0 973.36696757 0 8847.00897659 0 151.90233142 0 -193.66160447 0 7798
0.08450000 0.08449610 23752.24047771 0 1238.69419444 0 7712.94825169 0 598.62302686 0 311.53978896 0 7371
0.08550000 0.08548940 23187.33046546 0 1122.65623034 0 9387.13912590 0 54.78065921 0 2043.30896668 0 8256
0.08650000 0.08650700 22290.25070866 0 1181.69386627 0 9077.45727305 0 889.27155334 0 1304.72953965 0 8037
0.08750000 0.08749060 21089.67852857 0 649.54132700 0 8868.74395021 0 1891.98350339 0 2854.54498917 0 8155
0.08850000 0.08849210 21219.55689869 0 -104.10354807 0 8204.29373785 0 1523.59618435 0 2383.87153345 0 8718
0.08950000 0.08949900 21120.57031482 0 -352.66351057 0 7142.86746376 0 1366.15879775 0 706.18291184 0 8571
0.09050000 0.09049190 21053.69347291 0 162.19516457 0 6746.57788617 0 -1240.90865940 0 -1119.17952034 0 8932
0.09150000 0.09150830 20295.68211583 0 603.02095427 0 5833.03358236 0 -471.31786502 0 -53.58728404 0 9285
0.09250000 0.09250820 20089.18325796 0 108.83597042 0 5667.40267540 0 -671.38813110 0 -941.95478206 0 9204
0.09350000 0.09350330 20138.01221041 0 208.97241523 0 6117.50375160 0 769.22651489 0 -1209.57398016 0 9349
0.09450000 0.09448040 20203.00675709 0 334.35320701 0 5560.42187300 0 995.72974201 0 -2367.01945508 0 9564
0.09550000 0.09549270 18997.34130759 0 587.77214853 0 5124.15013050 0 210.88017680 0 -881.88852716 0 10155
0.09650000 0.09649430 18840.33574166 0 868.04258497 0 5925.05567393 0 469.11779408 0 -622.70090441 0 9913
0.09750000 0.09749140 18184.52194266 0 730.53316858 0 6511.81138304 0 114.27524999 0 655.93891628 0 10476
0.09850000 0.09850240 17557.27474168 0 582.73091904 0 6147.31045001 0 630.00642432 0 460.42380463 0 10575
0.09950000 0.09950330 17421.19586966 0 369.19006259 0 6392.91675914 0 -558.82355529 0 575.82843175 0 10882
0.10050000 0.10051200 17172.95434722 0 376.21434546 0 6421.74909297 0 421.74928127 0 1471.46767910 0 10875
0.10150000 0.10150300 16654.65882246 0 192.99837222 0 6351.82736174 0 787.47924236 0 2296.64375853 0 11118
0.10250000 0.10250800 16583.46377388 0 -194.61714610 0 5222.73811068 0 1468.36742815 0 820.45262567 0 11575
0.10350000 0.10349800 16700.05535422 0 69.30699576 0 4781.04092902 0 1110.56525164 0 1237.31015383 0 11364
0.10450000 0.10450100 16221.50947556 0 338.44775273 0 4859.55478431 0 905.80917769 0 420.41506613 0 12093
0.10550000 0.10551000 15977.25399006 0 492.92439967 0 4230.63566228 0 -293.91043338 0 423.82755664 0 12067
0.10650000 0.10649700 15210.93838936 0 702.77152856 0 4389.74496993 0 -465.02878452 0 772.99553426 0 12054
0.10750000 0.10749900 15069.98769442 0 261.20278587 0 4059.46859291 0 -40.56301908 0 433.05855384 0 12807
0.10850000 0.10850100 14772.36360329 0 -222.35664147 0 4170.94475918 0 -114.43801316 0 72.53823231 0 12736
0.10950000 0.10950300 15194.10845564 0 -26.30928317 0 4380.62137427 0 -440.51133568 0 -698.36363605 0 12933
0.11050000 0.11050200 15230.20423454 0 99.46878362 0 4511.76198943 0 -530.23259815 0 -357.50100928 0 13428
0.11150000 0.11150900 15141.73635924 0 444.16077394 0 5355.53957456 0 -912.25880690 0 -426.30886463 0 13453
0.11250000 0.11250000 14851.08783275 0 490.91255825 0 5505.70244375 0 -175.76651310 0 598.93637365 0 13668
0.11350000 0.11349100 14879.21153779 0 176.04110676 0 5844.27199205 0 82.49723487 0 99.44187788 0 13791
0.11450000 0.11448600 14245.43166517 0 360.38867159 0 6049.29823072 0 528.59721577 0 1471.52304072 0 14205
0.11550000 0.11549300 14417.27414636 0 61.95685437 0 6119.89537376 0 1133.15279427 0 1243.33349854 0 14776
0.11650000 0.11649800 14404.98386581 0 -334.06532657 0 5468.95339767 0 1332.48785798 0 2204.52201604 0 14553
0.11750000 0.11747300 14573.17247981 0 -192.11037177 0 5224.26609151 0 863.31359504 0 1775.66873117 0 14568
0.11850000 0.11849100 14709.02990533 0 96.08951009 0 4562.34036920 0 384.82529247 0 1492.35008371 0 16015
0.11950000 0.11950300 14462.11706187 0 418.49180331 0 4864.20516073 0 -28.74176221 0 1575.75790657 0 15270
0.12050000 0.12050700 14213.10047670 0 461.50667800 0 4291.82132923 0 -663.75929930 0 800.36742845 0 15999
0.12150000 0.12150000 13734.33315155 0 320.15184320 0 4547.58096022 0 -472.54246415 0 727.85920214 0 15670
0.12250000 0.12250700 13681.85033190 0 275.79610998 0 4681.66681377 0 -397.87402727 0 -130.90588187 0 16887
0.12350000 0.12352200 13323.77134727 0 29.47209276 0 4760.56820043 0 217.58446948 0 -364.25402019 0 16407
0.12450000 0.12449800 13337.27958355 0 49.38201507 0 4244.87467200 0 842.31714549 0 -490.98563560 0 16306
0.12550000 0.12549900 13033.34426728 0 62.92845087 0 4175.17438726 0 581.78755697 0 -522.50411542 0 17523
0.12650000 0.12650100 13071.87595765 0 189.13413085 0 3894.87848448 0 574.39124399 0 -577.92442284 0 17154
0.12750000 0.12750600 12771.59450856 0 353.81281788 0 4132.95561273 0 -349.08161349 0 -782.60299051 0 18007
0.12850000 0.12850300 12769.60149010 0 317.88423108 0 4438.71786260 0 -517.75630254 0 383.10797489 0 17496
0.12950000 0.12949900 12413.18335418 0 186.52438389 0 4744.04829180 0 -533.75802637 0 573.54531837 0 18405
0.13050000 0.13049000 12554.02332588 0 62.86899249 0 4697.26771944 0 269.51256564 0 1289.33900816 0 18100
0.13150000 0.13148800 12549.37294945 0 -176.20608440 0 4829.92524309 0 473.95086386 0 -334.81381573 0 19059
0.13250000 0.13249300 12496.11506708 0 81.73102999 0 4472.55488724 0 109.69994393 0 7.32609229 0 18957
0.13350000 0.13349100 12298.91696206 0 376.56312369 0 4231.54359292 0 76.26871999 0 -951.59324082 0 19468
0.13450000 0.13450700 12037.61009634 0 294.11859309 0 4317.59770141 0 -326.72548245 0 -611.24326268 0 19953
0.13550000 0.13551000 11841.62994705 0 246.49873851 0 4299.28407616 0 -109.66484466 0 -501.23750115 0 19956
0.13650000 0.13649900 11631.03432900 0 104.79933296 0 4225.04413825 0 425.00343754 0 -673.67456617 0 19723
0.13750000 0.13749600 11531.49412888 0 255.97221962 0 3969.72740025 0 359.29472590 0 -639.27396019 0 20946
0.13850000 0.13851100 11420.66015744 0 259.99811693 0 4018.64493130 0 388.47473073 0 -563.55143799 0 20955
0.13950000 0.13949800 11091.25849409 0 175.60153546 0 3832.85132085 0 373.16724167 0 -126.93313172 0 20506
0.14050000 0.14048300 10937.18709423 0 409.50661172 0 3856.61252991 0 368.30870553 0 306.89605593 0 21447
0.14150000 0.14148400 10577.91229852 0 220.21746832 0 3574.58934445 0 318.50538850 0 324.29842885 0 21771
0.14250000 0.14249400 10531.09850919 0 140.35721833 0 3578.49787511 0 141.67593222 0 552.85889391 0 22470
0.14350000 0.14350900 10305.37809543 0 20.54624883 0 3551.04958189 0 74.93406195 0 629.49599015 0 22519
0.14450000 0.14449900 10485.17050584 0 47.72426660 0 3823.63914660 0 233.55297633 0 630.61983112 0 22218
0.14550000 0.14550500 10470.54396475 0 150.29905879 0 3715.25215895 0 -218.53558218 0 513.29304841 0 23559
0.14650000 0.14650700 10318.28842617 0 132.46597243 0 3955.46624589 0 68.16831787 0 560.69588542 0 23044
0.14750000 0.14750500 10168.95598134 0 175.22175472 0 3823.80523147 0 -123.62915000 0 453.86123771 0 23649
0.14850000 0.14849900 10173.87209356 0 127.30405460 0 4031.34488787 0 265.25968568 0 486.67296508 0 23640
0.14950000 0.14949500 9986.06331999 0 59.73718542 0 3833.51566034 0 192.87989834 0 365.35682374 0 24457
0.15050000 0.15050000 10020.18822508 0 111.02552265 0 3558.82235391 0 307.86599158 0 451.68109695 0 24591
0.15150000 0.15149900 9706.09958695 0 152.22342884 0 3350.37476687 0 494.54981695 0 470.92147579 0 25020
0.15250000 0.15250500 9748.45122938 0 89.45231570 0 3131.65206241 0 307.41313350 0 317.61628082 0 25297
0.15350000 0.15350100 9500.32043019 0 56.26158265 0 2893.39777696 0 496.65466590 0 211.40832669 0 25452
0.15450000 0.15450400 9609.78143335 0 -38.05989861 0 2760.37486659 0 204.85572486 0 311.38256194 0 26061
0.15550000 0.15549900 9598.60945761 0 -36.52660307 0 2655.57531218 0 -100.70988051 0 265.45345136 0 26128
0.15650000 0.15649500 9688.54995211 0 125.97316116 0 2767.74903492 0 -4.15180071 0 54.91740242 0 26331
0.15750000 0.15749700 9450.31781131 0 200.53751819 0 2526.02911180 0 -7.81314172 0 560.67927693 0 27345
0.15850000 0.15849900 9444.02873082 0 122.90944888 0 2478.73921250 0 55.63942872 0 478.27017777 0 26980
0.15950000 0.15949700 9360.11158102 0 77.23134791 0 2603.23643276 0 64.01763547 0 423.80984092 0 27777
0.16050000 0.16050000 9258.83302590 0 236.44063864 0 2678.99327917 0 43.06935053 0 -61.16097566 0 28224
0.16150000 0.16150500 9052.62204848 0 275.64441913 0 2770.88250284 0 -67.01546741 0 373.93566101 0 28075
0.16250000 0.16249700 8732.53221029 0 203.16608810 0 2703.68456352 0 -79.57868077 0 424.92482403 0 28590
0.16350000 0.16349900 8661.68040378 0 183.85152468 0 2709.49753405 0 354.94773118 0 508.71574933 0 29163
0.16450000 0.16449100 8603.37354129 0 15.44755397 0 2774.00489844 0 329.33190771 0 354.88018999 0 28996
0.16550000 0.16550500 8575.80345249 0 32.86753188 0 2615.89210003 0 317.99827602 0 719.99452982 0 30777
0.16650000 0.16650700 8554.76603533 0 -3.34847033 0 2341.64168660 0 351.21857218 0 746.99328666 0 29211
0.16750000 0.16749900 8483.07273213 0 -2.91466771 0 2331.05654407 0 365.70560197 0 1087.83266155 0 30922
0.16850000 0.16850800 8516.42257448 0 66.72504033 0 2264.45651029 0 222.14294560 0 1071.75453868 0 30867
0.16950000 0.16949900 8501.07633229 0 11.53226919 0 2142.42841846 0 241.76642688 0 1041.60238373 0 30852
0.17050000 0.17049200 8402.35548420 0 194.49645776 0 2002.38565415 0 -146.58429381 0 1047.24705493 0 31257
0.17150000 0.17149500 8262.31271990 0 189.86490429 0 2261.72164606 0 -141.46555805 0 922.67343563 0 32608
0.17250000 0.17250900 8130.21988481 0 203.98654737 0 2015.04132142 0 -192.58316004 0 790.24843079 0 32361
0.17350000 0.17350400 7948.86627661 0 152.16142382 0 2254.59106887 0 -27.36768670 0 919.12032659 0 32508
0.17450000 0.17449800 7919.73499001 0 43.03170462 0 2189.89547496 0 77.59640245 0 864.18941593 0 32791
0.17550000 0.17549800 7819.86262014 0 109.52743711 0 2021.27504029 0 298.13341807 0 627.14644282 0 33633
0.17650000 0.17650100 7764.33491118 0 76.31987413 0 2038.02746774 0 63.02334070 0 830.14644605 0 33984
0.17750000 0.17750300 7789.19228040 0 27.28176546 0 2081.66349985 0 62.75472610 0 583.59566761 0 34069
0.17850000 0.17849800 7719.96810563 0 -10.51288453 0 2009.12869997 0 -188.64362687 0 421.26652791 0 34536
