### header ###
fiducial parameters:
Omega_m = 0.31
Omega_nu = 0
Omega_de = 0.69
Omega_k = 0
H_0 = 100
w_de = -1
zeff = 0
beta = 0
fgrowth = 0
b_1 = 2
gamma = 0.55
Lx = 3500 Ly = 3500 Lz = 3500
nx = 700 ny = 700 nz = 700
xoffset = -685.467585 yoffset = -31.7331281 zoffset = 572.489161
bins = 400 dk = 0.001
kx_ny = 0.628318531 ky_ny = 0.628318531 kz_ny = 0.628318531
############################
A(data) = 7.98705778 (not used)
A(ran) = 7.98280764 (used)
Ngal = 474073
weighted Ngal = 0
Nran = 23820508
weighted Nran = 0
SN(data) = 3490.51035
SN(ran) = 69.5331497
SN(data+ran) = 3560.0435
############################
13 columns: k_central k_mean P_0(k) sigma^{lin}_{P_0(k)} P^img_1(k) sigma^{lin}_{P_1(k)} P_2(k) sigma^{lin}_{P_2(k)} P^img_3(k) sigma^{lin}_{P_3(k)} P_4(k) sigma^{lin}_{P_4(k)} N_modes
### header ###
0.00050000 0 0 0 0 0 0 0 0 0 0 0 0
0.00150000 0.00179520 32555.62449452 0 -44009.61234967 0 26582.43742461 0 -52729.51103734 0 -33051.99681614 0 3
0.00250000 0.00253879 48780.34494428 0 -28914.82264765 0 3801.27305046 0 9073.39372984 0 35940.98780782 0 6
0.00350000 0.00331552 61846.68473951 0 -6924.91982203 0 23084.57929115 0 -66079.63451768 0 -31315.08122184 0 7
0.00450000 0.00420575 55573.10549727 0 16471.63329321 0 8701.31932663 0 -8551.89830320 0 55864.30764000 0 24
0.00550000 0.00557378 47894.55895878 0 -1190.81746192 0 9707.64971242 0 -323.29084729 0 -9618.32926811 0 45
0.00650000 0.00659388 61980.43842332 0 -25383.41536999 0 4836.83437378 0 -12402.55392236 0 -9728.77570818 0 40
0.00750000 0.00754703 86654.67138868 0 -18755.74318005 0 25165.84418731 0 -4481.31309618 0 -56012.56606932 0 57
0.00850000 0.00846663 86393.36452296 0 1653.36383122 0 28242.17891492 0 -43244.07181171 0 -36740.29893648 0 75
0.00950000 0.00948925 87373.92960890 0 2338.15390428 0 20491.55154187 0 -30602.68784301 0 -28738.55123654 0 112
0.01050000 0.01054430 90881.19921846 0 10186.21773573 0 23987.85954985 0 -15153.80519330 0 -27857.63707397 0 105
0.01150000 0.01145670 73325.80677200 0 4787.18606929 0 18016.66549840 0 2233.13290337 0 -16299.90153527 0 144
0.01250000 0.01249090 75257.37383661 0 9762.83417932 0 20985.70939852 0 14177.55831404 0 -25408.54954733 0 169
0.01350000 0.01339930 71280.52693150 0 5273.20576721 0 13696.24435417 0 15659.47826776 0 -29552.58855721 0 180
0.01450000 0.01448870 60172.32778044 0 1496.17003577 0 7441.21125600 0 5847.09543488 0 -24161.03071002 0 267
0.01550000 0.01550050 61385.30096432 0 -1640.42028351 0 3636.09610882 0 8182.54769190 0 -6256.06282438 0 238
0.01650000 0.01653350 65531.00082292 0 -597.80588928 0 15241.27655936 0 -11009.95441294 0 -3577.81139097 0 315
0.01750000 0.01747870 67610.05125411 0 -818.87371215 0 18121.96330743 0 -18588.10818230 0 -3532.81346291 0 297
0.01850000 0.01844180 71080.33929877 0 3974.34455970 0 29206.68912987 0 -4540.09606864 0 8258.02773019 0 388
0.01950000 0.01947590 67737.82588252 0 2338.53036332 0 22817.51481652 0 1831.39574198 0 6751.13968400 0 399
0.02050000 0.02045430 74437.46818379 0 -7860.49805223 0 21645.61995772 0 8050.85346051 0 722.96302010 0 462
0.02150000 0.02154770 75948.61907504 0 -5142.88450409 0 20352.04024915 0 10364.77004576 0 -13933.85644478 0 571
0.02250000 0.02255340 75322.58982979 0 3551.11601584 0 13025.37219341 0 3392.49389048 0 -20373.85272905 0 510
0.02350000 0.02348930 70785.70473535 0 10336.94529349 0 17370.48462199 0 837.37113799 0 -17169.07903354 0 555
0.02450000 0.02439640 63334.58374864 0 5897.60738070 0 7666.66593395 0 -8425.85095747 0 -3819.49809712 0 592
0.02550000 0.02547300 61268.59866073 0 2210.81109654 0 10840.96859156 0 862.66475681 0 -13434.16242571 0 837
0.02650000 0.02652900 60246.84452647 0 271.50447688 0 14761.95561796 0 1236.81189922 0 -15641.54110156 0 723
0.02750000 0.02749970 61139.16318360 0 -1528.26870542 0 14042.36522800 0 -784.88499665 0 -22610.57306566 0 826
0.02850000 0.02848090 62789.38247457 0 159.26653466 0 18690.41646362 0 -7364.45790035 0 -17372.58836370 0 831
0.02950000 0.02946900 61420.62168049 0 3436.06348865 0 23822.43901706 0 -6864.46492852 0 -14247.64613014 0 996
0.03050000 0.03053250 61182.78814339 0 1927.84676347 0 27353.95701797 0 6350.97479273 0 -5309.92159630 0 1041
0.03150000 0.03150510 57768.08316932 0 -667.44970516 0 19465.47920092 0 6138.90655548 0 -4611.08074305 0 1036
0.03250000 0.03246190 61278.45302982 0 2786.01837087 0 18919.50286412 0 14593.54555747 0 -11306.39376531 0 1059
0.03350000 0.03345080 56435.41815414 0 -107.29558859 0 14802.81249654 0 6666.43639914 0 -10876.95364722 0 1302
0.03450000 0.03451200 53503.57726541 0 4257.91787063 0 11985.68089294 0 385.64021557 0 -11720.38799028 0 1339
0.03550000 0.03553350 51312.80707680 0 3409.48990908 0 12487.14648397 0 -6501.33696376 0 -11200.87450979 0 1365
0.03650000 0.03647120 48862.50159443 0 1809.87114253 0 13603.01537920 0 -5641.32735045 0 -5585.34567617 0 1308
0.03750000 0.03744890 49356.54872784 0 1072.71008031 0 13935.84946324 0 -4500.22462697 0 -6893.02045422 0 1579
0.03850000 0.03847530 48108.25482778 0 1668.07895090 0 17022.37072969 0 -186.68603984 0 -11824.91073657 0 1662
0.03950000 0.03950240 46875.24073598 0 1012.44230909 0 16629.08175213 0 2635.08043894 0 -12497.33302281 0 1683
0.04050000 0.04050350 44229.06582757 0 3157.98205083 0 14479.27916534 0 5807.27935483 0 -11172.86152800 0 1822
0.04150000 0.04152450 44637.96678312 0 24.23532601 0 14570.95801484 0 1657.73739952 0 -10636.77277726 0 1887
0.04250000 0.04250150 42443.76417381 0 169.25598611 0 12177.45355880 0 402.77574546 0 -11410.91651160 0 1920
0.04350000 0.04349210 42061.21535133 0 3362.65397510 0 13232.64611401 0 -1460.16283546 0 -6821.14999383 0 2005
0.04450000 0.04448520 39632.50090236 0 3398.51723519 0 15405.70058292 0 -3783.39124588 0 -8123.64292387 0 2151
0.04550000 0.04548030 37354.70224067 0 1230.58925267 0 15198.31593907 0 -769.46789157 0 -7275.52498741 0 2274
0.04650000 0.04648670 36807.95084112 0 -433.77604049 0 14914.86442371 0 483.51956697 0 -10798.07440521 0 2311
0.04750000 0.04749250 37381.05437374 0 -786.86140663 0 14018.55972964 0 1673.74798121 0 -13285.12893365 0 2568
0.04850000 0.04851840 38862.97432746 0 -1215.40909534 0 13873.06938152 0 2262.68493831 0 -11320.34489458 0 2493
0.04950000 0.04949480 39153.84430045 0 -1161.01076351 0 12109.46948441 0 2741.08687675 0 -14254.62169477 0 2644
0.05050000 0.05050630 38491.94072279 0 1337.55898274 0 9291.56281806 0 3391.26486243 0 -10011.57395637 0 2829
0.05150000 0.05149060 37894.14590583 0 1587.64958342 0 10199.05056020 0 2031.55015773 0 -9753.64414972 0 2784
0.05250000 0.05249300 35991.03471600 0 1326.75239372 0 6718.32131324 0 1055.06190178 0 -6866.13684956 0 3055
0.05350000 0.05348950 35638.71334027 0 1002.39860325 0 10215.52617953 0 74.69999301 0 -4144.91372354 0 3009
0.05450000 0.05448610 34808.73187187 0 618.27197448 0 10886.45370192 0 -838.48722833 0 989.87580388 0 3336
0.05550000 0.05550870 34901.51795385 0 782.18334940 0 11737.43937050 0 1259.41051417 0 2998.07553579 0 3349
0.05650000 0.05647670 34515.97960366 0 154.67594879 0 12828.94915112 0 1667.76892581 0 4131.82623560 0 3324
0.05750000 0.05747970 36308.81043830 0 -835.04373531 0 13750.16657604 0 2208.19802788 0 4721.46074917 0 3639
0.05850000 0.05849280 35309.75456991 0 60.44382118 0 13596.59343080 0 156.88930652 0 3979.29388890 0 3846
0.05950000 0.05951020 34676.08542054 0 1912.56695522 0 13200.31492554 0 -336.90094895 0 2279.02768975 0 3787
0.06050000 0.06049470 34231.97447206 0 696.71607412 0 14157.40668287 0 -153.94074642 0 2738.49595275 0 3930
0.06150000 0.06148310 33146.44374684 0 366.72647032 0 13643.09719504 0 -798.64900363 0 697.03384984 0 4083
0.06250000 0.06249100 32731.34228939 0 761.35187748 0 12555.68417460 0 -890.96783351 0 -1792.07791655 0 4303
0.06350000 0.06350600 32270.51213044 0 850.00576784 0 12129.62111558 0 812.94558944 0 -3871.72625328 0 4470
0.06450000 0.06451750 31497.88530460 0 -167.44344653 0 11672.44482382 0 1439.35793712 0 -3369.92849250 0 4479
0.06550000 0.06550280 31716.34227327 0 18.05132188 0 11407.48409091 0 1012.90181057 0 -2851.74369099 0 4636
0.06650000 0.06648880 30766.22608058 0 960.05914038 0 8729.16622355 0 2583.35053739 0 -4544.50285392 0 4653
0.06750000 0.06749660 30625.16466239 0 368.28877535 0 9841.49197483 0 1752.61615089 0 -3002.21658528 0 5220
0.06850000 0.06852730 29449.39448990 0 71.44052203 0 7606.50999321 0 1669.16403874 0 -2596.27194045 0 5029
0.06950000 0.06949320 29192.40583086 0 1112.02679851 0 7669.37865353 0 2104.78251408 0 -3618.13679796 0 5040
0.07050000 0.07048030 28864.44356973 0 643.66413698 0 6176.45280894 0 -646.02254217 0 -1921.41374275 0 5475
0.07150000 0.07148790 28219.36992579 0 766.48611450 0 8333.85101055 0 -969.36210769 0 -2040.17549876 0 5509
0.07250000 0.07249820 27650.80604636 0 482.12002511 0 7391.64045778 0 -1039.96257243 0 -1632.65858381 0 5916
0.07350000 0.07351270 27728.09087359 0 -67.03849785 0 7687.44868764 0 255.45846375 0 -2309.47658300 0 5721
0.07450000 0.07449140 27820.54478583 0 27.87546352 0 8686.08380768 0 1432.70346991 0 -1290.52374691 0 6028
0.07550000 0.07549160 27822.20563455 0 451.21052315 0 9665.99562646 0 -408.31744403 0 -1632.78037938 0 6183
0.07650000 0.07648840 27267.59288438 0 530.24809940 0 7942.51076216 0 1088.76495130 0 131.81824143 0 6330
0.07750000 0.07749960 27404.11464940 0 32.82623211 0 8551.00144489 0 1202.85307900 0 1643.32123261 0 6583
0.07850000 0.07848650 26892.90541252 0 585.35727449 0 8167.00214786 0 1564.04338691 0 1498.20734354 0 6549
0.07950000 0.07947320 26199.22426263 0 1518.21503448 0 8577.68574771 0 1209.66255876 0 3208.98117894 0 6828
0.08050000 0.08048110 24972.63211922 0 886.99508336 0 7142.12561799 0 614.95692043 0 3443.06119793 0 7147
0.08150000 0.08149960 24581.22543688 0 221.86835195 0 7826.16277297 0 286.88282882 0 4845.60365503 0 7386
0.08250000 0.08250610 24785.84199953 0 250.67964836 0 8543.85979539 0 51.90838743 0 3986.80092513 0 7227
0.08350000 0.08350160 24132.46411198 0 604.91875075 0 9859.71702148 0 -330.30516506 0 5186.85270594 0 7798
0.08450000 0.08449610 23964.93983748 0 462.07468826 0 8963.81093111 0 -224.01416850 0 3781.06605767 0 7371
0.08550000 0.08548940 23469.67474834 0 817.70890358 0 9762.73452840 0 -565.70943410 0 5175.29319883 0 8256
0.08650000 0.08650700 22896.90338547 0 731.88177775 0 9880.92052351 0 -37.07579038 0 3750.39571792 0 8037
0.08750000 0.08749060 22708.45241706 0 -285.07471818 0 10235.35671328 0 34.80463511 0 3506.11808777 0 8155
0.08850000 0.08849210 22658.62695537 0 370.82433773 0 9299.13628824 0 1272.95196743 0 2108.74640636 0 8718
0.08950000 0.08949900 22244.07911416 0 335.04190562 0 8985.67877262 0 950.08629741 0 1894.38619787 0 8571
0.09050000 0.09049190 21920.21361322 0 473.91100349 0 8284.45736953 0 682.46156315 0 1045.02373210 0 8932
0.09150000 0.09150830 21197.96586530 0 784.67905141 0 7875.67820955 0 701.68090457 0 1081.68862851 0 9285
0.09250000 0.09250820 20161.70698552 0 1012.56078297 0 7224.81373974 0 720.53928820 0 1965.71411435 0 9204
0.09350000 0.09350330 19585.61392521 0 628.05880239 0 7248.77425065 0 552.92422063 0 1169.03819900 0 9349
0.09450000 0.09448040 19216.68406225 0 389.58528491 0 6721.99732508 0 352.67901182 0 1639.10267685 0 9564
0.09550000 0.09549270 18679.89775504 0 274.26037853 0 6612.70240679 0 706.25931088 0 1368.41755201 0 10155
0.09650000 0.09649430 18593.75506795 0 261.98781370 0 6683.21097124 0 -213.15996848 0 1234.57528960 0 9913
0.09750000 0.09749140 18574.26777627 0 66.99088685 0 6366.59784305 0 -423.97481856 0 69.72984784 0 10476
0.09850000 0.09850240 18396.88913268 0 339.34903997 0 7706.24949518 0 -410.39461217 0 1263.24153856 0 10575
0.09950000 0.09950330 18046.00715917 0 210.85581768 0 6597.92085316 0 649.83917254 0 488.39692605 0 10882
0.10050000 0.10051200 17777.06038933 0 496.14755343 0 6561.28253033 0 1189.93167594 0 1575.85755749 0 10875
0.10150000 0.10150300 17636.88475713 0 353.69545124 0 5872.59499894 0 1666.08593244 0 1364.09934533 0 11118
0.10250000 0.10250800 17247.69253975 0 323.49236360 0 5729.46305601 0 1309.51278398 0 1321.55947338 0 11575
0.10350000 0.10349800 16708.13815134 0 483.05452933 0 5130.77138074 0 587.67914100 0 2209.78137033 0 11364
0.10450000 0.10450100 16142.67452285 0 684.42579357 0 5860.86940695 0 -119.95203092 0 2183.14135682 0 12093
0.10550000 0.10551000 15687.60197280 0 291.00284088 0 5428.97123275 0 81.91494130 0 2643.90508182 0 12067
0.10650000 0.10649700 15565.36350680 0 48.88243178 0 5956.84431848 0 144.15170405 0 2940.67660393 0 12054
0.10750000 0.10749900 15474.01682705 0 53.55916034 0 5698.67092069 0 -27.81954828 0 2052.85331068 0 12807
0.10850000 0.10850100 15401.38237624 0 219.53762757 0 5682.20637368 0 -125.07741008 0 1709.15727598 0 12736
0.10950000 0.10950300 15595.48023031 0 176.19501207 0 5942.41707924 0 35.79140070 0 2675.92624520 0 12933
0.11050000 0.11050200 15205.29150370 0 -112.72180282 0 5501.24029685 0 71.68045930 0 2901.50271873 0 13428
0.11150000 0.11150900 15613.86028951 0 -121.10687440 0 5777.68303059 0 456.53852585 0 2350.85386085 0 13453
0.11250000 0.11250000 15613.08522677 0 -25.61881300 0 5161.41957584 0 768.85337755 0 2373.17566768 0 13668
0.11350000 0.11349100 15569.57099024 0 132.13712439 0 5405.47575949 0 606.27732500 0 1589.11113030 0 13791
0.11450000 0.11448600 15254.00973290 0 237.75160190 0 4836.02609407 0 205.14249808 0 1145.05554345 0 14205
0.11550000 0.11549300 14892.71977407 0 406.42075479 0 4538.10305017 0 -7.28984150 0 856.09776096 0 14776
0.11650000 0.11649800 14574.72260528 0 396.60181714 0 4173.36959832 0 -186.60521187 0 128.66152163 0 14553
0.11750000 0.11747300 14469.86768925 0 306.35572648 0 4135.32509024 0 -461.03831866 0 257.09273889 0 14568
0.11850000 0.11849100 14259.38279445 0 11.45011254 0 3869.34570345 0 -196.69209978 0 -400.76058235 0 16015
0.11950000 0.11950300 14077.46449768 0 28.48554861 0 3870.78510568 0 255.26580530 0 -58.60858335 0 15270
0.12050000 0.12050700 14532.75849422 0 -162.27156361 0 3911.65305658 0 625.67935978 0 -381.20574948 0 15999
0.12150000 0.12150000 14477.28614688 0 -80.32606269 0 3854.43128192 0 606.31829260 0 29.31696949 0 15670
0.12250000 0.12250700 14453.92354151 0 380.82375428 0 3908.99569862 0 106.76566713 0 91.22222682 0 16887
0.12350000 0.12352200 14276.76634441 0 329.60317967 0 4037.98828276 0 -139.49800593 0 632.66488951 0 16407
0.12450000 0.12449800 13839.29879083 0 469.03253718 0 4768.54027430 0 -276.71289847 0 1348.97454963 0 16306
0.12550000 0.12549900 13576.55252288 0 341.89235298 0 4342.44399830 0 -200.71799708 0 1310.56465483 0 17523
0.12650000 0.12650100 13390.42674268 0 117.50061821 0 4846.04654803 0 176.74862831 0 1303.98769389 0 17154
0.12750000 0.12750600 13283.02519194 0 33.72309042 0 4297.61215511 0 472.33984060 0 996.13941803 0 18007
0.12850000 0.12850300 13237.51793693 0 -14.36468060 0 4328.92468970 0 849.66916917 0 613.94048101 0 17496
0.12950000 0.12949900 13095.12783976 0 261.70104048 0 3767.18136235 0 546.39819238 0 522.21623498 0 18405
0.13050000 0.13049000 12963.69934417 0 272.37586884 0 3922.55929653 0 270.53121953 0 675.34759445 0 18100
0.13150000 0.13148800 12557.56646982 0 246.57735201 0 3690.30621113 0 413.33431441 0 1367.89715275 0 19059
0.13250000 0.13249300 12552.58392365 0 141.32604675 0 3305.47648973 0 91.55882550 0 1432.88062711 0 18957
0.13350000 0.13349100 12402.77536885 0 0.17500917 0 3513.17115868 0 720.17390148 0 1423.66845286 0 19468
0.13450000 0.13450700 12455.03674200 0 -17.95953230 0 3214.98237899 0 171.55127904 0 1446.75425010 0 19953
0.13550000 0.13551000 12435.43872707 0 169.18512323 0 2961.50364692 0 61.43357630 0 1279.06389073 0 19956
0.13650000 0.13649900 12085.77470930 0 325.42005535 0 2826.86417712 0 170.92237099 0 1460.93789820 0 19723
0.13750000 0.13749600 11782.06083952 0 460.95527622 0 2722.85075778 0 52.60428304 0 1479.17401717 0 20946
0.13850000 0.13851100 11488.86567832 0 217.35305789 0 2977.99033857 0 31.20756895 0 1353.70243233 0 20955
0.13950000 0.13949800 11292.77480579 0 237.01972123 0 2719.59549428 0 -181.26170791 0 1001.55821380 0 20506
0.14050000 0.14048300 11244.16729983 0 237.57555194 0 3055.60733555 0 -146.15468761 0 548.73223845 0 21447
0.14150000 0.14148400 10926.39157754 0 301.48058186 0 3099.42052486 0 -391.27381444 0 842.38025774 0 21771
0.14250000 0.14249400 10843.71452812 0 29.61304345 0 3193.14775445 0 -90.97166011 0 308.79495963 0 22470
0.14350000 0.14350900 10867.85219622 0 -142.87285053 0 3131.08737384 0 86.25053153 0 128.64823484 0 22519
0.14450000 0.14449900 10811.18403780 0 52.29957266 0 3044.69002328 0 501.40580048 0 -295.62553650 0 22218
0.14550000 0.14550500 10863.25718142 0 157.24472814 0 2692.29114128 0 369.78907536 0 -122.80647626 0 23559
0.14650000 0.14650700 10616.16718077 0 114.40479619 0 2291.86051421 0 68.75315807 0 -313.97127149 0 23044
0.14750000 0.14750500 10566.96176927 0 165.64640822 0 2325.03319937 0 131.33880977 0 -433.51584086 0 23649
0.14850000 0.14849900 10420.25346543 0 227.02584085 0 2371.97985660 0 95.81380920 0 -320.93908550 0 23640
0.14950000 0.14949500 10183.70431800 0 245.69045880 0 2115.16835476 0 -48.24654816 0 -417.19744854 0 24457
0.15050000 0.15050000 10099.26676893 0 46.31143796 0 2363.85277018 0 120.13140258 0 -335.55123256 0 24591
0.15150000 0.15149900 9953.98679499 0 46.61814135 0 2708.93284548 0 -138.30662377 0 -516.28146888 0 25020
0.15250000 0.15250500 9946.20295064 0 332.75547054 0 2360.97396573 0 10.97823220 0 25.74669835 0 25297
0.15350000 0.15350100 9842.77636451 0 46.50697521 0 2313.76157270 0 25.24168961 0 69.66828571 0 25452
0.15450000 0.15450400 9822.94583076 0 6.09003331 0 2573.80619339 0 147.04490252 0 -78.47488071 0 26061
0.15550000 0.15549900 9887.20960401 0 25.36558893 0 2634.40502713 0 79.99887549 0 149.51403096 0 26128
0.15650000 0.15649500 9602.86123034 0 270.91653643 0 2594.04640316 0 81.46673359 0 227.27828985 0 26331
0.15750000 0.15749700 9590.28306935 0 221.57493534 0 2737.54373281 0 165.84017390 0 802.12128470 0 27345
0.15850000 0.15849900 9477.88790011 0 138.87684850 0 2938.57286222 0 -87.69104099 0 531.70189565 0 26980
0.15950000 0.15949700 9286.82386304 0 189.81729330 0 2978.83183526 0 353.96893766 0 919.26980298 0 27777
0.16050000 0.16050000 9073.09477707 0 157.98103774 0 2891.88086846 0 -55.24303949 0 935.77642482 0 28224
0.16150000 0.16150500 9049.54394218 0 89.60068485 0 2932.92597656 0 350.75685623 0 1337.06072813 0 28075
0.16250000 0.16249700 9050.54045141 0 -10.66188481 0 2561.11730915 0 570.52035923 0 967.76658568 0 28590
0.16350000 0.16349900 8979.96545302 0 65.63519140 0 2297.20844710 0 119.49806561 0 810.34137864 0 29163
0.16450000 0.16449100 8946.52703206 0 165.22123094 0 2097.24226087 0 42.44232477 0 930.84148964 0 28996
0.16550000 0.16550500 8794.90261600 0 100.78683317 0 2117.01743300 0 -192.63741443 0 871.58683614 0 30777
0.16650000 0.16650700 8621.45464771 0 332.53845298 0 2222.22666343 0 -200.04147803 0 989.86583879 0 29211
0.16750000 0.16749900 8495.50695290 0 138.38523728 0 2325.08856099 0 -38.53080458 0 899.36840635 0 30922
0.16850000 0.16850800 8357.13610964 0 145.15042775 0 2471.27646557 0 -36.06544074 0 909.66013227 0 30867
0.16950000 0.16949900 8225.29793803 0 95.80461917 0 2387.41467740 0 33.57604995 0 633.81862576 0 30852
0.17050000 0.17049200 8325.20352487 0 37.69750142 0 2520.73654054 0 -88.13902725 0 440.40614859 0 31257
0.17150000 0.17149500 8104.83104400 0 99.14148570 0 2379.84120722 0 70.13897024 0 280.46863105 0 32608
0.17250000 0.17250900 8029.92676660 0 176.36663311 0 2497.34071820 0 -0.12847551 0 179.47574192 0 32361
0.17350000 0.17350400 7898.35433078 0 164.85473699 0 2323.00696393 0 208.67346246 0 243.32541021 0 32508
0.17450000 0.17449800 7696.24011354 0 58.44493439 0 2223.31175126 0 397.00263530 0 395.30635514 0 32791
0.17550000 0.17549800 7836.74791549 0 -99.84313893 0 1870.78000136 0 484.30127310 0 733.45515510 0 33633
0.17650000 0.17650100 7894.96619939 0 -121.72249566 0 1734.91150351 0 415.53217089 0 478.74296604 0 33984
0.17750000 0.17750300 7929.43434655 0 64.18538119 0 1615.31932314 0 263.68077216 0 698.75891805 0 34069
0.17850000 0.17849800 7883.89387457 0 141.08577730 0 1667.20423724 0 -23.88045800 0 833.97747043 0 34536
