### header ###
fiducial parameters:
Omega_m = 0.31
Omega_nu = 0
Omega_de = 0.69
Omega_k = 0
H_0 = 100
w_de = -1
zeff = 0
beta = 0
fgrowth = 0
b_1 = 2
gamma = 0.55
Lx = 3500 Ly = 3500 Lz = 3500
nx = 700 ny = 700 nz = 700
xoffset = -685.467585 yoffset = -31.7331281 zoffset = 572.489161
bins = 400 dk = 0.001
kx_ny = 0.628318531 ky_ny = 0.628318531 kz_ny = 0.628318531
############################
A(data) = 8.01406649 (not used)
A(ran) = 8.0069648 (used)
Ngal = 476079
weighted Ngal = 0
Nran = 23820508
weighted Nran = 0
SN(data) = 3492.37212
SN(ran) = 69.7435673
SN(data+ran) = 3562.11569
############################
13 columns: k_central k_mean P_0(k) sigma^{lin}_{P_0(k)} P^img_1(k) sigma^{lin}_{P_1(k)} P_2(k) sigma^{lin}_{P_2(k)} P^img_3(k) sigma^{lin}_{P_3(k)} P_4(k) sigma^{lin}_{P_4(k)} N_modes
### header ###
0.00050000 0 0 0 0 0 0 0 0 0 0 0 0
0.00150000 0.00179520 21308.79983673 0 -10009.84667370 0 16073.14032299 0 -31069.05416437 0 -30379.35905142 0 3
0.00250000 0.00253879 27803.60412885 0 4869.92955266 0 32070.54594422 0 -9810.87699671 0 3982.25019962 0 6
0.00350000 0.00331552 33249.74853740 0 10174.80216885 0 28165.00481094 0 40350.31972035 0 -11182.71589709 0 7
0.00450000 0.00420575 30135.54645891 0 8605.69872950 0 52087.98053735 0 22998.43660406 0 381.33418845 0 24
0.00550000 0.00557378 41490.32628368 0 2293.33313341 0 57704.63874811 0 40133.63432365 0 -39953.70904535 0 45
0.00650000 0.00659388 46547.94281434 0 -11432.28609850 0 57872.16302261 0 37114.32206885 0 10350.74141022 0 40
0.00750000 0.00754703 48781.78434650 0 -3744.73775994 0 27637.29781008 0 25046.37380252 0 -39634.71536732 0 57
0.00850000 0.00846663 60926.24237734 0 -13428.84770980 0 22636.81447548 0 22309.62727709 0 -6322.71821979 0 75
0.00950000 0.00948925 69400.11400755 0 -19865.19012688 0 -1553.49146136 0 11380.24617185 0 -27332.36598457 0 112
0.01050000 0.01054430 81816.17616618 0 -1299.44804072 0 -4144.24938405 0 -10398.99460177 0 -20204.88905231 0 105
0.01150000 0.01145670 72297.63068934 0 2447.94707718 0 -11443.24770007 0 -8041.33126117 0 -15474.12755030 0 144
0.01250000 0.01249090 70991.09636074 0 5650.32915053 0 -18375.85171552 0 -5079.42901055 0 -4394.77180539 0 169
0.01350000 0.01339930 68734.44583945 0 3442.87296841 0 -10995.44966743 0 -16544.82136026 0 -5461.64566329 0 180
0.01450000 0.01448870 67657.88369733 0 2390.84709809 0 -4914.58423865 0 -321.91012838 0 -7907.83224083 0 267
0.01550000 0.01550050 71386.71052651 0 -2350.77635457 0 12551.47669117 0 -16421.14349204 0 -5477.39050919 0 238
0.01650000 0.01653350 75001.71385655 0 -6318.86505075 0 -2207.69977327 0 -11606.45376790 0 -10725.60603928 0 315
0.01750000 0.01747870 83490.64384851 0 -4097.09235264 0 22705.79505910 0 5515.49037889 0 -8272.24459526 0 297
0.01850000 0.01844180 82186.21326162 0 -2282.53761671 0 7105.88589886 0 2268.23217305 0 -3629.14268883 0 388
0.01950000 0.01947590 94394.55860666 0 -2253.71635521 0 6960.58378027 0 18397.22130242 0 6559.48881371 0 399
0.02050000 0.02045430 87522.74165446 0 981.82733097 0 7811.90161860 0 13670.44583734 0 593.65266024 0 462
0.02150000 0.02154770 86834.92883673 0 1693.39028544 0 -624.24327925 0 15983.01159896 0 -121.44679477 0 571
0.02250000 0.02255340 84701.95618367 0 -702.13376265 0 3549.94234941 0 -6739.75733408 0 4917.88379145 0 510
0.02350000 0.02348930 82419.06425256 0 10463.91164219 0 3939.86534022 0 -10751.83637677 0 803.00707068 0 555
0.02450000 0.02439640 80675.61598661 0 5727.35931429 0 24447.80392282 0 -13823.46536634 0 14510.83529108 0 592
0.02550000 0.02547300 74460.05572642 0 5230.99806500 0 25714.69932857 0 -9165.95836532 0 12410.41527298 0 837
0.02650000 0.02652900 73037.59415697 0 5599.79506006 0 34418.65386851 0 -5435.60355532 0 8100.12530595 0 723
0.02750000 0.02749970 67670.72759412 0 4504.80856944 0 43516.89389524 0 -4357.34734751 0 -10213.62173966 0 826
0.02850000 0.02848090 66001.02101147 0 7499.37417827 0 47215.60400091 0 2236.06706945 0 -982.32115666 0 831
0.02950000 0.02946900 60189.93277690 0 6680.36538376 0 44663.21168371 0 6701.82354926 0 -1263.11974299 0 996
0.03050000 0.03053250 54527.32441815 0 -1558.18612708 0 36681.17272195 0 16454.69263624 0 538.55898641 0 1041
0.03150000 0.03150510 58521.77631972 0 -4008.04871645 0 31040.26611984 0 15227.98976958 0 -6819.19019233 0 1036
0.03250000 0.03246190 60626.62526775 0 -833.17915581 0 23808.93078078 0 12746.23888473 0 -17370.04172900 0 1059
0.03350000 0.03345080 59200.50983110 0 -510.62572536 0 18787.29930578 0 5467.94581612 0 -5250.08675298 0 1302
0.03450000 0.03451200 55715.38487119 0 5003.56144090 0 10459.54914621 0 -2878.28405358 0 -426.03759267 0 1339
0.03550000 0.03553350 55835.96248846 0 1442.95644269 0 14366.34145219 0 651.77461491 0 1526.43069950 0 1365
0.03650000 0.03647120 52817.97891264 0 377.93609196 0 16876.54821183 0 313.70664292 0 -1554.70941709 0 1308
0.03750000 0.03744890 49752.93795635 0 3034.76922024 0 13122.47648207 0 2504.19448726 0 -6511.58993655 0 1579
0.03850000 0.03847530 49000.68420817 0 2296.11228694 0 13633.57499570 0 764.81087176 0 -4011.94617479 0 1662
0.03950000 0.03950240 47339.94620862 0 2040.51874083 0 18851.07589674 0 -2048.92263537 0 -1461.84582883 0 1683
0.04050000 0.04050350 46583.92787000 0 2656.63825536 0 16811.00004890 0 -115.40351989 0 1630.76521626 0 1822
0.04150000 0.04152450 44417.07390299 0 814.50568001 0 17015.50588830 0 1753.49086455 0 766.36542616 0 1887
0.04250000 0.04250150 43378.15766526 0 1264.44842196 0 18769.25141633 0 1020.66240304 0 409.52986360 0 1920
0.04350000 0.04349210 42302.48130913 0 2295.04934376 0 22615.11271884 0 5766.14566813 0 7709.07293801 0 2005
0.04450000 0.04448520 42042.06022939 0 -425.71206632 0 16822.84743646 0 4756.72610371 0 7680.29596580 0 2151
0.04550000 0.04548030 42384.85940578 0 -2314.32626127 0 15340.37386649 0 3112.49694047 0 6394.02399162 0 2274
0.04650000 0.04648670 45025.71959827 0 -904.78609488 0 16669.93863071 0 744.17427276 0 5454.41543519 0 2311
0.04750000 0.04749250 43002.03079117 0 1753.34692433 0 14513.16047929 0 -1787.70434824 0 1311.15148805 0 2568
0.04850000 0.04851840 40585.05300651 0 3394.22117316 0 14676.25582387 0 -4825.35237294 0 -1099.49957021 0 2493
0.04950000 0.04949480 39323.25087017 0 2268.09930515 0 15742.52070390 0 -1981.73576837 0 -316.68509830 0 2644
0.05050000 0.05050630 37644.13281143 0 -111.01777203 0 13829.88731473 0 981.21503141 0 -6119.72928889 0 2829
0.05150000 0.05149060 38210.26077940 0 -223.80711602 0 13481.33052944 0 2309.54301695 0 -6011.10978242 0 2784
0.05250000 0.05249300 37698.16575654 0 40.81668604 0 13850.48183889 0 4130.68578614 0 -6733.77827868 0 3055
0.05350000 0.05348950 37587.55323160 0 13.09612435 0 11928.65842012 0 2679.36973821 0 -4012.99804565 0 3009
0.05450000 0.05448610 36066.10507827 0 1268.95485817 0 11390.65415718 0 2836.55246134 0 -4522.50214450 0 3336
0.05550000 0.05550870 35454.02696230 0 1134.24895442 0 9116.48721803 0 2089.73522465 0 -1427.00122263 0 3349
0.05650000 0.05647670 34100.21380672 0 1987.10584590 0 10094.07384859 0 -242.84819301 0 653.83517456 0 3324
0.05750000 0.05747970 33354.93562318 0 1320.16436045 0 10655.82824827 0 -1659.46468219 0 1484.30050356 0 3639
0.05850000 0.05849280 32823.90692488 0 -4.31914783 0 10553.19886952 0 879.22784750 0 2455.98558500 0 3846
0.05950000 0.05951020 31573.73072960 0 -84.74048787 0 10994.05455450 0 774.25224313 0 185.85340101 0 3787
0.06050000 0.06049470 32813.60966280 0 259.92946851 0 11298.08952170 0 3976.53688002 0 3324.95270909 0 3930
0.06150000 0.06148310 31021.33244440 0 724.45224779 0 9238.84747960 0 2952.64578706 0 1895.63737058 0 4083
0.06250000 0.06249100 31014.57832626 0 1056.29868047 0 8979.81044047 0 1975.28060300 0 5098.14123950 0 4303
0.06350000 0.06350600 31006.16335940 0 628.38322150 0 9056.74095331 0 124.77624285 0 3220.92821742 0 4470
0.06450000 0.06451750 29427.02839376 0 861.54534477 0 9746.19247512 0 -1597.89148388 0 4112.17285905 0 4479
0.06550000 0.06550280 29344.76102036 0 515.07458547 0 10125.99536105 0 -1818.81758098 0 3983.56780628 0 4636
0.06650000 0.06648880 29723.10235942 0 -1092.92260927 0 11682.96353239 0 -1948.85096365 0 2036.99774154 0 4653
0.06750000 0.06749660 30650.85245597 0 -599.27186509 0 11455.42725737 0 720.01446000 0 -822.27513033 0 5220
0.06850000 0.06852730 30660.70682506 0 122.11999212 0 10462.42795066 0 573.85977240 0 -2014.76451330 0 5029
0.06950000 0.06949320 30799.22160854 0 958.80796767 0 9464.03642176 0 -183.14178866 0 -2256.38478549 0 5040
0.07050000 0.07048030 30200.43028235 0 1098.47648740 0 9404.20157844 0 337.51324852 0 -1884.47646716 0 5475
0.07150000 0.07148790 28983.36033828 0 1091.05138637 0 9148.69661093 0 1057.97503044 0 323.37610419 0 5509
0.07250000 0.07249820 28432.95507155 0 330.34945436 0 9112.78906154 0 1086.95684066 0 -840.94417721 0 5916
0.07350000 0.07351270 27945.55133303 0 670.56324290 0 9757.51946341 0 452.95330708 0 -8.30411075 0 5721
0.07450000 0.07449140 27577.17508631 0 364.90839458 0 9367.50789399 0 -436.62384243 0 -522.93150716 0 6028
0.07550000 0.07549160 26888.91937559 0 550.87694777 0 10634.38115509 0 -1224.66555889 0 235.36330144 0 6183
0.07650000 0.07648840 26842.74778109 0 723.07927951 0 11792.02593186 0 -627.04679190 0 899.06834634 0 6330
0.07750000 0.07749960 26002.80122035 0 986.76448061 0 12071.15924054 0 -861.34161399 0 894.53201487 0 6583
0.07850000 0.07848650 25398.03083876 0 776.68594012 0 11856.46686230 0 1085.01696935 0 1554.01186062 0 6549
0.07950000 0.07947320 24998.20918955 0 -66.45199680 0 11903.41351953 0 2033.16671715 0 252.45564926 0 6828
0.08050000 0.08048110 24749.08188113 0 443.67248441 0 11186.81265727 0 2019.49239600 0 -516.36783301 0 7147
0.08150000 0.08149960 24452.23285275 0 -35.65997220 0 10366.05443544 0 1434.39753561 0 942.41317631 0 7386
0.08250000 0.08250610 24109.32295311 0 823.91383441 0 9091.96201856 0 779.58578199 0 739.58036519 0 7227
0.08350000 0.08350160 23325.51307920 0 750.38363252 0 8221.95409593 0 656.11718071 0 585.72376844 0 7798
0.08450000 0.08449610 22429.31910838 0 1079.03791395 0 9061.34704043 0 494.06595636 0 643.74385772 0 7371
0.08550000 0.08548940 21934.93980523 0 668.24580531 0 7823.47219803 0 66.95346239 0 190.28454540 0 8256
0.08650000 0.08650700 21073.40221109 0 522.11658406 0 8361.69790747 0 409.96611320 0 -98.65806800 0 8037
0.08750000 0.08749060 21090.23214481 0 152.09388264 0 6638.32376642 0 332.22067725 0 -169.75313349 0 8155
0.08850000 0.08849210 20411.27718693 0 64.04166241 0 6852.66183026 0 980.25395361 0 -474.49340778 0 8718
0.08950000 0.08949900 20736.24992036 0 91.74771936 0 6352.03773591 0 1524.80306775 0 -259.78884999 0 8571
0.09050000 0.09049190 20419.91360029 0 326.62140259 0 5921.56789161 0 1009.76612818 0 111.48613137 0 8932
0.09150000 0.09150830 20386.25373284 0 72.22543913 0 5482.00766864 0 940.58402825 0 518.76499133 0 9285
0.09250000 0.09250820 20011.34481448 0 248.62905380 0 6062.78432235 0 -87.80730040 0 171.33979764 0 9204
0.09350000 0.09350330 19963.73381776 0 236.12175569 0 5821.19726713 0 -500.66395472 0 -377.75561307 0 9349
0.09450000 0.09448040 19710.28830267 0 498.86027301 0 6455.68576854 0 -676.47918605 0 1238.51703724 0 9564
0.09550000 0.09549270 19714.93867909 0 294.96341147 0 6008.16454402 0 238.73482434 0 1432.90277176 0 10155
0.09650000 0.09649430 19420.52556216 0 52.34961957 0 6820.38600341 0 60.60592002 0 1363.91111581 0 9913
0.09750000 0.09749140 19164.97630535 0 424.31473893 0 6008.98389605 0 611.91313833 0 286.65363169 0 10476
0.09850000 0.09850240 18691.74514260 0 817.22061405 0 6238.41353862 0 312.63816358 0 924.35532176 0 10575
0.09950000 0.09950330 17894.42703241 0 497.88037226 0 5697.54154355 0 552.43703834 0 1218.63114187 0 10882
0.10050000 0.10051200 17330.29208290 0 332.60599416 0 4907.37615520 0 547.37587866 0 1093.01229510 0 10875
0.10150000 0.10150300 17509.44229846 0 -126.88994965 0 5327.21656767 0 1212.47492927 0 560.33271317 0 11118
0.10250000 0.10250800 17317.89107910 0 119.65639985 0 4709.22583024 0 -260.09998231 0 876.29146696 0 11575
0.10350000 0.10349800 17195.65261310 0 501.19321185 0 5243.81981714 0 -183.79727029 0 76.90382854 0 11364
0.10450000 0.10450100 16744.12320700 0 220.71793740 0 5367.91843370 0 -1145.01125415 0 605.24316986 0 12093
0.10550000 0.10551000 16677.57853484 0 564.75278523 0 5789.69650302 0 -12.18808299 0 -46.36192776 0 12067
0.10650000 0.10649700 16079.67299463 0 565.34183292 0 5748.23064657 0 -308.31220627 0 757.26397516 0 12054
0.10750000 0.10749900 15992.20162856 0 -89.69801059 0 5650.59488632 0 625.61514030 0 460.81576493 0 12807
0.10850000 0.10850100 16049.33482463 0 -204.84133084 0 5898.83640876 0 645.21647692 0 346.66673944 0 12736
0.10950000 0.10950300 16102.81415350 0 452.51927194 0 5759.29189907 0 1118.67019340 0 -226.25963597 0 12933
0.11050000 0.11050200 15434.04573446 0 457.99010764 0 4588.21639230 0 345.86621036 0 1244.11963360 0 13428
0.11150000 0.11150900 15113.39120771 0 614.90155880 0 5051.11707599 0 -138.92335227 0 947.64817149 0 13453
0.11250000 0.11250000 14774.79951475 0 242.53484622 0 5236.58958903 0 568.73992940 0 1484.56623936 0 13668
0.11350000 0.11349100 14533.20138721 0 135.27723570 0 4979.85559346 0 374.29551156 0 1298.35188056 0 13791
0.11450000 0.11448600 14257.83266897 0 -29.08699730 0 4254.96155991 0 725.90825851 0 1653.35275889 0 14205
0.11550000 0.11549300 14654.44334397 0 -557.93001868 0 4847.25343143 0 555.41770818 0 1180.83022493 0 14776
0.11650000 0.11649800 14941.65944977 0 -7.26921376 0 4175.93837768 0 362.44258785 0 1104.12780199 0 14553
0.11750000 0.11747300 14915.41803995 0 263.96865261 0 4493.90232949 0 -379.19390806 0 812.64552944 0 14568
0.11850000 0.11849100 14722.42741836 0 342.16141048 0 4091.24616514 0 -134.05485104 0 1317.44056855 0 16015
0.11950000 0.11950300 14441.52253771 0 451.80178529 0 4573.93309328 0 -496.46975808 0 1267.80333638 0 15270
0.12050000 0.12050700 14402.54795435 0 180.95057558 0 4677.39289639 0 35.09461930 0 654.11308992 0 15999
0.12150000 0.12150000 14131.49744279 0 49.40582057 0 4021.67874830 0 470.74210413 0 682.73726404 0 15670
0.12250000 0.12250700 14151.87052046 0 27.89849395 0 4039.80414403 0 200.03262017 0 442.04153097 0 16887
0.12350000 0.12352200 14138.47300743 0 -125.48597887 0 3975.39643056 0 266.92496333 0 391.63034330 0 16407
0.12450000 0.12449800 14157.51740611 0 242.87255213 0 3965.30954265 0 118.88687328 0 -93.12899188 0 16306
0.12550000 0.12549900 13799.21697498 0 367.89017166 0 3996.45599237 0 -18.15041918 0 787.08174590 0 17523
0.12650000 0.12650100 13414.56441078 0 307.22268951 0 4038.06578904 0 -27.23072204 0 22.98647849 0 17154
0.12750000 0.12750600 13220.35583346 0 367.16382715 0 4083.31838057 0 381.87562514 0 990.65861724 0 18007
0.12850000 0.12850300 13158.12936798 0 78.02390492 0 4113.84478009 0 328.05859035 0 704.59181876 0 17496
0.12950000 0.12949900 13047.62756629 0 54.63727260 0 4069.13473248 0 347.03876956 0 1404.86764531 0 18405
0.13050000 0.13049000 13119.15478462 0 23.26428312 0 4100.17045894 0 -32.77851039 0 874.31062805 0 18100
0.13150000 0.13148800 13025.15074691 0 274.25927129 0 4499.32776866 0 -458.87367916 0 420.68190916 0 19059
0.13250000 0.13249300 12773.03391079 0 365.79085887 0 4454.57343174 0 -620.45322247 0 721.04529344 0 18957
0.13350000 0.13349100 12535.20037369 0 448.01947914 0 4798.60163618 0 -797.28821491 0 296.11161155 0 19468
0.13450000 0.13450700 12323.38679991 0 249.56023632 0 4648.69343046 0 -82.62567383 0 326.52618060 0 19953
0.13550000 0.13551000 11939.39857519 0 111.05541793 0 4845.41542551 0 522.34910288 0 -126.67293209 0 19956
0.13650000 0.13649900 11855.91324606 0 195.95579018 0 4367.56710331 0 463.98466429 0 -559.31516652 0 19723
0.13750000 0.13749600 11805.64489139 0 82.82198615 0 4145.65556930 0 753.61121520 0 -256.19698782 0 20946
0.13850000 0.13851100 11543.56296293 0 -49.34171181 0 3706.82611976 0 574.61490495 0 -593.06250533 0 20955
0.13950000 0.13949800 11498.94149391 0 151.90897481 0 3585.78346484 0 356.18450986 0 29.00461920 0 20506
0.14050000 0.14048300 11466.72102869 0 121.00833071 0 3411.16183013 0 430.25504120 0 163.91691108 0 21447
0.14150000 0.14148400 11276.16631856 0 113.89214755 0 3443.89162229 0 384.41118752 0 808.84772202 0 21771
0.14250000 0.14249400 11244.83163932 0 252.44346970 0 3390.19084692 0 17.91557517 0 592.11139263 0 22470
0.14350000 0.14350900 11241.73138837 0 145.55235314 0 3790.53289539 0 -305.85747186 0 960.57511071 0 22519
0.14450000 0.14449900 11201.09595629 0 42.93305021 0 3909.61574881 0 -93.81315083 0 1075.89005200 0 22218
0.14550000 0.14550500 10960.98152027 0 192.61637701 0 4065.52515459 0 -257.95748746 0 807.95750711 0 23559
0.14650000 0.14650700 11010.25336571 0 162.77756886 0 4037.42359420 0 22.14276734 0 959.36601284 0 23044
0.14750000 0.14750500 10858.11962270 0 -19.49338146 0 3789.55853081 0 206.81331189 0 467.98288078 0 23649
0.14850000 0.14849900 10790.89953873 0 20.91517869 0 3673.23268626 0 651.69046525 0 459.73067710 0 23640
0.14950000 0.14949500 10936.25701895 0 66.60280187 0 3151.09506479 0 416.33048551 0 165.58883213 0 24457
0.15050000 0.15050000 10482.74566670 0 260.43768822 0 3308.94212740 0 -29.05344815 0 -27.97489299 0 24591
0.15150000 0.15149900 10355.31428037 0 524.50267005 0 2983.18325891 0 -211.33857105 0 58.29324354 0 25020
0.15250000 0.15250500 9993.81394736 0 164.74290651 0 3140.68707946 0 -95.69644256 0 330.06821731 0 25297
0.15350000 0.15350100 9897.89439746 0 76.68670025 0 2987.24680212 0 303.07278217 0 389.36162395 0 25452
0.15450000 0.15450400 9870.29109168 0 115.41902114 0 3183.52590418 0 209.80505406 0 80.85742356 0 26061
0.15550000 0.15549900 9675.87214019 0 187.79659402 0 2877.14360413 0 364.89289333 0 115.16103597 0 26128
0.15650000 0.15649500 9527.52513227 0 203.09301075 0 2699.01204244 0 185.92980005 0 296.27326750 0 26331
0.15750000 0.15749700 9313.58567213 0 145.33976450 0 2593.79173969 0 42.72599773 0 469.68691157 0 27345
0.15850000 0.15849900 9344.08992700 0 -62.63359486 0 2729.27270617 0 -55.09832421 0 31.62687789 0 26980
0.15950000 0.15949700 9344.93142369 0 24.02628052 0 2769.42095596 0 -10.18133484 0 294.84161590 0 27777
0.16050000 0.16050000 9371.84824532 0 125.31657230 0 2883.96415621 0 36.23861190 0 -12.38450603 0 28224
0.16150000 0.16150500 9141.00134518 0 301.67988371 0 2768.86733972 0 -197.45387572 0 214.90718134 0 28075
0.16250000 0.16249700 9251.41456827 0 81.40727521 0 2977.82425370 0 -63.77515155 0 77.81784895 0 28590
0.16350000 0.16349900 9109.92132941 0 79.10544960 0 3032.42188738 0 -112.01649573 0 109.37242456 0 29163
0.16450000 0.16449100 9032.82473170 0 159.81240027 0 2965.67791338 0 1.79059423 0 -145.42945033 0 28996
0.16550000 0.16550500 8865.56619299 0 133.97291584 0 2951.43890366 0 62.49109404 0 -246.81983593 0 30777
0.16650000 0.16650700 8632.09515186 0 214.67576975 0 2741.99480739 0 274.32459801 0 -9.00953963 0 29211
0.16750000 0.16749900 8566.66878451 0 175.58160528 0 2727.75579767 0 211.89883068 0 -295.52920727 0 30922
0.16850000 0.16850800 8403.07518532 0 -58.34439768 0 2304.79298960 0 303.75151568 0 -181.66695500 0 30867
0.16950000 0.16949900 8423.43719066 0 3.89168965 0 2159.49087100 0 325.00927210 0 -236.97100300 0 30852
0.17050000 0.17049200 8493.70216396 0 -42.16463087 0 2113.42999976 0 229.46950294 0 -474.48676438 0 31257
0.17150000 0.17149500 8468.43511872 0 24.85836573 0 2135.39749220 0 134.47559939 0 -91.28688920 0 32608
0.17250000 0.17250900 8441.98333473 0 129.75878901 0 1982.20080601 0 138.27008510 0 -35.13304027 0 32361
0.17350000 0.17350400 8332.65519947 0 165.22455264 0 1963.04568407 0 215.27921145 0 74.88999410 0 32508
0.17450000 0.17449800 8191.77093848 0 152.61981807 0 1923.19638705 0 102.96487019 0 294.10309183 0 32791
0.17550000 0.17549800 8080.75980985 0 186.78347630 0 1776.97526549 0 218.12037000 0 138.31658887 0 33633
0.17650000 0.17650100 7944.84702270 0 106.40160909 0 2003.01677667 0 65.42647808 0 392.55488242 0 33984
0.17750000 0.17750300 7829.22980694 0 154.70362960 0 1937.18073330 0 81.85205050 0 548.34470709 0 34069
0.17850000 0.17849800 7695.33218291 0 87.04098480 0 1955.60508179 0 -90.34020543 0 483.73990623 0 34536
