### header ###
fiducial parameters:
Omega_m = 0.31
Omega_nu = 0
Omega_de = 0.69
Omega_k = 0
H_0 = 100
w_de = -1
zeff = 0
beta = 0
fgrowth = 0
b_1 = 2
gamma = 0.55
Lx = 3500 Ly = 3500 Lz = 3500
nx = 700 ny = 700 nz = 700
xoffset = -685.467585 yoffset = -31.7331281 zoffset = 572.489161
bins = 400 dk = 0.001
kx_ny = 0.628318531 ky_ny = 0.628318531 kz_ny = 0.628318531
############################
A(data) = 8.04442454 (not used)
A(ran) = 8.0484748 (used)
Ngal = 478542
weighted Ngal = 0
Nran = 23820508
weighted Nran = 0
SN(data) = 3482.28104
SN(ran) = 70.1051344
SN(data+ran) = 3552.38618
############################
13 columns: k_central k_mean P_0(k) sigma^{lin}_{P_0(k)} P^img_1(k) sigma^{lin}_{P_1(k)} P_2(k) sigma^{lin}_{P_2(k)} P^img_3(k) sigma^{lin}_{P_3(k)} P_4(k) sigma^{lin}_{P_4(k)} N_modes
### header ###
0.00050000 0 0 0 0 0 0 0 0 0 0 0 0
0.00150000 0.00179520 12224.17876953 0 -12499.76893427 0 -16557.44381056 0 3643.45920482 0 -14104.48097023 0 3
0.00250000 0.00253879 17532.14056434 0 -6329.82665232 0 7779.54828548 0 -20883.06894746 0 -4070.48555610 0 6
0.00350000 0.00331552 32628.25894533 0 -12923.28535858 0 -377.78661558 0 -12157.30192763 0 26172.31851332 0 7
0.00450000 0.00420575 32518.31075988 0 -5291.84048987 0 28083.40177702 0 -31044.91649627 0 13500.15348163 0 24
0.00550000 0.00557378 53916.79642765 0 -3896.61683948 0 40898.84269187 0 -16397.67016342 0 -2421.67245039 0 45
0.00650000 0.00659388 46776.03270561 0 -12528.55697879 0 21910.80213712 0 23686.36014504 0 13606.22635339 0 40
0.00750000 0.00754703 82098.52044906 0 -13169.42313930 0 32309.15454406 0 -9441.75890423 0 -21232.06862574 0 57
0.00850000 0.00846663 86697.85345548 0 -14952.62105134 0 26401.18346732 0 -12225.06455552 0 -23316.76594259 0 75
0.00950000 0.00948925 102643.66204305 0 -3439.48483701 0 27719.23301374 0 5110.92977466 0 -43064.92159614 0 112
0.01050000 0.01054430 94296.90070176 0 12618.79642607 0 13206.51542744 0 -29638.28835130 0 -40551.06096931 0 105
0.01150000 0.01145670 87045.30300828 0 20804.01254825 0 28206.85819875 0 -33693.63803938 0 -44542.96623618 0 144
0.01250000 0.01249090 73494.21683249 0 10185.12157558 0 38683.15977241 0 -22680.88232826 0 -44454.71980738 0 169
0.01350000 0.01339930 61705.29115158 0 -1382.33546431 0 41217.94709314 0 3564.03741890 0 -31295.92609990 0 180
0.01450000 0.01448870 75338.86614727 0 -10157.62899305 0 39180.97149625 0 14603.17848006 0 -42551.94078729 0 267
0.01550000 0.01550050 87480.33465041 0 -8829.08288271 0 40602.10438673 0 20144.21271231 0 -31811.78571320 0 238
0.01650000 0.01653350 91891.10596516 0 993.69686317 0 24185.16837812 0 18491.11461688 0 -20102.47004774 0 315
0.01750000 0.01747870 90699.94526117 0 814.93639344 0 23681.04542913 0 8737.10508044 0 -11745.30072112 0 297
0.01850000 0.01844180 86900.80916940 0 6258.73125466 0 38759.66953691 0 6628.01543201 0 3146.43361604 0 388
0.01950000 0.01947590 78561.68773224 0 7238.48806089 0 17628.80196001 0 2180.76080698 0 5007.00493392 0 399
0.02050000 0.02045430 78249.33744910 0 -3581.65348769 0 21919.88144347 0 7977.77611671 0 1842.71165794 0 462
0.02150000 0.02154770 84863.05850978 0 -5820.01252837 0 14499.98441275 0 1186.63212314 0 5337.94565042 0 571
0.02250000 0.02255340 89645.19559895 0 932.60309652 0 6116.46295307 0 1115.53672548 0 -2556.54443900 0 510
0.02350000 0.02348930 88449.38451854 0 -151.60891481 0 12129.84256208 0 -4972.60322070 0 -168.46431488 0 555
0.02450000 0.02439640 83237.30905666 0 10329.91436723 0 14053.99116906 0 -4490.72457227 0 4182.92501464 0 592
0.02550000 0.02547300 78560.24833001 0 7434.20247439 0 16324.59281962 0 4676.88356945 0 -6178.70049087 0 837
0.02650000 0.02652900 71336.88506482 0 5648.39149368 0 23013.16279607 0 4400.06437666 0 6901.96689268 0 723
0.02750000 0.02749970 64624.84175976 0 3519.59310708 0 14102.04505877 0 1765.50433698 0 -3603.10058086 0 826
0.02850000 0.02848090 65233.04456205 0 2947.12069698 0 26299.76097199 0 -6201.99666229 0 1541.11260221 0 831
0.02950000 0.02946900 64315.03811133 0 1487.88793680 0 24760.15420595 0 -1853.40752372 0 -6667.35540210 0 996
0.03050000 0.03053250 61853.21741116 0 1269.57490836 0 27116.45565061 0 -3713.76846742 0 -4125.21605768 0 1041
0.03150000 0.03150510 61950.43242306 0 2444.94647715 0 17849.58411689 0 475.61946321 0 -11948.03498855 0 1036
0.03250000 0.03246190 59979.22643560 0 -310.18675086 0 23288.53151431 0 2165.42563711 0 -10783.83539550 0 1059
0.03350000 0.03345080 59138.50481212 0 532.46034990 0 20194.03817399 0 4659.86540620 0 -17027.35327586 0 1302
0.03450000 0.03451200 58275.97070875 0 4516.26842563 0 19286.43970861 0 1512.39099163 0 -16670.93513995 0 1339
0.03550000 0.03553350 54889.38943972 0 3309.16357390 0 20845.97665931 0 -1431.13119978 0 -13695.46929143 0 1365
0.03650000 0.03647120 49944.93206870 0 3889.39768370 0 20580.13014042 0 1764.12029638 0 -7439.84936004 0 1308
0.03750000 0.03744890 50914.86772282 0 1517.24066990 0 20617.77604480 0 2490.94091445 0 -9819.40268682 0 1579
0.03850000 0.03847530 47840.96890666 0 147.04268806 0 20269.99432225 0 6257.44686498 0 -7297.14923778 0 1662
0.03950000 0.03950240 47984.24478982 0 825.78173560 0 16452.47817127 0 4520.75271718 0 -4111.12098819 0 1683
0.04050000 0.04050350 45695.37380331 0 904.81709739 0 15584.07573575 0 5251.31578104 0 -3972.91622980 0 1822
0.04150000 0.04152450 44004.96197324 0 1675.07666019 0 12393.25316951 0 2577.99153218 0 -4276.78511213 0 1887
0.04250000 0.04250150 44319.85889108 0 397.38241604 0 12068.61260583 0 3770.32590260 0 -477.90368382 0 1920
0.04350000 0.04349210 42681.37626442 0 -249.04758768 0 10718.03256910 0 1050.12696661 0 -2597.68919803 0 2005
0.04450000 0.04448520 43325.67484562 0 1484.26728659 0 11558.39987818 0 -502.74555179 0 -1877.73342134 0 2151
0.04550000 0.04548030 43015.09613446 0 1630.95344579 0 14811.33818665 0 -3748.65736293 0 -1246.79913620 0 2274
0.04650000 0.04648670 39614.01011991 0 3007.39843329 0 12110.35527039 0 -3029.95275895 0 1772.01486398 0 2311
0.04750000 0.04749250 38247.79596054 0 2259.93900176 0 16156.95782187 0 470.83289719 0 3473.91976720 0 2568
0.04850000 0.04851840 36917.45613358 0 834.84332623 0 13842.06687203 0 4142.05706373 0 -1574.04169622 0 2493
0.04950000 0.04949480 36369.15460856 0 5.91077237 0 14221.51544357 0 3969.22914564 0 1592.73178051 0 2644
0.05050000 0.05050630 36098.43626674 0 454.45360709 0 13346.69105964 0 -399.99105577 0 -1646.83115958 0 2829
0.05150000 0.05149060 34683.39315492 0 164.38859212 0 11470.15344938 0 -640.31143703 0 -259.08354290 0 2784
0.05250000 0.05249300 36202.18395029 0 -193.30507561 0 13601.57597697 0 835.21203465 0 2029.21389719 0 3055
0.05350000 0.05348950 35993.91352046 0 -425.70099400 0 11971.84048691 0 2760.75132563 0 6915.84051568 0 3009
0.05450000 0.05448610 37071.47217181 0 -413.42178578 0 13314.80276417 0 1450.33061102 0 3119.21784164 0 3336
0.05550000 0.05550870 37770.80020735 0 -362.16577973 0 11984.35221396 0 1702.58031504 0 6224.67278352 0 3349
0.05650000 0.05647670 36994.85168406 0 858.14171212 0 15754.92170770 0 -187.09239416 0 5979.47615041 0 3324
0.05750000 0.05747970 37046.78088746 0 1083.94295384 0 14170.13985641 0 -1922.15558852 0 7040.55918243 0 3639
0.05850000 0.05849280 36116.70560269 0 865.90673351 0 16310.53096710 0 454.62412089 0 8130.34168038 0 3846
0.05950000 0.05951020 35694.85002710 0 750.91510411 0 15161.33437417 0 1295.10768939 0 6712.64121060 0 3787
0.06050000 0.06049470 35027.74245678 0 287.14745738 0 15707.53215748 0 3180.90176320 0 6694.06184956 0 3930
0.06150000 0.06148310 34579.31330163 0 841.34388813 0 14125.29694089 0 2431.93649549 0 4153.47263062 0 4083
0.06250000 0.06249100 34432.60499778 0 683.77916980 0 12844.33968262 0 1864.75665666 0 4529.00159917 0 4303
0.06350000 0.06350600 33529.76763207 0 414.60652453 0 13479.44823422 0 364.85635466 0 3614.04003778 0 4470
0.06450000 0.06451750 32349.01491341 0 1575.49217077 0 12352.94990717 0 1196.80758965 0 3230.61650164 0 4479
0.06550000 0.06550280 31910.77229708 0 797.94480378 0 12787.64937955 0 79.51257899 0 3092.25673070 0 4636
0.06650000 0.06648880 30474.80249135 0 819.71520883 0 11077.52881131 0 782.44133456 0 3247.43536304 0 4653
0.06750000 0.06749660 31321.17100049 0 648.65443378 0 13071.65451115 0 433.42836949 0 1184.40658585 0 5220
0.06850000 0.06852730 29200.26718148 0 418.39436685 0 11125.36125453 0 60.17531731 0 2818.20561912 0 5029
0.06950000 0.06949320 29997.80673817 0 1089.71717123 0 13305.05911833 0 1065.28276482 0 1731.00297285 0 5040
0.07050000 0.07048030 29380.52462953 0 -95.74737525 0 11615.86524399 0 290.65074095 0 2489.60116315 0 5475
0.07150000 0.07148790 29726.86694985 0 -409.26634227 0 11291.22468031 0 2819.72252762 0 -392.30354065 0 5509
0.07250000 0.07249820 29256.51459156 0 -179.49677933 0 9072.16470178 0 504.01554744 0 -860.52779812 0 5916
0.07350000 0.07351270 29765.50936347 0 491.24472800 0 9581.44735414 0 686.32359005 0 -576.83047715 0 5721
0.07450000 0.07449140 28665.03099975 0 968.27812709 0 8282.03253040 0 -255.09972043 0 -1583.41995534 0 6028
0.07550000 0.07549160 27302.80287731 0 1387.96020532 0 8055.86922365 0 -627.51515124 0 -1341.70003222 0 6183
0.07650000 0.07648840 26517.99649416 0 1138.84396922 0 8109.49249275 0 -257.77147241 0 -2556.74374085 0 6330
0.07750000 0.07749960 25814.68242168 0 258.07263964 0 8838.76009460 0 1089.54112127 0 -2542.71510530 0 6583
0.07850000 0.07848650 25229.39933177 0 -138.31658887 0 8108.11952447 0 514.27737808 0 -1309.10310796 0 6549
0.07950000 0.07947320 25282.10359790 0 404.60600076 0 8436.55789557 0 1192.77726341 0 -2430.98427556 0 6828
0.08050000 0.08048110 24933.43608937 0 478.13398818 0 8375.36115629 0 1097.74017780 0 -904.18818934 0 7147
0.08150000 0.08149960 24793.92479665 0 599.86202000 0 8045.98163759 0 -504.36875460 0 1019.16874642 0 7386
0.08250000 0.08250610 23914.78220605 0 1043.81241977 0 8759.26080241 0 765.22386947 0 1269.23166629 0 7227
0.08350000 0.08350160 23596.12069777 0 523.13302347 0 9369.15767039 0 -647.35122115 0 2237.98258164 0 7798
0.08450000 0.08449610 22889.15275810 0 791.21393752 0 9990.16008017 0 63.34244510 0 2178.73457154 0 7371
0.08550000 0.08548940 22652.75862322 0 751.16755311 0 10917.75516418 0 -73.02530388 0 3619.76442971 0 8256
0.08650000 0.08650700 21880.35324387 0 456.78211700 0 10688.72412530 0 544.20255037 0 3616.27664739 0 8037
0.08750000 0.08749060 21792.88187780 0 705.86624335 0 10809.04707911 0 1293.19217719 0 4487.84576782 0 8155
0.08850000 0.08849210 21618.60348516 0 130.28140275 0 10214.31929612 0 1017.43482035 0 3331.96149070 0 8718
0.08950000 0.08949900 20928.90837221 0 439.73184401 0 10565.43378845 0 1466.28583108 0 3805.17050880 0 8571
0.09050000 0.09049190 20622.64786772 0 520.53656330 0 9343.97920375 0 279.50866049 0 3257.88763766 0 8932
0.09150000 0.09150830 20298.33947378 0 468.64057688 0 9394.60187283 0 560.07583523 0 2367.75022852 0 9285
0.09250000 0.09250820 19635.88227988 0 27.15089058 0 8824.74253138 0 336.60310342 0 2865.05262542 0 9204
0.09350000 0.09350330 19612.51967452 0 140.99719871 0 8709.22496655 0 380.50708579 0 762.42257129 0 9349
0.09450000 0.09448040 19630.01394773 0 349.27980810 0 8644.70652983 0 158.55236971 0 1509.76685065 0 9564
0.09550000 0.09549270 19071.08299088 0 853.60316617 0 8053.45545684 0 -274.12418893 0 50.85552006 0 10155
0.09650000 0.09649430 18526.32460981 0 925.50795078 0 8363.01551412 0 -393.42848885 0 1015.88690934 0 9913
0.09750000 0.09749140 17999.94628793 0 280.24497009 0 8616.69354804 0 -225.84442379 0 611.32187619 0 10476
0.09850000 0.09850240 17578.64432858 0 -95.85278379 0 8094.74415609 0 763.76121536 0 714.76617804 0 10575
0.09950000 0.09950330 17773.07435239 0 66.19644754 0 7932.51245285 0 1411.10136419 0 1032.30273812 0 10882
0.10050000 0.10051200 17927.97617661 0 -394.88228510 0 7382.50578981 0 1549.58293069 0 246.36919231 0 10875
0.10150000 0.10150300 17961.30387431 0 130.82173220 0 6706.68429985 0 927.00050016 0 662.97427147 0 11118
0.10250000 0.10250800 17872.39310602 0 134.49774404 0 5520.89367340 0 557.52477159 0 -65.48405417 0 11575
0.10350000 0.10349800 17534.79792230 0 129.76432518 0 5967.68412448 0 189.36111351 0 548.12104612 0 11364
0.10450000 0.10450100 17530.03682263 0 280.50738419 0 5391.12602652 0 80.25353896 0 71.45801630 0 12093
0.10550000 0.10551000 16939.66046330 0 511.09740640 0 5292.95879468 0 -56.08176810 0 90.24819441 0 12067
0.10650000 0.10649700 16744.23393025 0 526.31631686 0 5221.25441916 0 -149.25050963 0 3.88762611 0 12054
0.10750000 0.10749900 16118.86902449 0 593.21641065 0 5462.18820721 0 189.85383197 0 439.60340504 0 12807
0.10850000 0.10850100 15569.12809724 0 532.65079389 0 5526.41876348 0 995.28352732 0 573.76012147 0 12736
0.10950000 0.10950300 15239.72643389 0 218.46693376 0 5367.86307208 0 185.47140580 0 248.47293402 0 12933
0.11050000 0.11050200 15054.04354668 0 213.17214804 0 5316.21067680 0 457.58928948 0 860.74260122 0 13428
0.11150000 0.11150900 14926.04747178 0 68.11760662 0 4932.12280117 0 489.50748023 0 289.48150345 0 13453
0.11250000 0.11250000 14982.18415861 0 204.28439290 0 4897.28926729 0 198.68401101 0 878.58565266 0 13668
0.11350000 0.11349100 14654.77551372 0 172.40274082 0 4506.20368237 0 497.36108023 0 136.72549579 0 13791
0.11450000 0.11448600 14562.32160148 0 52.79461631 0 4551.30126135 0 474.90640549 0 752.00572810 0 14205
0.11550000 0.11549300 14353.05466241 0 142.78537916 0 4116.86752477 0 485.30553296 0 173.05490075 0 14776
0.11650000 0.11649800 14182.31941371 0 394.12493808 0 4442.37172979 0 -42.14924033 0 803.36692124 0 14553
0.11750000 0.11747300 14212.98975346 0 273.02692154 0 4041.46499275 0 84.63585440 0 914.53859858 0 14568
0.11850000 0.11849100 13623.49918011 0 227.74886366 0 4407.27246011 0 103.97566272 0 1404.00400398 0 16015
0.11950000 0.11950300 13804.42096765 0 134.13678625 0 4282.25484059 0 486.16917430 0 1235.02925492 0 15270
0.12050000 0.12050700 13454.20333363 0 86.36313708 0 3855.15098303 0 537.38642721 0 1491.82968444 0 15999
0.12150000 0.12150000 13551.19689904 0 -152.39947880 0 3522.36118828 0 542.29478881 0 1571.03002387 0 15670
0.12250000 0.12250700 13468.81880239 0 -19.41100336 0 3153.02164931 0 329.89106011 0 654.06437169 0 16887
0.12350000 0.12352200 13469.15097214 0 190.59899943 0 3418.93460215 0 70.79843791 0 617.88001418 0 16407
0.12450000 0.12449800 13216.59124303 0 289.09618655 0 3306.99339823 0 -422.53320187 0 582.60580177 0 16306
0.12550000 0.12549900 12945.76217796 0 357.80439098 0 3188.47523338 0 58.71044873 0 596.52371407 0 17523
0.12650000 0.12650100 12866.59505551 0 94.52499059 0 3299.57494061 0 -396.01719839 0 455.21095411 0 17154
0.12750000 0.12750600 12927.27139551 0 5.21251835 0 3427.23884577 0 103.67338825 0 665.56962441 0 18007
0.12850000 0.12850300 12984.29386833 0 118.88687328 0 3932.48009956 0 -176.75748617 0 149.09106815 0 17496
0.12950000 0.12949900 12878.22099657 0 121.16223603 0 3639.78319298 0 -198.07060422 0 375.92314331 0 18405
0.13050000 0.13049000 12780.12019867 0 351.70021831 0 4206.08831816 0 -185.73271267 0 -65.68867073 0 18100
0.13150000 0.13148800 12475.96343591 0 143.21166367 0 3917.20029132 0 -303.34737582 0 441.48348580 0 19059
0.13250000 0.13249300 12502.20484573 0 58.75983130 0 4343.87232820 0 313.91037370 0 54.14344692 0 18957
0.13350000 0.13349100 12652.45629352 0 -15.78802796 0 4092.74092899 0 145.21354000 0 37.79958825 0 19468
0.13450000 0.13450700 12384.17386316 0 274.95461329 0 3993.56611559 0 279.75778780 0 184.64208868 0 19953
0.13550000 0.13551000 12349.07459348 0 102.50791534 0 3683.77353949 0 335.43275868 0 388.57881058 0 19956
0.13650000 0.13649900 12081.01360962 0 206.36820443 0 3579.53867365 0 521.30055372 0 811.93025725 0 19723
0.13750000 0.13749600 12019.89437663 0 281.43967394 0 3755.41148107 0 227.03802041 0 354.06305242 0 20946
0.13850000 0.13851100 11576.00487465 0 331.29835260 0 3495.42222200 0 81.74808137 0 754.58557979 0 20955
0.13950000 0.13949800 11374.59928620 0 72.31102820 0 3466.21342913 0 263.71731083 0 886.56879886 0 20506
0.14050000 0.14048300 11420.43871094 0 -110.52239621 0 3254.58808487 0 517.17500549 0 595.32790299 0 21447
0.14150000 0.14148400 11460.74197328 0 -96.34660947 0 2913.38332326 0 386.43520850 0 206.97164614 0 21771
0.14250000 0.14249400 11363.19479163 0 186.61185526 0 2801.81857838 0 -43.24761496 0 455.56083957 0 22470
0.14350000 0.14350900 11247.37827403 0 318.66372275 0 2921.99759197 0 -249.45062030 0 313.17406410 0 22519
0.14450000 0.14449900 10967.41454099 0 203.42850220 0 2841.62358611 0 -76.99041412 0 18.54116153 0 22218
0.14550000 0.14550500 10745.13762026 0 274.35670775 0 2718.93115479 0 219.44683451 0 163.42529986 0 23559
0.14650000 0.14650700 10529.64803463 0 290.12591276 0 2892.13553193 0 47.62428351 0 257.16138731 0 23044
0.14750000 0.14750500 10361.28226344 0 241.42207758 0 2868.06429777 0 367.16382715 0 297.28084906 0 23649
0.14850000 0.14849900 10164.44954514 0 190.35097935 0 2909.78481769 0 59.76375899 0 537.57576397 0 23640
0.14950000 0.14949500 10119.27445988 0 158.79485362 0 2701.68047272 0 -155.16756001 0 347.61895938 0 24457
0.15050000 0.15050000 9904.32741818 0 304.66166078 0 3005.23932995 0 -227.58167155 0 524.97767279 0 24591
0.15150000 0.15149900 9829.11311568 0 81.92479567 0 3087.92745170 0 -5.80784404 0 849.82639618 0 25020
0.15250000 0.15250500 9816.99999233 0 -63.00053171 0 3064.69771423 0 276.89337737 0 976.50043550 0 25297
0.15350000 0.15350100 10021.83800148 0 -135.61826331 0 3260.12424728 0 38.61716872 0 746.83938134 0 25452
0.15450000 0.15450400 10111.46847088 0 88.80923508 0 3404.72880941 0 95.71880865 0 862.81866212 0 26061
0.15550000 0.15549900 10000.35769133 0 186.37380028 0 3392.84820488 0 -186.63067821 0 967.08674494 0 26128
0.15650000 0.15649500 9856.67213216 0 98.08651459 0 3185.55213962 0 108.20374067 0 1451.18318003 0 26331
0.15750000 0.15749700 9866.13896988 0 36.42805938 0 3216.86467421 0 296.30869894 0 931.87564478 0 27345
0.15850000 0.15849900 9743.51297251 0 79.72195665 0 2912.67469447 0 373.61456359 0 721.63544836 0 26980
0.15950000 0.15949700 9466.60520112 0 255.76627438 0 2972.66455034 0 168.76658935 0 220.52638618 0 27777
0.16050000 0.16050000 9245.15870475 0 364.65705281 0 2777.74734423 0 -10.74641094 0 334.08304229 0 28224
0.16150000 0.16150500 8889.88101829 0 242.12184851 0 2678.48395223 0 17.75491574 0 544.23798181 0 28075
0.16250000 0.16249700 8818.28736602 0 100.46850383 0 2608.26326823 0 -78.97402111 0 403.15552620 0 28590
0.16350000 0.16349900 8843.94194262 0 -58.15738611 0 2871.30848895 0 157.35877309 0 50.98152312 0 29163
0.16450000 0.16449100 8903.42247155 0 -15.84438609 0 2752.34743109 0 -61.04327685 0 217.91996092 0 28996
0.16550000 0.16550500 8939.66219068 0 109.87245075 0 3039.25351180 0 -189.96676968 0 -45.50238318 0 30777
0.16650000 0.16650700 8919.96452482 0 190.31554791 0 3177.50255948 0 -175.39448299 0 129.79975662 0 29211
0.16750000 0.16749900 8768.79407408 0 110.59923815 0 3150.16498950 0 -29.83747947 0 65.26880817 0 30922
0.16850000 0.16850800 8628.66273117 0 247.93039011 0 3063.30260130 0 208.74543257 0 -44.74105013 0 30867
0.16950000 0.16949900 8510.05598771 0 83.04066457 0 2972.80849056 0 168.55289348 0 -40.35164840 0 30852
0.17050000 0.17049200 8367.40015475 0 98.49918014 0 2774.04918774 0 412.43745610 0 -114.98055708 0 31257
0.17150000 0.17149500 8442.74732514 0 60.30796376 0 2703.88386536 0 223.90787418 0 -122.13438614 0 32608
0.17250000 0.17250900 8138.04801846 0 165.98522136 0 2554.24139544 0 205.19675247 0 -82.93669544 0 32361
0.17350000 0.17350400 8171.24284826 0 177.44397031 0 2297.03128990 0 177.02211474 0 0.46831616 0 32508
0.17450000 0.17449800 7955.21071873 0 16.36722127 0 2150.51121558 0 223.61335034 0 105.81422225 0 32791
0.17550000 0.17549800 8018.58870599 0 -65.43522521 0 2261.56663351 0 234.65910158 0 149.22172158 0 33633
0.17650000 0.17650100 8073.26384594 0 -13.65228722 0 2182.86454870 0 350.90301092 0 264.27203431 0 33984
0.17750000 0.17750300 7956.76084420 0 167.50988048 0 2117.92536364 0 -7.65503999 0 244.17576476 0 34069
0.17850000 0.17849800 7925.79155168 0 199.37160238 0 1976.38783548 0 83.96775032 0 335.06072857 0 34536
