### header ###
fiducial parameters:
Omega_m = 0.31
Omega_nu = 0
Omega_de = 0.69
Omega_k = 0
H_0 = 100
w_de = -1
zeff = 0
beta = 0
fgrowth = 0
b_1 = 2
gamma = 0.55
Lx = 3500 Ly = 3500 Lz = 3500
nx = 700 ny = 700 nz = 700
xoffset = -685.467585 yoffset = -31.7331281 zoffset = 572.489161
bins = 400 dk = 0.001
kx_ny = 0.628318531 ky_ny = 0.628318531 kz_ny = 0.628318531
############################
A(data) = 8.01961534 (not used)
A(ran) = 8.01576723 (used)
Ngal = 476385
weighted Ngal = 0
Nran = 23820508
weighted Nran = 0
SN(data) = 3489.08434
SN(ran) = 69.8202396
SN(data+ran) = 3558.90457
############################
13 columns: k_central k_mean P_0(k) sigma^{lin}_{P_0(k)} P^img_1(k) sigma^{lin}_{P_1(k)} P_2(k) sigma^{lin}_{P_2(k)} P^img_3(k) sigma^{lin}_{P_3(k)} P_4(k) sigma^{lin}_{P_4(k)} N_modes
### header ###
0.00050000 0 0 0 0 0 0 0 0 0 0 0 0
0.00150000 0.00179520 60243.41210577 0 -35284.28822283 0 52060.07827881 0 -80807.26592871 0 -116850.67274110 0 3
0.00250000 0.00253879 97132.08019482 0 -17186.01969051 0 24789.38514347 0 -32353.33312008 0 28981.81021281 0 6
0.00350000 0.00331552 78351.64573043 0 16781.32621839 0 9421.47440516 0 -30701.56370364 0 40499.57465891 0 7
0.00450000 0.00420575 61719.35300410 0 24468.50917023 0 10844.83283292 0 3191.05508506 0 58425.66854030 0 24
0.00550000 0.00557378 79064.92489525 0 -23890.42309145 0 33044.91052826 0 15521.73854702 0 -32620.28687146 0 45
0.00650000 0.00659388 73635.94259017 0 4052.29372643 0 58476.93340421 0 16708.69176758 0 26251.04274278 0 40
0.00750000 0.00754703 72071.20164680 0 29643.04945098 0 45438.93876051 0 -291.28407793 0 -808.92079937 0 57
0.00850000 0.00846663 53901.18444965 0 15546.54055461 0 46912.44374737 0 33495.55414838 0 42344.77758993 0 75
0.00950000 0.00948925 53060.46282617 0 -7052.14083419 0 32820.58522743 0 16488.02033394 0 -26547.22743168 0 112
0.01050000 0.01054430 52528.32689539 0 -5290.25714743 0 46266.26287095 0 16185.08152690 0 -1457.15116311 0 105
0.01150000 0.01145670 64680.09266060 0 -994.85724282 0 31353.61291221 0 -3876.56485923 0 -10785.41873795 0 144
0.01250000 0.01249090 64992.99655998 0 -8420.71339875 0 31121.53698401 0 -5926.00789386 0 2563.69716083 0 169
0.01350000 0.01339930 81274.07514306 0 -7481.91312203 0 29726.64550336 0 -6275.45046514 0 -20033.82163387 0 180
0.01450000 0.01448870 79252.71152417 0 -2149.89116539 0 34494.94218651 0 -733.77071636 0 -21106.84063204 0 267
0.01550000 0.01550050 84269.47117625 0 413.01986039 0 27524.13865043 0 7935.12552151 0 -6520.74674917 0 238
0.01650000 0.01653350 79537.15954876 0 -1099.11868224 0 21397.48915853 0 8495.67303777 0 -5451.54770306 0 315
0.01750000 0.01747870 87747.95274128 0 -11134.10839113 0 13216.92341277 0 21902.27644701 0 -12249.97728636 0 297
0.01850000 0.01844180 86234.80883156 0 512.15149172 0 7588.97143070 0 950.29556435 0 -21881.90336935 0 388
0.01950000 0.01947590 89336.60990626 0 6920.77877254 0 14474.07517268 0 -9115.66786599 0 -13474.35496480 0 399
0.02050000 0.02045430 77217.17532951 0 11635.68470542 0 13788.25537341 0 -17261.09005278 0 4941.31283077 0 462
0.02150000 0.02154770 73611.47275232 0 11932.86590355 0 22427.32608991 0 -8962.34938423 0 -1868.49910245 0 571
0.02250000 0.02255340 64669.35250553 0 2408.25279271 0 23882.89391057 0 5620.25671632 0 8133.46407598 0 510
0.02350000 0.02348930 67289.28600412 0 -352.12761004 0 32475.68230933 0 4676.86142480 0 -14587.78794857 0 555
0.02450000 0.02439640 65169.04652460 0 1887.25562069 0 17182.58726982 0 2639.79724931 0 -8764.74160319 0 592
0.02550000 0.02547300 62302.64307554 0 4689.88247878 0 24437.06376775 0 3159.03392168 0 -18170.90298313 0 837
0.02650000 0.02652900 61532.00926817 0 993.89173609 0 19690.24739474 0 280.56717474 0 -15275.71148955 0 723
0.02750000 0.02749970 56057.51970808 0 3301.29115095 0 21666.98954462 0 3286.43209105 0 -12863.05191157 0 826
0.02850000 0.02848090 57222.21755576 0 978.95184821 0 15329.19081842 0 6977.57979886 0 -11254.24311542 0 831
0.02950000 0.02946900 55037.75859229 0 678.61946644 0 12587.24030033 0 6923.22575633 0 -10325.28613546 0 996
0.03050000 0.03053250 56177.54370912 0 1354.41106112 0 16167.69797694 0 5229.48115650 0 2597.30166666 0 1041
0.03150000 0.03150510 55953.77202453 0 981.31911126 0 15648.07377320 0 5061.34790413 0 6615.47048800 0 1036
0.03250000 0.03246190 53795.99736388 0 334.63887299 0 17791.23296510 0 18.56607426 0 9900.09779010 0 1059
0.03350000 0.03345080 55499.25309073 0 722.22892497 0 20705.02596437 0 4202.30158307 0 18623.65034496 0 1302
0.03450000 0.03451200 56547.69152780 0 -146.25766023 0 20479.92560081 0 3052.92783295 0 16622.99197348 0 1339
0.03550000 0.03553350 56615.67560219 0 28.65085842 0 19856.22154377 0 8114.45289427 0 21555.60195694 0 1365
0.03650000 0.03647120 55948.45730862 0 778.17406058 0 20794.26890241 0 2849.96104670 0 14562.43232473 0 1308
0.03750000 0.03744890 55073.30075495 0 2229.24651736 0 22415.03580936 0 2376.97347509 0 16242.32544622 0 1579
0.03850000 0.03847530 52993.25381452 0 3812.02427786 0 24379.15550894 0 253.35361480 0 10046.21926073 0 1662
0.03950000 0.03950240 48140.69673950 0 3984.74147271 0 19971.59516839 0 1160.31320705 0 15235.96184345 0 1683
0.04050000 0.04050350 48432.23105198 0 812.52484110 0 25731.86143204 0 -1534.88995566 0 12724.20495834 0 1822
0.04150000 0.04152450 44984.64127320 0 965.82449991 0 22156.93991784 0 2809.28132531 0 8873.58255616 0 1887
0.04250000 0.04250150 46539.74929398 0 535.44212697 0 22820.06145123 0 3186.57079351 0 7522.17209507 0 1920
0.04350000 0.04349210 42905.92301174 0 1254.18437686 0 18027.73782322 0 -351.32929543 0 6600.97681481 0 2005
0.04450000 0.04448520 43987.79986977 0 972.73805953 0 20645.89974984 0 1319.46680399 0 3188.72989685 0 2151
0.04550000 0.04548030 43414.58561391 0 -83.34493205 0 20767.47387635 0 -4079.78630895 0 3831.96553486 0 2274
0.04650000 0.04648670 43310.39503737 0 2230.61948564 0 23181.68357981 0 -604.35184772 0 6400.14698725 0 2311
0.04750000 0.04749250 42047.15349881 0 1489.11696486 0 22139.77781437 0 1725.09035139 0 4144.03900987 0 2568
0.04850000 0.04851840 41541.25897785 0 824.09874223 0 20484.24380749 0 5527.55921294 0 2650.05022209 0 2493
0.04950000 0.04949480 41290.24937421 0 -372.82732129 0 17932.18366004 0 4911.91580837 0 3360.36200386 0 2644
0.05050000 0.05050630 40551.83603205 0 -142.40116949 0 16318.28159447 0 4221.25740316 0 697.88863332 0 2829
0.05150000 0.05149060 39620.32134506 0 1869.08593566 0 13525.50910547 0 920.53647694 0 -466.42832638 0 2784
0.05250000 0.05249300 38201.62436605 0 1512.81173997 0 13045.85599432 0 -1147.87898627 0 -1386.16648870 0 3055
0.05350000 0.05348950 37320.15658723 0 777.51525725 0 11157.13882676 0 -1337.31539160 0 239.57632103 0 3009
0.05450000 0.05448610 36414.99403331 0 327.43078954 0 11879.49729793 0 1712.40146715 0 -3351.60379493 0 3336
0.05550000 0.05550870 38002.98685880 0 -1201.40260445 0 11866.76412438 0 1998.37747257 0 -2098.91418192 0 3349
0.05650000 0.05647670 36832.30995572 0 607.88945550 0 12857.95864215 0 2108.52495986 0 -3298.34591255 0 3324
0.05750000 0.05747970 37609.03354175 0 1495.60534720 0 12790.63890725 0 2088.77193239 0 -3537.70743048 0 3639
0.05850000 0.05849280 35402.54065189 0 1423.12590894 0 12695.19546732 0 1191.03890842 0 -234.97909177 0 3846
0.05950000 0.05951020 33985.50452160 0 1271.20254010 0 10704.33610330 0 -50.13094713 0 783.48545479 0 3787
0.06050000 0.06049470 33167.03827101 0 452.62667349 0 11666.79793816 0 924.19255859 0 -189.96012629 0 3930
0.06150000 0.06148310 33526.55665787 0 -380.66763450 0 11611.65776056 0 807.40721257 0 -828.40144765 0 4083
0.06250000 0.06249100 32386.55009454 0 346.83503878 0 9915.64333414 0 1221.88640536 0 -2032.00412304 0 4303
0.06350000 0.06350600 32867.86405441 0 580.24407489 0 8872.51961298 0 -1108.58330549 0 -1649.26707104 0 4470
0.06450000 0.06451750 31908.00421588 0 402.28634871 0 8856.68618849 0 1779.74334670 0 -2182.36629408 0 4479
0.06550000 0.06550280 31813.33583868 0 138.51367625 0 9230.96398433 0 -1039.42556468 0 -4333.58613845 0 4636
0.06650000 0.06648880 30852.47949092 0 1558.33006730 0 8414.14751013 0 -1651.57011460 0 -3818.63445578 0 4653
0.06750000 0.06749660 29443.41543450 0 1689.48175478 0 8141.69081332 0 1218.11074260 0 -2309.41014905 0 5220
0.06850000 0.06852730 28621.73820970 0 -54.01268276 0 7455.84886941 0 1928.65504319 0 -2610.10127415 0 5029
0.06950000 0.06949320 28980.59225708 0 -361.93768983 0 6242.97533645 0 4009.15594893 0 -3080.44256012 0 5040
0.07050000 0.07048030 28939.62465525 0 -410.45550996 0 6222.10400416 0 2210.86645816 0 -2816.67763829 0 5475
0.07150000 0.07148790 29008.60523887 0 681.64221111 0 5005.82019516 0 556.73752930 0 -271.09480086 0 5509
0.07250000 0.07249820 28707.77017355 0 496.37121439 0 5554.08850320 0 579.61295237 0 330.01285568 0 5916
0.07350000 0.07351270 28127.35890655 0 616.39300096 0 6114.10454788 0 -1647.96053671 0 2414.79653667 0 5721
0.07450000 0.07449140 27513.28777211 0 1176.45665663 0 6866.05934329 0 -1304.56345478 0 213.76783911 0 6028
0.07550000 0.07549160 26872.31088836 0 1025.35374706 0 7739.73220543 0 -1444.55085746 0 314.80058862 0 6183
0.07650000 0.07648840 26268.20484625 0 579.76685769 0 7005.99138435 0 -808.54766202 0 -646.16869686 0 6330
0.07750000 0.07749960 26060.70947915 0 36.36096109 0 8198.51398429 0 -1243.83175315 0 -1416.71503287 0 6583
0.07850000 0.07848650 26240.96692720 0 218.50900860 0 8101.79722700 0 677.10809410 0 -2880.28814437 0 6549
0.07950000 0.07947320 25782.24050996 0 511.80935688 0 8355.87386461 0 613.95376780 0 -1988.63382673 0 6828
0.08050000 0.08048110 25678.60354966 0 1225.58456185 0 8350.45949778 0 652.16436075 0 -1456.30966642 0 7147
0.08150000 0.08149960 24318.70061543 0 699.71445968 0 9152.31726114 0 896.68226035 0 -391.62259267 0 7386
0.08250000 0.08250610 23897.17720959 0 927.25959256 0 9423.50064060 0 1421.53149417 0 558.22675699 0 7227
0.08350000 0.08350160 22778.87240290 0 710.01282900 0 8991.43638153 0 371.66029826 0 1624.02217045 0 7798
0.08450000 0.08449610 22790.05545097 0 194.47984928 0 9048.71351782 0 591.58545720 0 1304.40844224 0 7371
0.08550000 0.08548940 22545.46779573 0 12.79772520 0 8872.59711925 0 -85.74031881 0 1732.74132784 0 8256
0.08650000 0.08650700 22189.27110631 0 151.73292485 0 8640.59869733 0 -254.06335082 0 210.49596713 0 8037
0.08750000 0.08749060 22214.62673015 0 569.25147081 0 8170.27955600 0 -256.20806014 0 928.91490513 0 8155
0.08850000 0.08849210 21749.25691802 0 270.89771348 0 8417.29205038 0 518.52804358 0 -1454.00662286 0 8718
0.08950000 0.08949900 21438.23531386 0 305.09348145 0 7733.57599283 0 416.12896919 0 -1648.45879132 0 8571
0.09050000 0.09049190 20524.32562333 0 1052.85629468 0 7847.94203588 0 903.63678756 0 -2056.33002067 0 8932
0.09150000 0.09150830 20085.30794427 0 507.00396791 0 7116.58176464 0 382.42702691 0 -1503.26739598 0 9285
0.09250000 0.09250820 19419.97194592 0 21.39173155 0 7118.97338680 0 341.87353003 0 -1097.43236717 0 9204
0.09350000 0.09350330 19427.83329654 0 105.67172143 0 7249.70432593 0 676.42714612 0 -1300.88744294 0 9349
0.09450000 0.09448040 19369.81431449 0 383.57965592 0 6555.96781442 0 416.43567259 0 -1451.39355420 0 9564
0.09550000 0.09549270 19008.63507891 0 741.28661045 0 6849.69444721 0 -181.81310968 0 -534.41129353 0 10155
0.09650000 0.09649430 18340.19882961 0 570.72962617 0 6892.35611474 0 -275.07640886 0 -917.18820591 0 9913
0.09750000 0.09749140 18100.15082754 0 605.96287098 0 7409.88764908 0 480.11482709 0 -214.05904125 0 10476
0.09850000 0.09850240 17516.08569335 0 310.27311500 0 7196.25821403 0 959.78786842 0 -390.05253701 0 10575
0.09950000 0.09950330 17113.05306996 0 -48.27799357 0 6484.67311491 0 1006.18976727 0 -115.30829789 0 10882
0.10050000 0.10051200 17479.76846795 0 -189.54380687 0 5528.93218122 0 1121.71508273 0 -245.09366049 0 10875
0.10150000 0.10150300 17025.47098064 0 347.13066985 0 5263.08566232 0 227.69350204 0 85.32931411 0 11118
0.10250000 0.10250800 16811.99655814 0 544.42399687 0 5189.42148530 0 -275.52705248 0 -376.02168700 0 11575
0.10350000 0.10349800 16212.20872271 0 319.75434674 0 4905.09525628 0 151.59119909 0 204.82693682 0 11364
0.10450000 0.10450100 16106.02512770 0 142.43327923 0 5222.52773651 0 49.98756052 0 -65.21721114 0 12093
0.10550000 0.10551000 16161.82964479 0 85.06977881 0 5091.59749553 0 405.43199619 0 -450.41553023 0 12067
0.10650000 0.10649700 16073.25104624 0 145.33090664 0 5268.55539078 0 369.03283558 0 -589.73084279 0 12054
0.10750000 0.10749900 15858.00505176 0 165.85124623 0 5064.76925249 0 -165.72502172 0 -106.62183763 0 12807
0.10850000 0.10850100 15866.53074187 0 166.03504682 0 4688.68666770 0 436.96708450 0 223.23024790 0 12736
0.10950000 0.10950300 15667.45034163 0 300.12532930 0 5140.18285683 0 -173.69045220 0 295.75065377 0 12933
0.11050000 0.11050200 15496.05075344 0 525.33309442 0 5156.52560827 0 -653.48196740 0 148.45108777 0 13428
0.11150000 0.11150900 15004.43953149 0 423.75558653 0 5826.58948932 0 201.66468085 0 319.15201227 0 13453
0.11250000 0.11250000 14849.75915378 0 197.59117255 0 5550.15782789 0 245.88865341 0 288.12403643 0 13668
0.11350000 0.11349100 14664.96205255 0 148.13220482 0 5425.49452276 0 206.67269337 0 -155.24285182 0 13791
0.11450000 0.11448600 14550.36349068 0 339.44979813 0 5650.43987378 0 567.02593352 0 140.78350284 0 14205
0.11550000 0.11549300 14186.30545064 0 237.32753186 0 5122.45606480 0 181.32482016 0 74.75734765 0 14776
0.11650000 0.11649800 14066.50289610 0 113.12372821 0 4802.14478012 0 381.40283687 0 173.93736504 0 14553
0.11750000 0.11747300 13959.76568485 0 -90.69252680 0 4957.91024567 0 687.43746592 0 -66.93176064 0 14568
0.11850000 0.11849100 14107.47049793 0 174.99145036 0 4721.30573662 0 174.13777412 0 16.92260908 0 16015
0.11950000 0.11950300 13725.25384519 0 217.10282335 0 4639.93522153 0 181.29049595 0 424.92482403 0 15270
0.12050000 0.12050700 13790.69128487 0 160.08699393 0 4526.29995191 0 330.12911510 0 276.28550673 0 15999
0.12150000 0.12150000 13621.06326865 0 -66.85491870 0 4739.46434932 0 382.35616403 0 434.23997090 0 15670
0.12250000 0.12250700 13752.27031775 0 3.96422445 0 4356.63871872 0 250.63203736 0 -224.64639825 0 16887
0.12350000 0.12352200 13563.37645635 0 27.99692692 0 4491.87609405 0 0.14147331 0 609.51819448 0 16407
0.12450000 0.12449800 13611.43034606 0 365.21509798 0 3889.09873093 0 414.75046475 0 279.41676019 0 16306
0.12550000 0.12549900 13063.12882104 0 238.52445017 0 3762.35382873 0 48.73694143 0 99.94799384 0 17523
0.12650000 0.12650100 12869.03096697 0 284.26311677 0 3679.68785163 0 315.88567645 0 124.07757915 0 17154
0.12750000 0.12750600 12711.58250805 0 339.65020721 0 3390.21299157 0 186.39926662 0 29.82452485 0 18007
0.12850000 0.12850300 12537.96845489 0 131.66544335 0 3346.55481481 0 211.27213710 0 359.05334922 0 17496
0.12950000 0.12949900 12467.54846904 0 -113.63969854 0 3053.80254661 0 -12.20214484 0 -147.11355094 0 18405
0.13050000 0.13049000 12494.23277186 0 139.48582637 0 3369.13128512 0 -396.32279456 0 73.93987791 0 18100
0.13150000 0.13148800 12546.49414500 0 223.41737019 0 3507.42462210 0 -283.37843801 0 -378.70008238 0 19059
0.13250000 0.13249300 12315.08255629 0 81.94649743 0 3749.00060500 0 -148.20196047 0 -94.53152326 0 18957
0.13350000 0.13349100 12425.03074174 0 -120.20890886 0 3670.22101391 0 287.04116306 0 -46.69586907 0 19468
0.13450000 0.13450700 12400.33945739 0 -57.48540672 0 3601.04112844 0 713.49728962 0 -273.36905638 0 19953
0.13550000 0.13551000 12387.60628385 0 299.13546346 0 3443.88054997 0 401.69176486 0 -140.04608600 0 19956
0.13650000 0.13649900 12002.73227316 0 533.70266475 0 3377.07014201 0 -83.88227198 0 73.95072878 0 19723
0.13750000 0.13749600 11506.47067479 0 414.01858408 0 3433.19575652 0 -158.34974616 0 894.35264320 0 20946
0.13850000 0.13851100 11365.40925660 0 127.56425424 0 3547.51751027 0 -35.09063326 0 788.50232517 0 20955
0.13950000 0.13949800 11509.23875599 0 -276.02419987 0 3494.93503971 0 306.82740751 0 1001.67004428 0 20506
0.14050000 0.14048300 11746.62940010 0 -59.56811102 0 3546.66494126 0 431.01128098 0 158.12276350 0 21447
0.14150000 0.14148400 11626.60539907 0 73.77600750 0 3271.58410346 0 54.47661317 0 752.00904980 0 21771
0.14250000 0.14249400 11645.31762801 0 136.37782479 0 3305.88616575 0 75.98637570 0 563.13733304 0 22470
0.14350000 0.14350900 11388.55041547 0 237.71838493 0 3266.53512335 0 429.15666658 0 669.11609005 0 22519
0.14450000 0.14449900 11232.31991228 0 300.29252141 0 3424.30467969 0 256.42286324 0 722.02740866 0 22218
0.14550000 0.14550500 10841.31183363 0 398.99011761 0 3327.35540358 0 262.43513562 0 1046.10660547 0 23559
0.14650000 0.14650700 10612.76797705 0 305.36807510 0 3371.36789473 0 -259.78663552 0 1270.39426039 0 23044
0.14750000 0.14750500 10418.24937463 0 183.57803826 0 3458.15277666 0 -168.52964160 0 1357.73275856 0 23649
0.14850000 0.14849900 10440.61547077 0 123.37005759 0 3969.14056704 0 -198.28097839 0 1192.74404644 0 23640
0.14950000 0.14949500 10149.81193173 0 200.56298453 0 3627.13859804 0 131.20926357 0 1082.46701294 0 24457
0.15050000 0.15050000 10139.39287408 0 88.04446960 0 3697.72466876 0 142.10664565 0 719.41655446 0 24591
0.15150000 0.15149900 10067.41169043 0 18.96777820 0 3087.56206498 0 546.56427726 0 837.14415533 0 25020
0.15250000 0.15250500 10027.13057274 0 -38.21790068 0 3139.00408609 0 714.82818306 0 751.07454559 0 25297
0.15350000 0.15350100 9876.15942384 0 20.01876327 0 2520.92477006 0 591.66074901 0 423.17428948 0 25452
0.15450000 0.15450400 10015.60428260 0 74.90294872 0 2233.84153216 0 101.11800641 0 306.80747733 0 26061
0.15550000 0.15549900 9684.19852846 0 289.90778796 0 2023.65559013 0 -146.71051831 0 691.52426101 0 26128
0.15650000 0.15649500 9675.97179112 0 240.57504473 0 2307.26211803 0 -116.16861753 0 514.09800642 0 26331
0.15750000 0.15749700 9347.05731005 0 155.26610370 0 2338.63001425 0 -188.53954701 0 780.22244067 0 27345
0.15850000 0.15849900 9396.76097617 0 136.58487727 0 2459.60623521 0 -112.74948363 0 608.29913151 0 26980
0.15950000 0.15949700 9306.24472077 0 37.46453970 0 2315.66601257 0 371.28937538 0 843.88609391 0 27777
0.16050000 0.16050000 9236.06832607 0 24.22835044 0 2371.75841010 0 9.36497233 0 841.94843707 0 28224
0.16150000 0.16150500 9311.26048392 0 117.67998987 0 2396.19503098 0 242.75518549 0 782.11027205 0 28075
0.16250000 0.16249700 9103.85369541 0 151.29888972 0 2438.31415459 0 -89.88934036 0 650.46697335 0 28590
0.16350000 0.16349900 9000.55997718 0 163.31236215 0 2517.65843424 0 -264.62302700 0 769.44463969 0 29163
0.16450000 0.16449100 8901.08621101 0 171.58781771 0 2866.61382322 0 -115.64378934 0 756.23314172 0 28996
0.16550000 0.16550500 8870.05048454 0 210.85249599 0 2619.49060560 0 -351.69025321 0 376.19884420 0 30777
0.16650000 0.16650700 8660.42923108 0 132.75828181 0 2784.64540259 0 -104.84007912 0 619.92950150 0 29211
0.16750000 0.16749900 8635.22861979 0 28.41213910 0 2889.93213929 0 34.55340406 0 97.69289345 0 30922
0.16850000 0.16850800 8469.33197703 0 79.94439966 0 2853.24952717 0 210.76170292 0 -15.17993588 0 30867
0.16950000 0.16949900 8502.68181938 0 206.28184030 0 2845.38817655 0 66.68506924 0 -207.86739722 0 30852
0.17050000 0.17049200 8153.59356250 0 245.39593496 0 2606.12630954 0 209.73862011 0 7.55974049 0 31257
0.17150000 0.17149500 8093.96909335 0 45.68452292 0 2503.15368873 0 222.61462664 0 303.09935575 0 32608
0.17250000 0.17250900 8084.28080914 0 -183.86370424 0 2333.03849021 0 712.40888009 0 182.03455618 0 32361
0.17350000 0.17350400 8211.47967665 0 -30.37138698 0 2057.57012105 0 630.19576108 0 290.55662619 0 32508
0.17450000 0.17449800 8345.80912135 0 53.84936597 0 1889.20434986 0 159.11152211 0 151.65431134 0 32791
0.17550000 0.17549800 8019.15339455 0 193.85869185 0 1480.25910500 0 13.84405989 0 479.20689645 0 33633
0.17650000 0.17650100 8054.92807604 0 107.97277198 0 1632.55893289 0 -145.45270221 0 377.80322407 0 33984
0.17750000 0.17750300 7959.26318961 0 119.02306287 0 1682.53940712 0 -181.13548341 0 232.52989352 0 34069
0.17850000 0.17849800 7912.28331540 0 87.09712149 0 1745.93953903 0 -106.58064858 0 15.18779723 0 34536
