### header ###
fiducial parameters:
Omega_m = 0.31
Omega_nu = 0
Omega_de = 0.69
Omega_k = 0
H_0 = 100
w_de = -1
zeff = 0
beta = 0
fgrowth = 0
b_1 = 2
gamma = 0.55
Lx = 3500 Ly = 3500 Lz = 3500
nx = 700 ny = 700 nz = 700
xoffset = -685.467585 yoffset = -31.7331281 zoffset = 572.489161
bins = 400 dk = 0.001
kx_ny = 0.628318531 ky_ny = 0.628318531 kz_ny = 0.628318531
############################
A(data) = 8.08255269 (not used)
A(ran) = 8.08337848 (used)
Ngal = 481000
weighted Ngal = 0
Nran = 23820508
weighted Nran = 0
SN(data) = 3487.43096
SN(ran) = 70.4091581
SN(data+ran) = 3557.84012
############################
13 columns: k_central k_mean P_0(k) sigma^{lin}_{P_0(k)} P^img_1(k) sigma^{lin}_{P_1(k)} P_2(k) sigma^{lin}_{P_2(k)} P^img_3(k) sigma^{lin}_{P_3(k)} P_4(k) sigma^{lin}_{P_4(k)} N_modes
### header ###
0.00050000 0 0 0 0 0 0 0 0 0 0 0 0
0.00150000 0.00179520 2042.94357996 0 -8175.69392284 0 2493.38789824 0 -8537.23854514 0 -14072.14978176 0 3
0.00250000 0.00253879 15772.85887391 0 -21414.87270850 0 -9651.36908537 0 -31672.93875998 0 1401.26913975 0 6
0.00350000 0.00331552 29325.16300543 0 -23009.28748238 0 -5831.23986574 0 -10660.04680402 0 -1733.84856033 0 7
0.00450000 0.00420575 39733.25905821 0 -6380.23894722 0 15689.48426802 0 -57363.72186694 0 6482.15969718 0 24
0.00550000 0.00557378 65718.01238910 0 -7887.35951224 0 44998.48167922 0 -36103.64025941 0 20575.03687100 0 45
0.00650000 0.00659388 54747.77440529 0 -4747.86824386 0 83912.94231709 0 -44056.11611390 0 13553.74353375 0 40
0.00750000 0.00754703 88117.10405073 0 4038.12115066 0 57845.81088954 0 40947.67164432 0 12097.17920386 0 57
0.00850000 0.00846663 73713.78103364 0 7533.07833502 0 85457.42090604 0 16830.26589409 0 2179.83073170 0 75
0.00950000 0.00948925 87565.81299801 0 3019.75514779 0 72271.16783302 0 39154.06574695 0 4898.83939276 0 112
0.01050000 0.01054430 76140.39174090 0 5288.47450313 0 53782.71057409 0 41106.44878222 0 -6400.04733632 0 105
0.01150000 0.01145670 78127.65259935 0 7560.05051827 0 53535.02266790 0 29658.10781273 0 1200.90434983 0 144
0.01250000 0.01249090 72149.37226001 0 4325.27082251 0 38632.11635499 0 16684.66482272 0 -8447.33126762 0 169
0.01350000 0.01339930 64382.13639973 0 1419.41668013 0 33773.24805483 0 15757.80051215 0 5752.00630934 0 180
0.01450000 0.01448870 71117.65303341 0 -1612.68410984 0 25401.46325945 0 169.35452980 0 -22500.73560346 0 267
0.01550000 0.01550050 71259.71096084 0 -6164.46148116 0 23971.47250912 0 16611.69820217 0 -18774.89830199 0 238
0.01650000 0.01653350 87125.02374698 0 -10120.22667982 0 25291.84724374 0 -9130.19475616 0 -32038.87909523 0 315
0.01750000 0.01747870 76493.04528637 0 -930.18932971 0 14961.58963444 0 2602.58316560 0 -27968.13887566 0 297
0.01850000 0.01844180 86102.60527322 0 5049.01333428 0 26342.05725279 0 -6005.21930562 0 -29042.48655281 0 388
0.01950000 0.01947590 80932.27247591 0 -905.76378116 0 23762.20557005 0 -1312.97842164 0 -9015.08686734 0 399
0.02050000 0.02045430 85110.63569272 0 -380.64106092 0 24407.16849073 0 1271.71186705 0 -22470.50815671 0 462
0.02150000 0.02154770 79908.85749292 0 3860.91966426 0 24617.09976930 0 8789.39967056 0 -7048.68626885 0 571
0.02250000 0.02255340 79720.84941750 0 6566.56402927 0 17458.39888105 0 3302.64197458 0 -11349.35438561 0 510
0.02350000 0.02348930 74427.72453795 0 6675.37176526 0 28629.48883708 0 3790.25608727 0 3929.44628256 0 555
0.02450000 0.02439640 72127.11688713 0 6919.56081681 0 22677.11773782 0 6827.48336362 0 13995.08640102 0 592
0.02550000 0.02547300 67891.73119750 0 4899.32657505 0 24899.33332892 0 3274.66220976 0 18756.96113578 0 837
0.02650000 0.02652900 65020.67737203 0 -1664.52473464 0 27723.21905067 0 2989.39483314 0 22308.74149110 0 723
0.02750000 0.02749970 65923.95763073 0 -1842.82238119 0 33488.68930699 0 893.30298681 0 12557.67719307 0 826
0.02850000 0.02848090 66048.96417793 0 4369.70406200 0 34781.71539931 0 629.67536181 0 8087.33677079 0 831
0.02950000 0.02946900 61812.47125582 0 5573.15504654 0 40407.67436291 0 -3264.14350119 0 7575.04244608 0 996
0.03050000 0.03053250 58298.33680488 0 3227.27265954 0 35494.66239438 0 20.22504068 0 11421.21377368 0 1041
0.03150000 0.03150510 57365.16126917 0 -1294.12225248 0 36963.51700482 0 10931.82808902 0 11747.62590934 0 1036
0.03250000 0.03246190 58768.35699343 0 -2389.47412981 0 33875.33488966 0 10777.30272385 0 10760.64994733 0 1059
0.03350000 0.03345080 60164.13426007 0 -2261.73271838 0 22094.04911287 0 12136.48595697 0 6595.92783469 0 1302
0.03450000 0.03451200 61311.11638803 0 2052.23326049 0 19422.29713413 0 6774.22548124 0 4919.56678482 0 1339
0.03550000 0.03553350 58275.74926225 0 1809.47253884 0 13530.93454463 0 -629.76283318 0 1165.51719971 0 1365
0.03650000 0.03647120 56435.19670765 0 1518.64685515 0 20938.20912505 0 -3112.86232719 0 4500.62323066 0 1308
0.03750000 0.03744890 56480.48251616 0 2095.14959148 0 19509.54705370 0 -11001.87161583 0 -3442.45222007 0 1579
0.03850000 0.03847530 53219.90430356 0 4050.61073306 0 24773.55171898 0 -3508.53185458 0 -5727.21537407 0 1662
0.03950000 0.03950240 50207.45689015 0 5463.74940501 0 24910.07348400 0 -1632.63643916 0 -2874.48624617 0 1683
0.04050000 0.04050350 46613.15880752 0 1601.60071269 0 23577.62991532 0 4457.98370778 0 -2807.87514006 0 1822
0.04150000 0.04152450 45459.64400792 0 957.58226131 0 24575.91072097 0 7746.75205937 0 -5822.35986124 0 1887
0.04250000 0.04250150 44300.70376915 0 199.90639567 0 18215.19228240 0 8431.02173316 0 -7139.56791096 0 1920
0.04350000 0.04349210 45174.97453683 0 -1272.80802720 0 15259.43517207 0 4471.29264221 0 -3818.02547791 0 2005
0.04450000 0.04448520 44419.06692146 0 364.92721754 0 13647.19395522 0 2002.35243718 0 -4211.51375732 0 2151
0.04550000 0.04548030 44796.74392102 0 1078.97258723 0 11967.19011049 0 319.66687537 0 -2997.56620885 0 2274
0.04650000 0.04648670 43298.76909631 0 1344.15808833 0 16122.74433818 0 -1318.27099291 0 525.70623176 0 2311
0.04750000 0.04749250 42274.46832734 0 2864.74260033 0 16381.28312269 0 -1757.39939522 0 -440.38068224 0 2568
0.04850000 0.04851840 39943.41178327 0 2500.76206657 0 20982.71987082 0 71.96845047 0 3240.06119471 0 2493
0.04950000 0.04949480 39322.14363769 0 229.82935349 0 21203.83419745 0 530.59466317 0 1940.33634587 0 2644
0.05050000 0.05050630 40571.98766322 0 -848.27516347 0 24370.96198858 0 3659.66908836 0 1348.29913782 0 2829
0.05150000 0.05149060 37888.38829693 0 1161.60866905 0 19894.08889465 0 -967.58721402 0 1604.44630017 0 2784
0.05250000 0.05249300 38895.41623918 0 2178.01487043 0 22713.76713297 0 3662.61432676 0 3652.70459605 0 3055
0.05350000 0.05348950 37845.87056962 0 -42.64815929 0 17349.22575834 0 720.44738790 0 2957.63940556 0 3009
0.05450000 0.05448610 36614.84949629 0 707.07312676 0 18543.48671328 0 4562.56181569 0 1683.14838498 0 3336
0.05550000 0.05550870 35567.96118468 0 1086.85054634 0 14228.38028495 0 3858.95986277 0 2911.77783616 0 3349
0.05650000 0.05647670 33707.92133840 0 395.63963212 0 14113.00666034 0 4266.36605447 0 2356.02463654 0 3324
0.05750000 0.05747970 34624.37766364 0 403.91951662 0 10865.05089804 0 3874.29503264 0 3658.75008540 0 3639
0.05850000 0.05849280 33848.31841710 0 23.25276791 0 11674.32711904 0 2600.80052130 0 5565.86945681 0 3846
0.05950000 0.05951020 33434.98853162 0 1481.60992863 0 10896.76203632 0 -1939.07410084 0 5451.39269051 0 3787
0.06050000 0.06049470 31999.79378863 0 2498.39258905 0 13652.73011763 0 -2402.16301405 0 5591.83405851 0 3930
0.06150000 0.06148310 31469.98304605 0 753.64775387 0 13714.51369012 0 -2300.47478292 0 5208.74269211 0 4083
0.06250000 0.06249100 30418.77652777 0 -759.16066440 0 14747.45087245 0 -974.53288338 0 6467.42243285 0 4303
0.06350000 0.06350600 31704.93777870 0 -759.02779650 0 15347.90304737 0 1428.19703371 0 2507.29473821 0 4470
0.06450000 0.06451750 32119.92851291 0 24.38590963 0 14428.01430143 0 569.87041377 0 -952.07156525 0 4479
0.06550000 0.06550280 31724.86796338 0 871.93007821 0 12453.48661652 0 688.73846409 0 -4248.09671852 0 4636
0.06650000 0.06648880 31372.76803415 0 451.86821924 0 14129.61514757 0 -1491.89611839 0 -2917.92297643 0 4653
0.06750000 0.06749660 30483.66035121 0 663.45038144 0 12459.79784167 0 -396.86533847 0 -4319.32498408 0 5220
0.06850000 0.06852730 30801.21462701 0 -340.96227770 0 12041.37468677 0 782.74360903 0 -5590.68253673 0 5029
0.06950000 0.06949320 30505.58355435 0 -212.09481083 0 12072.26647302 0 2985.24271133 0 -4032.28603548 0 5040
0.07050000 0.07048030 30001.79277510 0 386.72087448 0 10246.38474880 0 1585.29117823 0 -4219.93979651 0 5475
0.07150000 0.07148790 30304.95302863 0 585.19229685 0 9196.60656042 0 3192.66057216 0 -3927.80757849 0 5509
0.07250000 0.07249820 29205.13900440 0 310.10703013 0 8085.93058554 0 1438.15105372 0 -3130.52268528 0 5916
0.07350000 0.07351270 29151.77039877 0 538.15263209 0 7846.09295764 0 924.56348147 0 -1734.65684004 0 5721
0.07450000 0.07449140 28386.67275380 0 565.10045623 0 6830.97114594 0 262.22365422 0 -330.33948927 0 6028
0.07550000 0.07549160 28213.61231689 0 774.30981922 0 7936.77529790 0 215.91919182 0 -741.23678498 0 6183
0.07650000 0.07648840 27461.24784546 0 248.37881926 0 7921.71693615 0 -555.95582317 0 -119.30097822 0 6330
0.07750000 0.07749960 26944.83461592 0 1095.57443106 0 8511.17429252 0 1329.26581145 0 28.82856924 0 6583
0.07850000 0.07848650 26562.72868643 0 444.47633519 0 8324.58347468 0 605.84661157 0 699.52733739 0 6549
0.07950000 0.07947320 26010.21967798 0 131.18711892 0 6125.11043875 0 1306.18001421 0 -105.82086565 0 6828
0.08050000 0.08048110 25583.60300272 0 775.25982469 0 7997.75059068 0 -454.58979668 0 -1058.23633731 0 7147
0.08150000 0.08149960 24769.01206581 0 1041.70203466 0 6911.75482782 0 -303.79469775 0 541.07240415 0 7386
0.08250000 0.08250610 24139.21823012 0 535.11217170 0 7949.50847144 0 426.70303940 0 652.76337352 0 7227
0.08350000 0.08350160 23410.99142680 0 99.09298892 0 6891.75820919 0 1084.15775694 0 137.19385513 0 7798
0.08450000 0.08449610 23430.25727199 0 780.45053056 0 7849.86862040 0 703.76803780 0 -348.77823179 0 7371
0.08550000 0.08548940 22533.50968492 0 925.36401056 0 6746.52252455 0 786.24357091 0 1562.03929612 0 8256
0.08650000 0.08650700 21950.44105997 0 830.87389779 0 7693.43881536 0 -76.16917979 0 3076.45652319 0 8037
0.08750000 0.08749060 21587.04735943 0 308.52700937 0 7606.22211277 0 -192.24434690 0 2485.00614835 0 8155
0.08850000 0.08849210 21626.79700552 0 125.58009363 0 8496.72490863 0 -644.68057640 0 1533.68307225 0 8718
0.08950000 0.08949900 21188.44366595 0 552.89543259 0 8740.52642881 0 -269.57789236 0 2016.11533693 0 8571
0.09050000 0.09049190 21072.84859485 0 436.92611690 0 8543.11794962 0 -22.05795333 0 2179.08888593 0 8932
0.09150000 0.09150830 20380.49612394 0 163.70432244 0 8710.74187505 0 1691.18689280 0 1439.92262569 0 9285
0.09250000 0.09250820 19993.73981802 0 633.54624657 0 7140.04402093 0 691.40025098 0 377.16545816 0 9204
0.09350000 0.09350330 19496.26026392 0 843.24722077 0 7413.33114210 0 689.24446933 0 53.68992449 0 9349
0.09450000 0.09448040 18490.00738440 0 576.56252689 0 7076.71032297 0 -360.26355432 0 1020.36787920 0 9564
0.09550000 0.09549270 18289.26613544 0 588.67343577 0 7483.51860913 0 -444.26928272 0 1105.97798746 0 10155
0.09650000 0.09649430 18404.52903680 0 75.87487739 0 7828.36616560 0 -44.00407619 0 705.16425796 0 9913
0.09750000 0.09749140 18194.92992799 0 33.90368004 0 8487.42415578 0 -754.10614812 0 314.98328198 0 10476
0.09850000 0.09850240 18319.71502869 0 245.45904721 0 9026.01525194 0 -567.35145987 0 600.01813978 0 10575
0.09950000 0.09950330 17883.35470759 0 156.26814910 0 8529.79794287 0 -94.93189853 0 -401.96414405 0 10882
0.10050000 0.10051200 17829.21103923 0 337.37484446 0 8921.19355288 0 497.89476628 0 -586.47115037 0 10875
0.10150000 0.10150300 17594.47775307 0 285.32495272 0 8086.28489993 0 738.26165131 0 -1286.36055278 0 11118
0.10250000 0.10250800 16943.20360724 0 271.17452160 0 7259.41475480 0 507.88643220 0 -1674.06907863 0 11575
0.10350000 0.10349800 16425.57242197 0 734.91116582 0 6984.90967789 0 900.70815765 0 -1140.63768584 0 11364
0.10450000 0.10450100 16333.11850973 0 298.55195195 0 6235.16934745 0 761.23340361 0 -1861.91106918 0 12093
0.10550000 0.10551000 15936.72928122 0 -109.07978301 0 5907.55032839 0 1136.18661127 0 -429.74128533 0 12067
0.10650000 0.10649700 15640.10169933 0 206.93289300 0 5471.09035636 0 822.64273152 0 -928.17416659 0 12054
0.10750000 0.10749900 16022.31835207 0 2.63638697 0 5544.03483227 0 753.16721498 0 -906.46798102 0 12807
0.10850000 0.10850100 15678.85483620 0 189.69771219 0 4885.80726645 0 269.32212166 0 278.83657037 0 12736
0.10950000 0.10950300 15573.44630392 0 392.95570058 0 4588.79215319 0 299.71897498 0 340.37433725 0 12933
0.11050000 0.11050200 15290.10551181 0 84.33457645 0 5039.97831723 0 -221.19072567 0 488.42017794 0 13428
0.11150000 0.11150900 15221.01420494 0 208.66792630 0 4971.63992844 0 -23.53068326 0 229.65441076 0 13453
0.11250000 0.11250000 15071.98071289 0 374.14824964 0 4938.09078424 0 -101.60164555 0 177.19262854 0 13668
0.11350000 0.11349100 14758.63392052 0 108.26674220 0 4817.19206955 0 -425.70763739 0 -257.52345233 0 13791
0.11450000 0.11448600 14966.35073412 0 -11.22379422 0 5207.74618288 0 40.50023900 0 155.07898141 0 14205
0.11550000 0.11549300 14983.29139109 0 110.48463959 0 5507.98334266 0 -285.64383567 0 339.56937924 0 14776
0.11650000 0.11649800 14692.75358785 0 540.78563093 0 5418.36394558 0 227.64810550 0 -72.56148419 0 14553
0.11750000 0.11747300 14560.77147601 0 267.76646002 0 5551.76331499 0 -115.58399878 0 -67.89937110 0 14568
0.11850000 0.11849100 14117.87848326 0 317.48784185 0 5383.87365377 0 254.29033348 0 412.83273810 0 16015
0.11950000 0.11950300 13999.95822394 0 159.16799097 0 5408.74209531 0 739.05000083 0 443.23512758 0 15270
0.12050000 0.12050700 13774.85786038 0 179.92195661 0 4971.56242217 0 963.01212940 0 65.74890418 0 15999
0.12150000 0.12150000 13597.81138653 0 96.47615567 0 4399.22287997 0 292.87849271 0 -458.83714048 0 15670
0.12250000 0.12250700 13496.94250743 0 190.48716895 0 4660.07578037 0 14.05698070 0 -220.38798212 0 16887
0.12350000 0.12352200 13414.12151779 0 62.46651348 0 4416.22997089 0 -187.59507770 0 -320.51833715 0 16407
0.12450000 0.12449800 13223.78825416 0 33.52511726 0 4588.13888603 0 -148.89951693 0 -217.60550689 0 16306
0.12550000 0.12549900 13425.08311936 0 -6.81730790 0 4464.51637943 0 226.75678336 0 -231.36840664 0 17523
0.12650000 0.12650100 13440.91654385 0 -183.07646195 0 4160.71393105 0 497.89476628 0 -376.56423092 0 17154
0.12750000 0.12750600 13488.30609407 0 -117.54047858 0 4328.39321811 0 337.85649059 0 -350.74135498 0 18007
0.12850000 0.12850300 13500.81782112 0 247.96139262 0 3980.35683208 0 618.18893204 0 -687.87703722 0 17496
0.12950000 0.12949900 13151.04308010 0 334.02546620 0 3508.38791436 0 556.38210767 0 -145.01755985 0 18405
0.13050000 0.13049000 12758.08627229 0 342.40610885 0 3114.08028292 0 532.63418540 0 -114.64728010 0 18100
0.13150000 0.13148800 12686.22688421 0 211.25442138 0 3122.21844166 0 142.35466573 0 -409.41028249 0 19059
0.13250000 0.13249300 12454.81529550 0 156.12974504 0 2922.00866429 0 80.22010054 0 -446.69855079 0 18957
0.13350000 0.13349100 12304.23167797 0 205.52449328 0 2986.91463238 0 -230.33646597 0 -11.72127378 0 19468
0.13450000 0.13450700 12377.75191476 0 79.33365022 0 3377.15872061 0 38.44632274 0 153.61411284 0 19953
0.13550000 0.13551000 12372.32647560 0 181.80646629 0 3585.57309067 0 -239.75347823 0 319.50079050 0 19956
0.13650000 0.13649900 12100.05800831 0 150.42639052 0 3454.31067995 0 -109.24088534 0 73.16071841 0 19723
0.13750000 0.13749600 12085.77470930 0 111.77069011 0 3811.47066162 0 103.85774246 0 654.53273103 0 20946
0.13850000 0.13851100 11914.59656760 0 179.88652517 0 3622.80931904 0 304.89528683 0 604.63419200 0 20955
0.13950000 0.13949800 11850.04491391 0 151.24906426 0 3618.09250866 0 419.19268147 0 812.06976855 0 20506
0.14050000 0.14048300 11634.79891943 0 226.58294786 0 3298.29055093 0 532.39170149 0 850.00133891 0 21447
0.14150000 0.14148400 11492.74099201 0 62.66194002 0 3277.79567769 0 164.76505116 0 851.27465626 0 21771
0.14250000 0.14249400 11577.77644662 0 2.40038037 0 3250.55775863 0 83.20486714 0 618.25536599 0 22470
0.14350000 0.14350900 11457.86316883 0 47.89345173 0 3177.72400598 0 -25.58371373 0 588.60589459 0 22519
0.14450000 0.14449900 11454.43074814 0 201.02359324 0 3312.23060787 0 -112.18922399 0 992.33939615 0 22218
0.14550000 0.14550500 11296.53939622 0 62.93930175 0 3251.64284647 0 53.23363399 0 1044.82775195 0 23559
0.14650000 0.14650700 11430.84669627 0 22.77300407 0 3249.77162357 0 528.64814847 0 797.18634953 0 23044
0.14750000 0.14750500 11167.21464234 0 184.59226321 0 3146.04608467 0 -74.91479611 0 531.09734672 0 23649
0.14850000 0.14849900 11005.90194206 0 421.19455780 0 3129.38223582 0 -159.91758736 0 801.58316971 0 23640
0.14950000 0.14949500 10811.87052194 0 275.19598997 0 3193.49099652 0 250.52020688 0 955.20503317 0 24457
0.15050000 0.15050000 10458.28690118 0 165.50246799 0 2735.42891877 0 322.47924588 0 919.18122438 0 24591
0.15150000 0.15149900 10321.33331550 0 187.43231453 0 2948.79261803 0 317.09477432 0 779.86591181 0 25020
0.15250000 0.15250500 10202.37225765 0 132.08840616 0 2581.13607242 0 362.28536083 0 419.88248731 0 25297
0.15350000 0.15350100 9995.75160420 0 171.84248119 0 2525.44227859 0 102.46384749 0 362.15360017 0 25452
0.15450000 0.15450400 9948.39527096 0 155.07344525 0 2460.03805588 0 -87.77120462 0 311.05592836 0 26061
0.15550000 0.15549900 9718.15734868 0 85.19024571 0 2169.31202312 0 -48.59720869 0 450.64804905 0 26128
0.15650000 0.15649500 9733.53680785 0 233.93054261 0 2384.12619693 0 -241.98455168 0 146.68948089 0 26331
0.15750000 0.15749700 9526.86079278 0 220.46991732 0 2372.83242561 0 107.00195054 0 180.93950326 0 27345
0.15850000 0.15849900 9258.62265173 0 308.09851040 0 2360.16568602 0 30.89831892 0 106.96751561 0 26980
0.15950000 0.15949700 9078.55343320 0 167.09909723 0 2123.82691276 0 114.32064652 0 219.09916351 0 27777
0.16050000 0.16050000 8891.28720354 0 137.00341114 0 2468.49731204 0 71.52611110 0 -36.65814229 0 28224
0.16150000 0.16150500 8917.28502222 0 116.83074256 0 2506.82970057 0 -198.70947736 0 -246.53195548 0 28075
0.16250000 0.16249700 8779.98819447 0 100.87319730 0 2549.53565739 0 27.72332977 0 -126.46255792 0 28590
0.16350000 0.16349900 8701.90615985 0 105.78908808 0 2344.64228662 0 5.21944963 0 -67.96403348 0 29163
0.16450000 0.16449100 8770.05631911 0 -110.30006393 0 2231.27275280 0 352.93478252 0 -154.23527026 0 28996
0.16550000 0.16550500 8644.34114311 0 -6.49154903 0 1894.86230784 0 284.11474761 0 -529.36120618 0 30777
0.16650000 0.16650700 8491.54306062 0 313.98012935 0 2013.31403875 0 78.47997398 0 -486.18910448 0 29211
0.16750000 0.16749900 8289.74994080 0 308.39857041 0 1910.69573233 0 -12.33578780 0 -394.97861433 0 30922
0.16850000 0.16850800 8104.79782703 0 284.14685736 0 1804.30176315 0 135.44332058 0 -211.90436684 0 30867
0.16950000 0.16949900 7866.98643457 0 98.57170387 0 1787.88150544 0 -117.73867319 0 -52.51559372 0 30852
0.17050000 0.17049200 7989.30240684 0 -89.88214335 0 1838.89170588 0 259.62830128 0 169.62358729 0 31257
0.17150000 0.17149500 8101.34326168 0 -120.13250982 0 1803.24989229 0 126.01412876 0 7.43647230 0 32608
0.17250000 0.17250900 8208.98840357 0 -40.04549862 0 1859.50837469 0 117.68441880 0 279.95155348 0 32361
0.17350000 0.17350400 8091.04599960 0 168.98028522 0 1795.70963909 0 124.24144956 0 201.91380816 0 32508
0.17450000 0.17449800 8166.31566372 0 63.81335107 0 1968.50434021 0 -29.10880978 0 679.94371649 0 32791
0.17550000 0.17549800 7978.31866062 0 123.57268114 0 1957.07770100 0 4.24222839 0 670.69057463 0 33633
0.17650000 0.17650100 7955.08892315 0 206.83102761 0 2138.53096012 0 193.98934529 0 837.91368191 0 33984
0.17750000 0.17750300 7819.08755741 0 129.58938244 0 2165.76887918 0 96.14631112 0 1067.28574838 0 34069
0.17850000 0.17849800 7668.18284245 0 181.71456599 0 2111.55877686 0 -35.41084490 0 995.39314334 0 34536
