### header ###
fiducial parameters:
Omega_m = 0.31
Omega_nu = 0
Omega_de = 0.69
Omega_k = 0
H_0 = 100
w_de = -1
zeff = 0
beta = 0
fgrowth = 0
b_1 = 2
gamma = 0.55
Lx = 3500 Ly = 3500 Lz = 3500
nx = 700 ny = 700 nz = 700
xoffset = -685.467585 yoffset = -31.7331281 zoffset = 572.489161
bins = 400 dk = 0.001
kx_ny = 0.628318531 ky_ny = 0.628318531 kz_ny = 0.628318531
############################
A(data) = 8.06877514 (not used)
A(ran) = 8.05981534 (used)
Ngal = 478863
weighted Ngal = 0
Nran = 23820508
weighted Nran = 0
SN(data) = 3497.57842
SN(ran) = 70.2039147
SN(data+ran) = 3567.78234
############################
13 columns: k_central k_mean P_0(k) sigma^{lin}_{P_0(k)} P^img_1(k) sigma^{lin}_{P_1(k)} P_2(k) sigma^{lin}_{P_2(k)} P^img_3(k) sigma^{lin}_{P_3(k)} P_4(k) sigma^{lin}_{P_4(k)} N_modes
### header ###
0.00050000 0 0 0 0 0 0 0 0 0 0 0 0
0.00150000 0.00179520 1464.71356096 0 6031.43857079 0 7247.70023514 0 605.67388330 0 1402.11063643 0 3
0.00250000 0.00253879 14168.92190068 0 -11910.38908417 0 -4472.72097212 0 -23693.88932592 0 -40323.30324779 0 6
0.00350000 0.00331552 19110.50046724 0 -20019.31688835 0 -37433.75863987 0 37664.61661234 0 3059.64873411 0 7
0.00450000 0.00420575 43359.22398982 0 -32079.73597382 0 -30068.11600076 0 -1038.59735478 0 -4891.73096023 0 24
0.00550000 0.00557378 68843.95113190 0 -18139.67902714 0 -19718.14965329 0 -29820.20664807 0 -18512.59492703 0 45
0.00650000 0.00659388 87358.64980065 0 -3171.68958895 0 3854.38699262 0 -41500.40209926 0 2631.39335478 0 40
0.00750000 0.00754703 86069.94191501 0 -3728.53894873 0 223.36865196 0 -56701.70756603 0 -17063.89194776 0 57
0.00850000 0.00846663 88115.44320201 0 7407.52924390 0 23642.95663175 0 -45286.58357100 0 -20319.59833744 0 75
0.00950000 0.00948925 72507.89413764 0 13098.56026046 0 16303.88757221 0 -32506.13120258 0 -28649.97263799 0 112
0.01050000 0.01054430 86966.02516258 0 608.77745595 0 42897.17587514 0 -21785.57414342 0 -27697.42053384 0 105
0.01150000 0.01145670 82095.86309110 0 -16357.69907083 0 18551.23734065 0 22579.23838642 0 -64801.77751036 0 144
0.01250000 0.01249090 96835.45261293 0 -14119.53933199 0 27891.07549492 0 -4451.68355496 0 -61014.82097589 0 169
0.01350000 0.01339930 98180.51863190 0 5005.03406010 0 17369.37738951 0 4996.09869397 0 -70902.29631569 0 180
0.01450000 0.01448870 98587.98018523 0 8955.22987937 0 10380.49274700 0 408.12810728 0 -30404.16105901 0 267
0.01550000 0.01550050 93988.97934855 0 -370.75015316 0 19255.21575262 0 1983.69556986 0 -31092.63821623 0 238
0.01650000 0.01653350 87333.84779306 0 7080.87351710 0 30135.76790541 0 -1270.81500874 0 -11132.55826566 0 315
0.01750000 0.01747870 80058.88749421 0 11548.65623234 0 31288.61836552 0 9313.51923818 0 -6277.13345851 0 297
0.01850000 0.01844180 77485.67920636 0 2122.24357031 0 31291.49716998 0 -3880.94949986 0 8955.42918122 0 388
0.01950000 0.01947590 78505.99393840 0 362.77143589 0 39840.43916245 0 11031.93297771 0 14053.10538307 0 399
0.02050000 0.02045430 77939.42307743 0 -2415.47194849 0 37080.10858516 0 11130.12235420 0 6708.21228068 0 462
0.02150000 0.02154770 82414.19242964 0 1874.20134973 0 34366.28177211 0 3305.10003069 0 3935.63571214 0 571
0.02250000 0.02255340 75294.02323176 0 3201.91703571 0 18542.26875755 0 5609.81551402 0 16668.38850524 0 510
0.02350000 0.02348930 78094.87851788 0 2759.42264665 0 31316.63134731 0 -1023.74936720 0 8341.66807187 0 555
0.02450000 0.02439640 71570.06822550 0 2942.24887406 0 22480.25180255 0 3537.75171978 0 16912.53326749 0 592
0.02550000 0.02547300 70294.97929939 0 5950.14556197 0 32921.34338328 0 553.51437554 0 1310.32106369 0 837
0.02650000 0.02652900 66751.94608067 0 5615.45132735 0 27516.16657656 0 788.18012052 0 19138.62417228 0 723
0.02750000 0.02749970 63852.87927340 0 1250.86267941 0 26652.63596396 0 5771.12821430 0 11907.06738672 0 826
0.02850000 0.02848090 64173.53380015 0 -1566.46822604 0 36673.42209458 0 -571.83796589 0 11265.09399374 0 831
0.02950000 0.02946900 65696.08918596 0 -2704.32675836 0 31102.49258532 0 6153.63274748 0 5491.31949381 0 996
0.03050000 0.03053250 63853.98650589 0 1439.97798731 0 30425.53064591 0 7141.31733828 0 12646.47723811 0 1041
0.03150000 0.03150510 66500.82575378 0 497.75968392 0 22016.87500889 0 9647.12838496 0 12979.42204541 0 1036
0.03250000 0.03246190 65832.61095098 0 -2066.83765692 0 21839.27491879 0 8698.11942476 0 9949.70180528 0 1059
0.03350000 0.03345080 67193.51039444 0 401.10714611 0 20516.79644246 0 1153.30442544 0 5031.15367434 0 1302
0.03450000 0.03451200 63404.00722526 0 5061.66900154 0 22336.53302640 0 -2976.61737030 0 9210.96736571 0 1339
0.03550000 0.03553350 62547.89507028 0 4597.12961378 0 28958.44760744 0 -9360.97522235 0 9521.62358315 0 1365
0.03650000 0.03647120 55414.99269886 0 4099.45075783 0 29684.34922255 0 -39.47638112 0 7514.57648024 0 1308
0.03750000 0.03744890 57556.26959554 0 2658.60912918 0 34804.74583493 0 2444.12712512 0 5189.28861740 0 1579
0.03850000 0.03847530 53025.91717274 0 2091.07497595 0 28456.87129315 0 9606.65903775 0 7358.03595196 0 1662
0.03950000 0.03950240 51675.64716110 0 1616.03902426 0 24605.03093524 0 7762.00972297 0 1103.37931283 0 1683
0.04050000 0.04050350 50839.24374430 0 -136.29035343 0 21072.95931810 0 4750.12699812 0 457.80630704 0 1822
0.04150000 0.04152450 47944.05225072 0 3564.63532444 0 21925.86049888 0 2676.50200609 0 869.09556306 0 1887
0.04250000 0.04250150 45774.98381875 0 3864.87248422 0 20178.31547275 0 -2289.19208393 0 773.52036246 0 1920
0.04350000 0.04349210 41378.05291002 0 3628.57800027 0 19001.43806778 0 -317.20439033 0 975.26697851 0 2005
0.04450000 0.04448520 41507.37766390 0 575.31578311 0 19957.64403911 0 2803.00331714 0 -311.66047730 0 2151
0.04550000 0.04548030 40708.17725849 0 -873.55992443 0 17953.11035395 0 4245.46150521 0 -3680.51827599 0 2274
0.04650000 0.04648670 39724.95481459 0 -81.52320245 0 16188.07105461 0 1666.44024683 0 -7097.00589436 0 2311
0.04750000 0.04749250 39868.23069775 0 1356.91340653 0 15666.89672539 0 393.50156619 0 -6914.08001603 0 2568
0.04850000 0.04851840 39981.16841090 0 4.06389752 0 15603.78447393 0 -16.33212200 0 -4539.95212842 0 2493
0.04950000 0.04949480 38601.44601525 0 15.93185746 0 16713.34214400 0 220.99806722 0 -4867.67079840 0 2644
0.05050000 0.05050630 40277.13165330 0 -390.98371953 0 13545.99290638 0 -698.88292809 0 -5357.69867790 0 2829
0.05150000 0.05149060 38518.40357911 0 1246.26766461 0 18953.27345481 0 -41.76613789 0 -4591.63774067 0 2784
0.05250000 0.05249300 40036.19786525 0 1213.60430640 0 16069.26500930 0 -891.81597359 0 -6308.00310011 0 3055
0.05350000 0.05348950 37973.42375153 0 761.43824162 0 18664.50722354 0 655.08634727 0 -1840.48612065 0 3009
0.05450000 0.05448610 37472.51177674 0 1131.87947691 0 16235.01771184 0 1560.23450717 0 -2540.25704919 0 3336
0.05550000 0.05550870 38320.65185785 0 -1292.49462073 0 17297.73944793 0 2936.35839726 0 -3226.08792078 0 3349
0.05650000 0.05647670 38077.50360483 0 92.08287863 0 17142.72690047 0 1880.53471952 0 -5458.16895330 0 3324
0.05750000 0.05747970 36972.81775767 0 1177.23171937 0 16209.66208800 0 -240.41006709 0 -2453.40573332 0 3639
0.05850000 0.05849280 37258.15156825 0 113.37285552 0 14870.79657093 0 1824.27623712 0 -2550.75361312 0 3846
0.05950000 0.05951020 37099.59587685 0 -218.46139760 0 16204.90098833 0 309.83465094 0 -695.50586902 0 3787
0.06050000 0.06049470 36862.98029547 0 1517.38461012 0 15937.50434396 0 852.03311051 0 -1765.98044695 0 3930
0.06150000 0.06148310 35588.66643209 0 1962.30383831 0 16426.79037770 0 789.88082961 0 -1611.02326111 0 4083
0.06250000 0.06249100 33747.89243099 0 2037.31883896 0 15819.47336139 0 -693.43866597 0 -1067.12741414 0 4303
0.06350000 0.06350600 31863.82563985 0 1469.50787761 0 15181.37528209 0 1650.44073747 0 1660.91515675 0 4470
0.06450000 0.06451750 31544.05689909 0 190.38530356 0 14448.05520936 0 1202.78664505 0 -298.05037563 0 4479
0.06550000 0.06550280 31418.38601240 0 -296.04074868 0 12858.84442813 0 1834.08631691 0 -2168.48159876 0 4636
0.06650000 0.06648880 31627.87439797 0 -305.87297312 0 14292.15687591 0 357.67484478 0 -1240.53220036 0 4653
0.06750000 0.06749660 31496.22445587 0 470.07112125 0 14054.32333880 0 -100.55597520 0 -707.97330676 0 5220
0.06850000 0.06852730 31020.22521192 0 1037.11698495 0 14037.82557482 0 106.61840521 0 -2570.18554318 0 5029
0.06950000 0.06949320 30415.23338383 0 1021.79067294 0 15672.21144130 0 -367.73405188 0 1271.39076963 0 5040
0.07050000 0.07048030 29201.26369071 0 963.61889280 0 15440.79985260 0 481.06704702 0 2011.54246678 0 5475
0.07150000 0.07148790 29372.77400215 0 468.24197319 0 15070.43058741 0 2778.57776859 0 2028.21738795 0 5509
0.07250000 0.07249820 28660.60206982 0 282.22580900 0 13708.31318822 0 2165.00488876 0 2217.18875563 0 5916
0.07350000 0.07351270 27766.40111746 0 751.22180751 0 11703.89022630 0 3383.76889853 0 423.97371133 0 5721
0.07450000 0.07449140 27602.64143340 0 180.66158790 0 11378.58532313 0 1421.66436206 0 2172.94374566 0 6028
0.07550000 0.07549160 26596.94217012 0 445.32447528 0 9206.62701438 0 2406.55872701 0 596.05092580 0 6183
0.07650000 0.07648840 27187.42925270 0 -348.20468536 0 9834.51641020 0 477.03229186 0 2389.86166118 0 6330
0.07750000 0.07749960 26477.02889233 0 702.54676037 0 10040.30663927 0 715.73943539 0 1478.15536329 0 6583
0.07850000 0.07848650 26483.78301047 0 1193.06514386 0 10074.68620784 0 -368.06400716 0 4918.64778186 0 6549
0.07950000 0.07947320 25734.18662025 0 274.38549580 0 11263.32242177 0 753.61232243 0 4705.29515493 0 6828
0.08050000 0.08048110 25417.96102343 0 138.04863861 0 11179.94781588 0 1399.18754268 0 6523.28231156 0 7147
0.08150000 0.08149960 25700.08385981 0 63.37809799 0 10779.36217627 0 1665.66518409 0 5077.97853600 0 7386
0.08250000 0.08250610 24919.92785309 0 379.12304519 0 10021.84907380 0 1261.93500423 0 6714.10275748 0 7227
0.08350000 0.08350160 24721.95468533 0 430.88062755 0 9123.49599964 0 526.36171339 0 5273.71509415 0 7798
0.08450000 0.08449610 24480.46728103 0 441.09706166 0 8397.49473361 0 -453.06513756 0 2987.05857260 0 7371
0.08550000 0.08548940 23503.00244604 0 809.98152809 0 8805.31060133 0 -736.25091712 0 3786.55793078 0 8256
0.08650000 0.08650700 22583.99948610 0 1048.37089590 0 7694.98894084 0 -8.27170205 0 1738.27749025 0 8037
0.08750000 0.08749060 22582.11719088 0 198.08610547 0 8307.87533653 0 592.18225551 0 2243.33051453 0 8155
0.08850000 0.08849210 22236.21776354 0 55.70110157 0 8237.94253297 0 443.82749696 0 -61.01758906 0 8718
0.08950000 0.08949900 21812.03699974 0 738.91602570 0 8131.83644423 0 -222.27470627 0 347.12845539 0 8571
0.09050000 0.09049190 21043.28548758 0 1234.20990288 0 7487.36070584 0 242.93898608 0 -132.04633132 0 8932
0.09150000 0.09150830 20339.86069185 0 527.74796846 0 8134.16163245 0 -4.67666212 0 1370.26663026 0 9285
0.09250000 0.09250820 19627.46731302 0 161.15436604 0 7329.00431628 0 1095.00088464 0 -314.55810470 0 9204
0.09350000 0.09350330 19789.67687161 0 201.09334889 0 7885.85367606 0 632.59734833 0 -144.41633261 0 9349
0.09450000 0.09448040 19505.78246326 0 324.66603003 0 6944.30746278 0 762.80235203 0 73.78209728 0 9564
0.09550000 0.09549270 19034.54431898 0 190.67429124 0 6165.88981106 0 457.03899493 0 354.86136704 0 10155
0.09650000 0.09649430 18897.35821448 0 372.86607443 0 5850.98182089 0 988.75417738 0 863.87053298 0 9913
0.09750000 0.09749140 18712.89328300 0 185.45369008 0 5876.00527498 0 1016.91663555 0 392.71653837 0 10476
0.09850000 0.09850240 18083.54234031 0 460.05509621 0 5602.26418849 0 496.94254635 0 173.83882135 0 10575
0.09950000 0.09950330 17761.33768809 0 996.37968748 0 4959.54894974 0 222.09090568 0 736.19666273 0 10882
0.10050000 0.10051200 16995.46498038 0 462.63605513 0 5701.91511186 0 -437.11434642 0 1132.85384149 0 10875
0.10150000 0.10150300 16737.47981211 0 612.25084424 0 5887.96338579 0 -359.54385321 0 1969.87730849 0 11118
0.10250000 0.10250800 16421.47566178 0 384.13327217 0 5810.47925671 0 59.77449915 0 2179.09995826 0 11575
0.10350000 0.10349800 16382.61180167 0 -253.70903643 0 6458.60886229 0 1036.67187749 0 2834.03904361 0 11364
0.10450000 0.10450100 16567.63034939 0 -215.36003942 0 5916.87322589 0 1058.44892595 0 2276.53641666 0 12093
0.10550000 0.10551000 16825.28334792 0 -284.60192991 0 6153.69918143 0 1200.56110776 0 3037.02797451 0 12067
0.10650000 0.10649700 16721.09277138 0 150.25034056 0 5807.78868177 0 839.79819159 0 3332.51510694 0 12054
0.10750000 0.10749900 16664.29174506 0 262.21922529 0 5140.59253285 0 -65.55668862 0 3200.69907998 0 12807
0.10850000 0.10850100 16535.18843767 0 267.45864939 0 5406.99266799 0 -590.37857380 0 2721.21205370 0 12736
0.10950000 0.10950300 16251.40475257 0 338.80760329 0 5660.26102589 0 -601.72659950 0 2401.66475944 0 12933
0.11050000 0.11050200 16038.81611605 0 475.89737857 0 6058.97544261 0 -1021.01893190 0 1835.73609331 0 13428
0.11150000 0.11150900 15593.37648860 0 401.60761519 0 6125.54225942 0 -1071.35039882 0 656.86566987 0 13453
0.11250000 0.11250000 15249.35935648 0 532.44595588 0 6273.80068874 0 -66.38179826 0 284.43473780 0 13668
0.11350000 0.11349100 14981.07692612 0 223.14720547 0 6137.95433554 0 280.05895503 0 261.87930491 0 13791
0.11450000 0.11448600 14878.43647506 0 -25.30502331 0 5934.17926958 0 1214.64510493 0 -98.18018646 0 14205
0.11550000 0.11549300 14884.52625371 0 -180.10464997 0 5193.11964179 0 1200.08499779 0 294.25035375 0 14776
0.11650000 0.11649800 14799.60152235 0 46.86117888 0 4761.38755246 0 1010.10494132 0 -94.30719796 0 14553
0.11750000 0.11747300 14529.32607352 0 317.17338783 0 4591.48272812 0 223.68089152 0 5.59110329 0 14568
0.11850000 0.11849100 14558.00339480 0 224.86563028 0 4775.11723524 0 -179.76251513 0 731.30380239 0 16015
0.11950000 0.11950300 14107.47049793 0 380.47497605 0 4432.97132602 0 -202.37552411 0 1029.71624304 0 15270
0.12050000 0.12050700 14200.03513342 0 185.54891208 0 5130.93746561 0 -293.74324128 0 1148.15579439 0 15999
0.12150000 0.12150000 14199.48151718 0 148.00265862 0 5620.52245212 0 -25.35617745 0 1334.86840781 0 15670
0.12250000 0.12250700 13959.98713135 0 244.74931119 0 5714.51541750 0 118.71635947 0 1075.35082978 0 16887
0.12350000 0.12352200 13688.16155705 0 488.48771912 0 5869.73833913 0 146.74041359 0 1409.63981731 0 16407
0.12450000 0.12449800 13313.80625493 0 356.09593126 0 5522.69846234 0 243.29108601 0 814.15358008 0 16306
0.12550000 0.12549900 13043.97369910 0 112.60554341 0 5393.14118964 0 491.86477819 0 1076.93195777 0 17523
0.12650000 0.12650100 12861.83395584 0 154.23637749 0 4807.88024438 0 298.44012146 0 903.91581015 0 17154
0.12750000 0.12750600 12811.34415466 0 73.26003716 0 4421.23466171 0 232.52657182 0 568.53287693 0 18007
0.12850000 0.12850300 12761.51869298 0 61.28232834 0 3864.81712260 0 487.86988339 0 999.05254669 0 17496
0.12950000 0.12949900 12664.74657406 0 124.22594830 0 3918.06393265 0 -43.54479615 0 -122.60606718 0 18405
0.13050000 0.13049000 12592.55501625 0 153.62186346 0 3491.97872898 0 223.39744001 0 380.60895118 0 18100
0.13150000 0.13148800 12444.85020317 0 136.87940111 0 3926.12458512 0 -150.04218085 0 136.89822406 0 19059
0.13250000 0.13249300 12309.32494739 0 154.24191365 0 4195.97928560 0 44.12509670 0 157.39974069 0 18957
0.13350000 0.13349100 12219.19622336 0 184.27448749 0 4347.05008542 0 -209.74304904 0 -105.35682452 0 19468
0.13450000 0.13450700 12165.49544799 0 177.98429976 0 4196.68791439 0 42.93958288 0 298.74350316 0 19953
0.13550000 0.13551000 11906.40304723 0 -97.41674967 0 4320.04468519 0 254.91924153 0 243.46713597 0 19956
0.13650000 0.13649900 12148.99768401 0 -63.42670549 0 4094.02531867 0 585.28198268 0 422.42026416 0 19723
0.13750000 0.13749600 12020.44799287 0 112.02535359 0 4006.89719467 0 444.93694391 0 25.56677307 0 20946
0.13850000 0.13851100 11910.83197716 0 332.71339571 0 3835.29830463 0 260.69235169 0 -34.73820116 0 20955
0.13950000 0.13949800 11640.00291210 0 162.28595763 0 3328.47370838 0 165.99297198 0 681.39640550 0 20506
0.14050000 0.14048300 11533.04425435 0 250.42609212 0 3844.46618958 0 -123.45642173 0 499.46925087 0 21447
0.14150000 0.14148400 11391.42921992 0 203.82046249 0 3465.58230661 0 153.96732000 0 570.20147628 0 21771
0.14250000 0.14249400 11330.19926367 0 178.78482885 0 3908.89604770 0 2.45382648 0 470.97573018 0 22470
0.14350000 0.14350900 11151.04904811 0 166.35946594 0 3662.79148396 0 -173.46457677 0 492.08511745 0 22519
0.14450000 0.14449900 10963.31778081 0 259.88075028 0 3748.44698875 0 225.71930652 0 345.85956697 0 22218
0.14550000 0.14550500 10694.54816816 0 262.58239754 0 4034.85481484 0 -95.72179818 0 560.09908711 0 23559
0.14650000 0.14650700 10503.46198644 0 216.95556143 0 3701.06851086 0 323.93525659 0 599.15117675 0 23044
0.14750000 0.14750500 10418.50403811 0 2.52698133 0 3932.04827890 0 379.51832718 0 579.26085244 0 23649
0.14850000 0.14849900 10443.85966194 0 73.21807305 0 3601.91584210 0 6.60709981 0 288.67543821 0 23640
0.14950000 0.14949500 10350.44245745 0 117.11087237 0 3716.45904235 0 217.53907294 0 118.43401519 0 24457
0.15050000 0.15050000 10198.58552256 0 193.01940963 0 3443.96912857 0 113.74599286 0 303.64411413 0 24591
0.15150000 0.15149900 9955.12724444 0 266.38352665 0 3190.93328949 0 267.38557205 0 -43.83267660 0 25020
0.15250000 0.15250500 9863.55911819 0 83.49629073 0 2930.15789536 0 522.04572118 0 -167.91512757 0 25297
0.15350000 0.15350100 9746.14818582 0 34.51631177 0 2575.79921186 0 461.48564058 0 -88.86503959 0 25452
0.15450000 0.15450400 9717.48193686 0 13.10830391 0 2308.92296676 0 382.30855304 0 88.20723277 0 26061
0.15550000 0.15549900 9762.44664795 0 -34.00344169 0 2126.17424563 0 268.95230601 0 233.91947028 0 26128
0.15650000 0.15649500 9640.09745870 0 166.06162040 0 2403.43633141 0 69.87057709 0 172.77144924 0 26331
0.15750000 0.15749700 9577.43917256 0 226.50987051 0 2481.59587230 0 -435.58747283 0 437.45980296 0 27345
0.15850000 0.15849900 9457.26015897 0 264.61970531 0 2744.18712770 0 -375.97186154 0 479.27222317 0 26980
0.15950000 0.15949700 9202.71848372 0 289.25784249 0 3210.63095534 0 -611.96628549 0 657.56654803 0 27777
0.16050000 0.16050000 9140.55845219 0 122.04137862 0 3041.33510886 0 216.02659337 0 541.79764142 0 28224
0.16150000 0.16150500 8941.83236634 0 139.24334245 0 3327.61006705 0 80.96515728 0 613.56734366 0 28075
0.16250000 0.16249700 8978.32674894 0 56.07003144 0 2765.04738766 0 618.54656813 0 479.39069705 0 28590
0.16350000 0.16349900 8788.41423365 0 6.70830086 0 2600.12510949 0 374.57564138 0 308.57794207 0 29163
0.16450000 0.16449100 8773.04584681 0 122.72343382 0 2469.08414526 0 265.46673815 0 381.11163472 0 28996
0.16550000 0.16550500 8750.79047392 0 65.99515268 0 2535.21914140 0 -195.33795445 0 291.72143476 0 30777
0.16650000 0.16650700 8553.35985008 0 180.52207661 0 2685.31557664 0 -209.18278940 0 430.06238275 0 29211
0.16750000 0.16749900 8513.43304678 0 180.04264495 0 2830.48482734 0 -409.44460670 0 720.30012598 0 30922
0.16850000 0.16850800 8480.64789300 0 -11.95368187 0 2932.71560239 0 204.85351040 0 668.41189019 0 30867
0.16950000 0.16949900 8580.48704589 0 -67.03539760 0 2959.98673842 0 246.29168603 0 380.31221287 0 30852
0.17050000 0.17049200 8510.64282093 0 156.40544592 0 2638.21390686 0 470.22945549 0 316.44704332 0 31257
0.17150000 0.17149500 8331.08292935 0 214.60047794 0 2474.67566929 0 326.66347743 0 451.64455828 0 32608
0.17250000 0.17250900 8111.19763077 0 200.31164276 0 2129.52916005 0 282.65320074 0 348.63096987 0 32361
0.17350000 0.17350400 8001.24944532 0 128.29170598 0 2130.87998367 0 112.66533396 0 442.36041392 0 32508
0.17450000 0.17449800 7841.66402771 0 -22.38270462 0 1784.88090542 0 166.34728638 0 226.91401037 0 32791
0.17550000 0.17549800 7942.49968983 0 -32.47734316 0 1918.28027483 0 -26.62351575 0 182.41544415 0 33633
0.17650000 0.17650100 7965.76264428 0 -14.07691088 0 1773.26603668 0 -8.58130640 0 -124.86925037 0 33984
0.17750000 0.17750300 7940.50667137 0 144.31778892 0 1913.44166888 0 -106.66125510 0 -209.09863974 0 34069
0.17850000 0.17849800 7869.95381762 0 210.83478027 0 1764.90643144 0 -171.48373786 0 -240.59165322 0 34536
