### header ###
fiducial parameters:
Omega_m = 0.31
Omega_nu = 0
Omega_de = 0.69
Omega_k = 0
H_0 = 100
w_de = -1
zeff = 0
beta = 0
fgrowth = 0
b_1 = 2
gamma = 0.55
Lx = 3500 Ly = 3500 Lz = 3500
nx = 700 ny = 700 nz = 700
xoffset = -685.467585 yoffset = -31.7331281 zoffset = 572.489161
bins = 400 dk = 0.001
kx_ny = 0.628318531 ky_ny = 0.628318531 kz_ny = 0.628318531
############################
A(data) = 8.06621902 (not used)
A(ran) = 8.06865377 (used)
Ngal = 479932
weighted Ngal = 0
Nran = 23820508
weighted Nran = 0
SN(data) = 3482.90451
SN(ran) = 70.2809006
SN(data+ran) = 3553.18541
############################
13 columns: k_central k_mean P_0(k) sigma^{lin}_{P_0(k)} P^img_1(k) sigma^{lin}_{P_1(k)} P_2(k) sigma^{lin}_{P_2(k)} P^img_3(k) sigma^{lin}_{P_3(k)} P_4(k) sigma^{lin}_{P_4(k)} N_modes
### header ###
0.00050000 0 0 0 0 0 0 0 0 0 0 0 0
0.00150000 0.00179520 30099.22923350 0 -35590.88089706 0 -3693.72755950 0 41185.50518142 0 -93511.42997913 0 3
0.00250000 0.00253879 64002.68782820 0 -47008.21935705 0 23009.17675913 0 -17909.37467091 0 36463.15864627 0 6
0.00350000 0.00331552 77111.98824373 0 -12688.10917943 0 20211.08955421 0 -11500.49161938 0 19770.52174968 0 7
0.00450000 0.00420575 86212.33201218 0 27072.27707458 0 24605.47382824 0 6391.10089787 0 27240.68713507 0 24
0.00550000 0.00557378 59439.11843095 0 11068.43843263 0 19337.92601901 0 26798.12631207 0 -170.52376730 0 45
0.00650000 0.00659388 52648.46161967 0 9316.44233193 0 25962.38723476 0 40565.45499158 0 14377.52450026 0 40
0.00750000 0.00754703 59810.37348212 0 -4466.83049531 0 7889.39682000 0 39775.88750876 0 -26923.79719876 0 57
0.00850000 0.00846663 58495.42418665 0 -10154.51766978 0 966.86419121 0 10028.37067312 0 -5593.83814930 0 75
0.00950000 0.00948925 73215.63714005 0 -8667.70374848 0 -124.83492617 0 -19434.03379844 0 -18354.81429837 0 112
0.01050000 0.01054430 70563.04028325 0 2078.25322381 0 13362.08159114 0 -25072.72593558 0 6183.68303704 0 105
0.01150000 0.01145670 74568.89667939 0 8371.40833633 0 897.84596168 0 -24440.38546519 0 15414.22627303 0 144
0.01250000 0.01249090 71683.11666190 0 1958.10742720 0 17031.45003604 0 -2518.25633978 0 12240.78725676 0 169
0.01350000 0.01339930 75684.87629786 0 -5885.88178872 0 22605.92268924 0 7508.25418277 0 -5220.64544129 0 180
0.01450000 0.01448870 80630.55162460 0 -2556.07940136 0 28433.17651804 0 12651.45978428 0 -4906.19141644 0 267
0.01550000 0.01550050 79688.29678253 0 141.92395229 0 10367.20595722 0 5486.00477789 0 11434.83273321 0 238
0.01650000 0.01653350 77261.13245904 0 9528.88702823 0 28635.57861573 0 4192.05968261 0 -3819.99635173 0 315
0.01750000 0.01747870 72736.75909164 0 3941.67012916 0 11313.03716020 0 11105.20962336 0 12766.61196240 0 297
0.01850000 0.01844180 71243.76681310 0 -2151.28627831 0 24672.79356313 0 4338.60190159 0 -4140.15262386 0 388
0.01950000 0.01947590 65285.74882818 0 4132.87810646 0 13322.55339154 0 2147.55490485 0 1178.36109650 0 399
0.02050000 0.02045430 71996.13128452 0 -5505.39241865 0 17482.42582591 0 -2532.60607274 0 -12977.98264318 0 462
0.02150000 0.02154770 72384.88060891 0 -2438.24772064 0 12034.17767564 0 -5485.78333140 0 -8202.43358728 0 571
0.02250000 0.02255340 77655.97156207 0 -2334.67719429 0 14754.98005333 0 -1109.36944055 0 -6696.57526729 0 510
0.02350000 0.02348930 79301.31903012 0 1189.86524199 0 18734.48431640 0 2923.28198164 0 -4833.43517006 0 555
0.02450000 0.02439640 80654.13567647 0 -1176.15770386 0 12070.82707079 0 9015.98372565 0 -12901.80504843 0 592
0.02550000 0.02547300 76680.94263854 0 3047.02628382 0 9273.17168654 0 7364.36932175 0 -9182.65543115 0 837
0.02650000 0.02652900 73168.46903632 0 5949.12690808 0 9491.67294451 0 -1808.53139123 0 -13000.45946257 0 723
0.02750000 0.02749970 62875.96805465 0 7216.96346144 0 10107.08383026 0 -1165.55041668 0 -4658.58101652 0 826
0.02850000 0.02848090 59905.92764530 0 6038.85702841 0 12789.08878178 0 -1630.98666276 0 -1871.00144785 0 831
0.02950000 0.02946900 55075.29377342 0 3439.17481192 0 11977.48737257 0 -7628.90930632 0 -2733.95629957 0 996
0.03050000 0.03053250 54182.53222329 0 848.72137816 0 19292.41876401 0 -5092.09575015 0 -7093.20808695 0 1041
0.03150000 0.03150510 55097.99203930 0 -800.89447111 0 19536.67424951 0 -2864.90868520 0 -1117.21971885 0 1036
0.03250000 0.03246190 59631.66615954 0 -1556.99031600 0 26338.84627860 0 -10399.75859219 0 -17397.94398754 0 1059
0.03350000 0.03345080 58454.01369183 0 -272.95605866 0 23955.41763813 0 32.00776586 0 -6904.39173181 0 1302
0.03450000 0.03451200 61419.07155502 0 976.97543823 0 31805.47448806 0 -3039.44174132 0 -17371.14896148 0 1339
0.03550000 0.03553350 56968.10770117 0 819.92890470 0 23961.83958653 0 3840.70159914 0 -8044.21006562 0 1365
0.03650000 0.03647120 61491.37383608 0 -263.08397385 0 29985.18428787 0 6423.43208634 0 -16669.49573772 0 1308
0.03750000 0.03744890 56197.58461704 0 3042.15446090 0 24822.49139468 0 4221.73351313 0 -11835.87233814 0 1579
0.03850000 0.03847530 55014.28526367 0 5991.67785236 0 21589.81544063 0 7117.21288715 0 -11829.56111299 0 1662
0.03950000 0.03950240 49316.90980499 0 4245.46150521 0 20822.28188420 0 697.39591486 0 -5240.99637431 0 1683
0.04050000 0.04050350 46172.03738675 0 2379.32080795 0 19627.02442003 0 1557.13425622 0 -3900.93504616 0 1822
0.04150000 0.04152450 44536.10139479 0 543.88698911 0 22914.06548894 0 4223.47186812 0 -3024.68233233 0 1887
0.04250000 0.04250150 43282.27133233 0 2709.34252150 0 21998.38422644 0 1303.95447692 0 -3264.14350119 0 1920
0.04350000 0.04349210 40761.32441762 0 777.49421984 0 19182.47057856 0 40.37589679 0 -1764.18673033 0 2005
0.04450000 0.04448520 40564.90137534 0 -335.20466879 0 20928.24403272 0 -988.38768342 0 -3157.40628993 0 2151
0.04550000 0.04548030 41301.32169903 0 -373.45955104 0 23016.04160052 0 -1358.35280875 0 -4091.63369651 0 2274
0.04650000 0.04648670 42078.59890129 0 403.76339684 0 21611.62792052 0 286.78871406 0 -4254.69582411 0 2311
0.04750000 0.04749250 42255.97754489 0 295.67979089 0 21180.13942234 0 2302.82211578 0 156.48516666 0 2568
0.04850000 0.04851840 42294.06634227 0 -569.50613428 0 20567.39696688 0 5237.28714549 0 987.38342356 0 2493
0.04950000 0.04949480 43075.44030472 0 -153.94849705 0 20114.42815855 0 2508.72306811 0 -352.22947543 0 2644
0.05050000 0.05050630 41986.47715880 0 1532.03329586 0 18543.15454353 0 3569.66215991 0 3934.12987596 0 2829
0.05150000 0.05149060 40595.46099184 0 2393.74804719 0 19875.93028195 0 4202.00263030 0 6944.27424581 0 2784
0.05250000 0.05249300 38869.50699911 0 211.12930411 0 14972.88340576 0 3694.76835803 0 6058.23359685 0 3055
0.05350000 0.05348950 38651.27147693 0 1035.04646021 0 17908.15671518 0 2422.62467032 0 6261.38861262 0 3009
0.05450000 0.05448610 37279.41043190 0 1870.44783161 0 16621.77401775 0 1405.70914200 0 7537.33010775 0 3336
0.05550000 0.05550870 36670.87545987 0 827.31968152 0 15776.62346434 0 2680.27766885 0 10452.96111294 0 3349
0.05650000 0.05647670 36270.27874793 0 -913.84214935 0 14919.62552338 0 1234.05489034 0 6438.45723112 0 3324
0.05750000 0.05747970 36472.01650612 0 -756.51437877 0 14262.26159890 0 1418.43124322 0 4531.33785971 0 3639
0.05850000 0.05849280 37335.65784198 0 895.94816521 0 15266.18929020 0 -1287.64494246 0 1723.73952777 0 3846
0.05950000 0.05951020 35590.99162030 0 1732.53095367 0 14364.68060347 0 -811.96347423 0 4499.40527493 0 3787
0.06050000 0.06049470 34296.19395601 0 1798.25627380 0 13529.27369590 0 -121.10023101 0 2489.72295872 0 3930
0.06150000 0.06148310 32751.49392056 0 1438.27284929 0 11813.39551876 0 2808.93808324 0 2419.23653893 0 4083
0.06250000 0.06249100 31931.03465150 0 1023.50577605 0 11217.04010403 0 1499.93462621 0 -823.24949492 0 4303
0.06350000 0.06350600 31969.34489537 0 -422.43908711 0 9795.48646521 0 407.03416159 0 -2409.59254401 0 4470
0.06450000 0.06451750 31023.32546287 0 -114.60963420 0 10081.11922856 0 -1189.03481762 0 -904.88906750 0 4479
0.06550000 0.06550280 31943.65710179 0 826.59444424 0 10406.36877010 0 -1756.40288598 0 -4432.83845812 0 4636
0.06650000 0.06648880 30815.94081902 0 108.83331306 0 11225.23362439 0 -671.18440032 0 -597.49032803 0 4653
0.06750000 0.06749660 31065.84319017 0 436.41236103 0 11571.24377497 0 459.01097598 0 -2992.07433574 0 5220
0.06850000 0.06852730 31197.93602526 0 446.57675521 0 12413.62624718 0 2145.56188638 0 -2183.88320258 0 5029
0.06950000 0.06949320 30316.80041619 0 978.00294998 0 10988.78412789 0 2469.58239988 0 38.13651910 0 5040
0.07050000 0.07048030 29593.44543579 0 830.96358362 0 10610.78603091 0 2406.62516096 0 1335.23379453 0 5475
0.07150000 0.07148790 28922.13038203 0 181.38571795 0 10664.49787860 0 3447.21331974 0 4140.30763641 0 5509
0.07250000 0.07249820 28398.52014136 0 486.86119460 0 9255.30095428 0 2146.01585170 0 3272.82420384 0 5916
0.07350000 0.07351270 27912.77725157 0 430.33033301 0 9380.59538193 0 2177.15122909 0 4267.90510762 0 5721
0.07450000 0.07449140 27236.36892840 0 1199.50923690 0 8836.82243776 0 -973.94715740 0 3677.91627966 0 6028
0.07550000 0.07549160 27042.16035108 0 563.10079437 0 10041.55781198 0 -1339.85095398 0 2976.31841753 0 6183
0.07650000 0.07648840 25867.94030406 0 484.97336322 0 9828.50413782 0 -2076.26020534 0 3141.01924920 0 6330
0.07750000 0.07749960 26819.49589897 0 117.05440352 0 10562.04565705 0 -1115.06061551 0 2401.37687899 0 6583
0.07850000 0.07848650 26382.47123838 0 -304.06596970 0 10539.26988490 0 1388.00449462 0 1569.18094562 0 6549
0.07950000 0.07947320 26443.14757839 0 214.24062738 0 9755.60395121 0 1104.98590716 0 177.23359614 0 6828
0.08050000 0.08048110 26087.83667496 0 184.27670196 0 9209.84906090 0 1192.93227596 0 790.09452548 0 7147
0.08150000 0.08149960 25896.94979508 0 462.98261890 0 8755.42977802 0 913.28742588 0 264.84115180 0 7386
0.08250000 0.08250610 25332.59339908 0 505.37744339 0 8594.85892350 0 1010.52015350 0 201.83408742 0 7227
0.08350000 0.08350160 24368.63680037 0 1263.15295996 0 9647.63771191 0 -1052.31817969 0 855.80545158 0 7798
0.08450000 0.08449610 23285.87415635 0 1802.14265981 0 9264.04809089 0 -499.67962504 0 503.74206102 0 7371
0.08550000 0.08548940 22093.16332689 0 1036.91325417 0 9831.51581017 0 -385.06777638 0 1067.43965370 0 8256
0.08650000 0.08650700 21543.20095314 0 320.19945420 0 9213.04896277 0 -97.99162477 0 641.67111852 0 8037
0.08750000 0.08749060 21656.69228253 0 -439.85585405 0 8672.56449908 0 1441.31773862 0 438.92134983 0 8155
0.08850000 0.08849210 21840.60359777 0 -421.45365020 0 8409.02102374 0 962.50501693 0 -329.38948380 0 8718
0.08950000 0.08949900 21974.46800483 0 780.25012148 0 7810.89403704 0 152.69400264 0 -1207.31522590 0 8571
0.09050000 0.09049190 20950.61012885 0 470.11873224 0 7926.21230003 0 266.23737196 0 -602.50719840 0 8932
0.09150000 0.09150830 20910.52831301 0 755.96740592 0 8226.40517051 0 -39.92923921 0 -159.24992617 0 9285
0.09250000 0.09250820 19884.67741856 0 664.23098034 0 7675.78952960 0 445.07977690 0 424.02575125 0 9204
0.09350000 0.09350330 20165.47157596 0 345.20408534 0 7855.61515698 0 1657.13949398 0 -195.19401423 0 9349
0.09450000 0.09448040 18969.43904905 0 58.73990112 0 7166.36293702 0 229.93121888 0 1898.88156175 0 9564
0.09550000 0.09549270 19379.55796033 0 753.87362930 0 6948.78068201 0 1093.35110824 0 -193.45565923 0 10155
0.09650000 0.09649430 18552.67674288 0 89.03743569 0 6852.72826421 0 587.52080676 0 1236.77868224 0 9913
0.09750000 0.09749140 18157.72691659 0 147.46122193 0 5374.72791347 0 889.30255585 0 -285.90846423 0 10476
0.09850000 0.09850240 18003.04653888 0 302.25010843 0 5586.25360680 0 424.55279392 0 267.27484880 0 10575
0.09950000 0.09950330 17826.22151152 0 381.86344558 0 4893.31430268 0 14.76018405 0 -688.97319738 0 10882
0.10050000 0.10051200 17360.74097615 0 787.83909291 0 4849.19108828 0 -32.39651519 0 -40.04239837 0 10875
0.10150000 0.10150300 16580.91713917 0 732.91482565 0 5156.83563336 0 -288.92456552 0 -515.62598725 0 11118
0.10250000 0.10250800 16209.32991826 0 630.62426005 0 5388.78976599 0 -80.22917985 0 -1123.36485913 0 11575
0.10350000 0.10349800 15692.03090273 0 421.64077249 0 5771.25000987 0 108.94392559 0 -39.31295361 0 11364
0.10450000 0.10450100 15489.62880505 0 -161.06357297 0 5787.48203806 0 115.72351007 0 -546.54545430 0 12093
0.10550000 0.10551000 15847.15417344 0 -124.47064668 0 5986.00882206 0 91.08570506 0 -725.17527060 0 12067
0.10650000 0.10649700 15823.90229132 0 280.83291054 0 6231.17223819 0 -171.17371277 0 -1349.74961237 0 12054
0.10750000 0.10749900 15757.46834241 0 169.33570685 0 5998.34339190 0 139.54783139 0 -637.23443796 0 12807
0.10850000 0.10850100 15430.28114402 0 55.40392037 0 5389.94128777 0 -116.25276720 0 -276.30100799 0 12736
0.10950000 0.10950300 15668.00395787 0 145.90113137 0 5668.78671600 0 331.70359968 0 -995.38207101 0 12933
0.11050000 0.11050200 15265.63567396 0 169.40214080 0 5163.47902825 0 654.39543420 0 -944.85683840 0 13428
0.11150000 0.11150900 15233.74737849 0 64.01154569 0 5259.27678258 0 866.02631462 0 -812.06312515 0 13453
0.11250000 0.11250000 15060.02260208 0 -79.34737990 0 4435.87227512 0 381.86344558 0 -763.44233241 0 13668
0.11350000 0.11349100 14925.38313229 0 101.91908911 0 3939.87641254 0 405.70105368 0 -1260.73919315 0 13791
0.11450000 0.11448600 14938.33775232 0 310.21332444 0 4325.97945129 0 -218.50679413 0 -749.14574660 0 14205
0.11550000 0.11549300 14702.38651044 0 451.56040861 0 4040.35776027 0 162.49190288 0 -837.37778138 0 14776
0.11650000 0.11649800 14247.75685339 0 112.09510923 0 3830.23825219 0 261.69107539 0 -687.85599980 0 14553
0.11750000 0.11747300 14068.49591457 0 245.14459318 0 3757.31592093 0 59.33027748 0 -1619.46037262 0 14568
0.11850000 0.11849100 13949.80059252 0 198.41716798 0 3839.94868106 0 -109.65930849 0 -1366.83420956 0 16015
0.11950000 0.11950300 13716.61743184 0 320.68110033 0 3891.39070216 0 316.54890871 0 -1037.77910997 0 15270
0.12050000 0.12050700 13603.79044193 0 110.70265366 0 3692.68676097 0 -33.07203772 0 -398.64798277 0 15999
0.12150000 0.12150000 13502.36794659 0 109.58457030 0 4353.31702127 0 742.83784315 0 -160.18996655 0 15670
0.12250000 0.12250700 13441.24871360 0 155.32257256 0 4105.92806785 0 235.05327634 0 195.74320154 0 16887
0.12350000 0.12352200 13249.91894073 0 89.85844857 0 4188.93728701 0 267.29810068 0 966.51541298 0 16407
0.12450000 0.12449800 13530.04875864 0 232.09032222 0 4549.16430266 0 16.95903703 0 792.16394299 0 16306
0.12550000 0.12549900 13398.73098629 0 77.38813202 0 4824.78768437 0 -692.10002190 0 1250.88482406 0 17523
0.12650000 0.12650100 13148.82861514 0 359.38551896 0 5145.74116389 0 -819.70635097 0 1120.37533142 0 17154
0.12750000 0.12750600 13157.35430525 0 95.30149273 0 5050.79597857 0 -247.17857925 0 1106.59803765 0 18007
0.12850000 0.12850300 12970.67490880 0 30.61719259 0 5134.54704350 0 325.45770125 0 257.97077425 0 17496
0.12950000 0.12949900 13003.67043676 0 -1.42069000 0 4962.33917560 0 727.35651859 0 -172.78030710 0 18405
0.13050000 0.13049000 12957.60956552 0 -3.07486211 0 4792.65579775 0 644.08599256 0 -107.59365558 0 18100
0.13150000 0.13148800 12625.21837446 0 231.64632200 0 4319.85645567 0 524.82376747 0 -567.17873160 0 19059
0.13250000 0.13249300 12574.83929654 0 453.41059409 0 4086.14182340 0 126.29758028 0 294.45519176 0 18957
0.13350000 0.13349100 12223.51443004 0 228.53942765 0 4522.02603453 0 111.14067483 0 134.79005341 0 19468
0.13450000 0.13450700 11895.33072242 0 342.13040797 0 4631.13272330 0 55.33582558 0 443.99026014 0 19953
0.13550000 0.13551000 12076.91684944 0 6.05588626 0 4518.61575849 0 -205.38166029 0 779.73747284 0 19956
0.13650000 0.13649900 11998.08189673 0 -81.22159232 0 4768.44062337 0 134.23975887 0 948.30365312 0 19723
0.13750000 0.13749600 12042.70336575 0 -25.04427006 0 4490.63599367 0 367.62554309 0 1045.48101912 0 20946
0.13850000 0.13851100 12083.67096758 0 136.36453800 0 4520.09945002 0 71.86902100 0 518.16265686 0 20955
0.13950000 0.13949800 11884.03695110 0 487.26201276 0 4232.20793241 0 88.40653462 0 183.35880623 0 20506
0.14050000 0.14048300 11319.12693885 0 574.93932407 0 4090.64825960 0 -205.89873786 0 683.14029666 0 21447
0.14150000 0.14148400 10960.91508632 0 135.68137556 0 3890.42740990 0 463.59159676 0 1129.37713150 0 21771
0.14250000 0.14249400 10913.35945123 0 -259.92171789 0 3539.32398990 0 987.03575256 0 181.65477544 0 22470
0.14350000 0.14350900 11044.59971730 0 38.75479771 0 3299.86282105 0 873.81348067 0 200.25185221 0 22519
0.14450000 0.14449900 10853.18136584 0 329.86337930 0 2979.39652383 0 426.86137364 0 -94.43286885 0 22218
0.14550000 0.14550500 10659.70356195 0 384.53409032 0 2881.76076357 0 -218.59980166 0 457.76091051 0 23559
0.14650000 0.14650700 10270.46705528 0 269.41623642 0 2997.82087232 0 -423.05692283 0 851.38759398 0 23044
0.14750000 0.14750500 10150.81951329 0 125.75835806 0 3096.06561044 0 -1.15099031 0 721.40292954 0 23649
0.14850000 0.14849900 10192.87220295 0 75.70259202 0 3311.21195399 0 -160.82773246 0 594.29706955 0 23640
0.14950000 0.14949500 10077.83074809 0 105.13737104 0 3236.20802567 0 -236.98207533 0 -30.17042428 0 24457
0.15050000 0.15050000 9908.61240788 0 212.97948958 0 3394.84122335 0 -225.21219404 0 306.87612574 0 24591
0.15150000 0.15149900 9951.00833961 0 63.97478557 0 3280.79627771 0 255.86481807 0 148.18203028 0 25020
0.15250000 0.15250500 9756.76654532 0 -89.68538814 0 3252.59506640 0 358.17309940 0 282.95436797 0 25297
0.15350000 0.15350100 9938.70698674 0 112.80041632 0 3118.44277890 0 355.43934240 0 -381.85569495 0 25452
0.15450000 0.15450400 9732.03097167 0 183.39423767 0 3075.60395417 0 257.30643476 0 114.76575398 0 26061
0.15550000 0.15549900 9498.34955638 0 206.41138650 0 2787.56849634 0 66.58718989 0 -129.34136237 0 26128
0.15650000 0.15649500 9378.18161512 0 32.05581975 0 2633.36422859 0 285.43346150 0 67.20502561 0 26331
0.15750000 0.15749700 9498.68172612 0 -32.01939180 0 2603.75683203 0 14.12463260 0 -221.55611239 0 27345
0.15850000 0.15849900 9344.70997719 0 5.71665238 0 2536.62532665 0 96.65419866 0 -397.49867545 0 26980
0.15950000 0.15949700 9460.85866454 0 184.46382425 0 2568.28110331 0 -107.54825904 0 -242.51602327 0 27777
0.16050000 0.16050000 9223.31300788 0 180.67598193 0 2389.33018959 0 85.91182912 0 4.27150361 0 28224
0.16150000 0.16150500 9108.55943346 0 152.54009733 0 2485.82550038 0 288.61011149 0 -111.32558266 0 28075
0.16250000 0.16249700 9132.40922112 0 3.40498347 0 2391.87682430 0 356.04721303 0 -1.08629693 0 28590
0.16350000 0.16349900 8924.96921564 0 217.64315280 0 2482.62559851 0 314.92570589 0 95.50511279 0 29163
0.16450000 0.16449100 8833.82183774 0 114.24867641 0 2321.86651447 0 217.79595088 0 234.90158549 0 28996
0.16550000 0.16550500 8801.00346697 0 72.19266505 0 2528.85255463 0 3.60063145 0 608.57926133 0 30777
0.16650000 0.16650700 8714.48432084 0 50.99569569 0 2309.10012395 0 101.09497597 0 909.69667094 0 29211
0.16750000 0.16749900 8696.72431183 0 90.72087196 0 2322.73015581 0 422.05155574 0 771.45094495 0 30922
0.16850000 0.16850800 8634.07709801 0 5.46333973 0 1994.43572493 0 300.94800304 0 1106.06988776 0 30867
0.16950000 0.16949900 8637.78632682 0 -51.41954429 0 1932.12068085 0 412.08978510 0 703.72042680 0 30852
0.17050000 0.17049200 8626.39290458 0 89.29730315 0 1924.23718558 0 3.03708334 0 777.70791570 0 31257
0.17150000 0.17149500 8553.10518661 0 241.34900023 0 1941.42143370 0 -220.42230633 0 662.70632121 0 32608
0.17250000 0.17250900 8305.28441252 0 291.67714547 0 1977.59471888 0 -526.04615213 0 885.09617966 0 32361
0.17350000 0.17350400 8276.89497168 0 144.00665659 0 2076.86918321 0 -121.89633116 0 1003.02751130 0 32508
0.17450000 0.17449800 8091.64390514 0 81.98060019 0 2329.84966066 0 -55.62459181 0 817.95138749 0 32791
0.17550000 0.17549800 8100.26924618 0 126.64635851 0 2152.81425914 0 107.00305777 0 500.71156572 0 33633
0.17650000 0.17650100 8106.00471043 0 -70.22599872 0 2294.67288472 0 235.74751111 0 179.50674442 0 33984
0.17750000 0.17750300 7989.30240684 0 31.27776749 0 2031.67195330 0 144.08969903 0 232.24644200 0 34069
0.17850000 0.17849800 8007.54959814 0 84.92993535 0 2021.57399306 0 161.13554309 0 197.23907262 0 34536
