### header ###
fiducial parameters:
Omega_m = 0.31
Omega_nu = 0
Omega_de = 0.69
Omega_k = 0
H_0 = 100
w_de = -1
zeff = 0
beta = 0
fgrowth = 0
b_1 = 2
gamma = 0.55
Lx = 3500 Ly = 3500 Lz = 3500
nx = 700 ny = 700 nz = 700
xoffset = -685.467585 yoffset = -31.7331281 zoffset = 572.489161
bins = 400 dk = 0.001
kx_ny = 0.628318531 ky_ny = 0.628318531 kz_ny = 0.628318531
############################
A(data) = 7.96789955 (not used)
A(ran) = 7.96264667 (used)
Ngal = 473382
weighted Ngal = 0
Nran = 23820508
weighted Nran = 0
SN(data) = 3490.38328
SN(ran) = 69.3575403
SN(data+ran) = 3559.74082
############################
13 columns: k_central k_mean P_0(k) sigma^{lin}_{P_0(k)} P^img_1(k) sigma^{lin}_{P_1(k)} P_2(k) sigma^{lin}_{P_2(k)} P^img_3(k) sigma^{lin}_{P_3(k)} P_4(k) sigma^{lin}_{P_4(k)} N_modes
### header ###
0.00050000 0 0 0 0 0 0 0 0 0 0 0 0
0.00150000 0.00179520 13844.94567648 0 -22066.81119382 0 -227.83079886 0 -7855.61515698 0 -61714.48118118 0 3
0.00250000 0.00253879 26756.38364751 0 -25809.92132201 0 3228.52383224 0 -32316.57300169 0 17778.16762181 0 6
0.00350000 0.00331552 36916.23817785 0 -10287.60701410 0 -1921.24765788 0 -18098.93287181 0 16841.67038865 0 7
0.00450000 0.00420575 49425.97220445 0 182.30029198 0 18929.13578671 0 -50538.29795573 0 12774.36258977 0 24
0.00550000 0.00557378 52392.35874662 0 -2051.77929517 0 34470.02945567 0 -33620.00707934 0 13236.96432069 0 45
0.00650000 0.00659388 56298.34277289 0 176.00456808 0 46223.74514365 0 -17916.12878905 0 36935.06113004 0 40
0.00750000 0.00754703 76438.34800177 0 -19655.70174131 0 53583.07655761 0 13888.57063627 0 -18361.67913975 0 57
0.00850000 0.00846663 81809.53277129 0 -10667.24381516 0 58457.33538928 0 11802.65536368 0 -17707.63691272 0 75
0.00950000 0.00948925 85641.99656077 0 11556.62830621 0 27157.31252919 0 30324.21887382 0 -15269.73243415 0 112
0.01050000 0.01054430 71665.40094219 0 11193.23460567 0 30865.76628070 0 17329.73846666 0 -4719.01376538 0 105
0.01150000 0.01145670 73358.69157671 0 11419.77437146 0 24288.80533842 0 -6782.85082228 0 2445.73261222 0 144
0.01250000 0.01249090 60778.53756426 0 2887.58480643 0 14624.88023671 0 9499.46786118 0 699.54616034 0 169
0.01350000 0.01339930 59557.70302975 0 1038.79665663 0 13083.50189871 0 5513.23162462 0 14196.38126623 0 180
0.01450000 0.01448870 65637.29514118 0 -2467.45651351 0 18796.04644239 0 4819.91586145 0 5843.80695441 0 267
0.01550000 0.01550050 60952.26234066 0 2459.25192082 0 21318.98637557 0 8839.46872339 0 26285.47767297 0 238
0.01650000 0.01653350 67843.78803104 0 -4930.15192735 0 16966.89838235 0 5684.78622536 0 4221.71136848 0 315
0.01750000 0.01747870 69890.83944351 0 -1655.52293456 0 25612.39104724 0 2960.75072883 0 23433.68969268 0 297
0.01850000 0.01844180 80280.11254409 0 -4725.74573887 0 29252.97144762 0 -8513.94237373 0 4617.60234237 0 388
0.01950000 0.01947590 81428.09118129 0 421.79135611 0 22724.28584155 0 -2273.83476941 0 6846.93743833 0 399
0.02050000 0.02045430 78645.72667761 0 1696.11407734 0 30695.25247849 0 -10395.96078477 0 -7385.18529241 0 462
0.02150000 0.02154770 84130.51349978 0 1388.98993152 0 33396.45684125 0 -4265.04844782 0 -25107.71448201 0 571
0.02250000 0.02255340 75193.59724565 0 8077.69277587 0 38752.69397227 0 -7144.81619293 0 -27441.20693754 0 510
0.02350000 0.02348930 68602.35300436 0 10949.57702571 0 26121.05364941 0 4925.25795978 0 -21247.12698749 0 555
0.02450000 0.02439640 66903.74765393 0 -161.38799209 0 25087.56285084 0 10487.55105567 0 -20657.30424440 0 592
0.02550000 0.02547300 63786.11315475 0 -1476.72703339 0 19343.35145818 0 10720.22488941 0 -24698.70280321 0 837
0.02650000 0.02652900 63065.63697880 0 437.38340392 0 20027.06751573 0 9452.93087997 0 -20184.84814439 0 723
0.02750000 0.02749970 63637.63327893 0 2353.56658043 0 12001.29287093 0 2973.91572304 0 -11320.01272484 0 826
0.02850000 0.02848090 58052.64191716 0 3350.14224805 0 17576.87275661 0 3396.14775767 0 -6172.52213363 0 831
0.02950000 0.02946900 59718.36246287 0 4519.15830241 0 16604.50119103 0 -5604.56723205 0 -7826.53923201 0 996
0.03050000 0.03053250 54706.47463371 0 -207.33481839 0 19494.15652221 0 -2411.44162225 0 1190.11990546 0 1041
0.03150000 0.03150510 55319.10636593 0 2649.88413722 0 22091.72392466 0 1783.24220134 0 -2279.33771484 0 1036
0.03250000 0.03246190 51994.19794614 0 2366.16688607 0 18039.14231779 0 3492.83129799 0 -7327.94137310 0 1059
0.03350000 0.03345080 50921.95401070 0 194.67693666 0 18712.89328300 0 4834.39846232 0 -2456.49491194 0 1302
0.03450000 0.03451200 49384.11881664 0 400.82701629 0 12645.48072888 0 2764.02873378 0 -4870.08456521 0 1339
0.03550000 0.03553350 50526.56129143 0 -935.10654916 0 11037.56879104 0 3448.51985407 0 -2943.10144307 0 1365
0.03650000 0.03647120 49696.91199276 0 373.11630897 0 12112.01611912 0 1429.72501453 0 -6369.14447775 0 1308
0.03750000 0.03744890 51017.61889713 0 846.98523763 0 11049.70405904 0 225.44471286 0 -1631.17489228 0 1579
0.03850000 0.03847530 48946.98343280 0 2201.31104184 0 15133.98573187 0 219.83990204 0 4132.94454041 0 1662
0.03950000 0.03950240 49437.26597577 0 2732.81585011 0 17938.71633168 0 -1903.37692562 0 3539.53436408 0 1683
0.04050000 0.04050350 46134.17003587 0 4255.28265733 0 23165.40726232 0 -1151.24497302 0 9474.52191337 0 1822
0.04150000 0.04152450 43000.70211219 0 1719.07807902 0 23424.72110958 0 493.70721304 0 9806.99061070 0 1887
0.04250000 0.04250150 43529.40562228 0 723.65614764 0 27531.55710806 0 -911.61661206 0 10115.32163992 0 1920
0.04350000 0.04349210 43002.58440741 0 165.36295670 0 28577.89180342 0 -434.49463437 0 8184.71786757 0 2005
0.04450000 0.04448520 44581.05503356 0 865.27228930 0 30259.33505038 0 384.39236457 0 8021.00247280 0 2151
0.04550000 0.04548030 42008.73253169 0 1582.11342101 0 27166.05966580 0 2890.31967066 0 5789.78508162 0 2274
0.04650000 0.04648670 40173.27324650 0 951.84126089 0 24044.88202267 0 4253.01283074 0 7479.78723566 0 2311
0.04750000 0.04749250 39873.87758341 0 787.72172627 0 22276.63174913 0 8332.96522456 0 5301.81665454 0 2568
0.04850000 0.04851840 39490.44297494 0 128.22527203 0 18248.18781036 0 4879.72856012 0 3229.24353336 0 2493
0.04950000 0.04949480 38829.09301352 0 160.43577216 0 16569.06975162 0 6074.73136083 0 5067.73663555 0 2644
0.05050000 0.05050630 37945.18932325 0 -143.99890596 0 13544.33205766 0 2077.99856034 0 6310.93726618 0 2829
0.05150000 0.05149060 37718.42811096 0 -93.58118563 0 12123.64206018 0 1231.13179659 0 6408.21871204 0 2784
0.05250000 0.05249300 38830.31096925 0 458.70537982 0 13091.36324933 0 633.99799742 0 4012.28941686 0 3055
0.05350000 0.05348950 35989.15242078 0 1023.79697819 0 9742.25072748 0 939.81007275 0 3842.60603901 0 3009
0.05450000 0.05448610 36719.92585881 0 1525.76636001 0 10358.18201249 0 -1848.44712220 0 -1724.87997722 0 3336
0.05550000 0.05550870 35144.88765336 0 686.95028363 0 10290.49689088 0 -2557.64059916 0 -596.52371407 0 3349
0.05650000 0.05647670 34738.09043952 0 497.51941447 0 11104.98817686 0 -3123.29245717 0 -5026.11576655 0 3324
0.05750000 0.05747970 34202.52208805 0 380.16937988 0 11706.87975400 0 33.27698646 0 -4461.54899637 0 3639
0.05850000 0.05849280 34365.50670938 0 -619.72244903 0 12009.04349830 0 985.56866952 0 -3987.56491554 0 3846
0.05950000 0.05951020 34848.59224121 0 655.56024277 0 9863.94664956 0 1274.29171873 0 -7256.15949130 0 3787
0.06050000 0.06049470 34640.87542762 0 681.31779200 0 10444.09218076 0 76.90560011 0 -5355.22954946 0 3930
0.06150000 0.06148310 32943.15586317 0 1498.10769261 0 8618.01115470 0 -1458.11445537 0 -2468.01012975 0 4083
0.06250000 0.06249100 32297.75004949 0 1766.54513552 0 11178.95130665 0 72.12113783 0 -2093.63268298 0 4303
0.06350000 0.06350600 32286.78844792 0 -234.69674748 0 11134.55128413 0 147.19548614 0 -2075.49621493 0 4470
0.06450000 0.06451750 31224.84177457 0 262.53700101 0 11465.50307296 0 1207.25986428 0 -4215.24513078 0 4479
0.06550000 0.06550280 31818.53983134 0 114.53544962 0 11670.89469834 0 1021.51275758 0 -4282.14411734 0 4636
0.06650000 0.06648880 30899.86904114 0 1400.25048587 0 11346.36485791 0 -1332.93075097 0 -2366.07830747 0 4653
0.06750000 0.06749660 30739.54177777 0 1340.65923369 0 12711.02889181 0 812.11627231 0 -798.22493359 0 5220
0.06850000 0.06852730 29430.01792147 0 173.24866644 0 11082.17918773 0 1066.07222158 0 2199.20730013 0 5029
0.06950000 0.06949320 29928.49398480 0 -671.72694424 0 11757.92317142 0 4836.02609407 0 2394.68919480 0 5040
0.07050000 0.07048030 30196.00135242 0 -826.06518712 0 10348.73731942 0 4039.28374477 0 894.47886771 0 5475
0.07150000 0.07148790 30176.51406074 0 -200.34707420 0 9333.06189148 0 3202.73638774 0 384.39568626 0 5509
0.07250000 0.07249820 29738.60361416 0 1020.74101654 0 7768.14379092 0 138.59671868 0 1336.09743587 0 5916
0.07350000 0.07351270 29609.50030678 0 212.55541954 0 8086.93816709 0 -618.69715175 0 702.81803233 0 5721
0.07450000 0.07449140 28654.18012142 0 575.86275596 0 7300.63702010 0 -1645.63534850 0 1991.63442675 0 6028
0.07550000 0.07549160 28372.94307103 0 1108.10719553 0 9095.60481342 0 -2145.96049008 0 -971.05174446 0 6183
0.07650000 0.07648840 27642.83397249 0 681.62560263 0 8590.06460685 0 -440.39175457 0 -732.12536889 0 6330
0.07750000 0.07749960 26816.06347828 0 808.75582173 0 9777.74860085 0 -110.72158734 0 -2018.75055023 0 6583
0.07850000 0.07848650 26165.45367194 0 870.90478094 0 10142.92494569 0 563.33995659 0 -1532.00007888 0 6549
0.07950000 0.07947320 25529.01644136 0 1205.59901555 0 9782.58720680 0 764.56728061 0 -1779.92050390 0 6828
0.08050000 0.08048110 24469.50567946 0 1054.27798119 0 10632.79781265 0 -757.63046911 0 579.02058300 0 7147
0.08150000 0.08149960 23982.65555719 0 479.54128066 0 11172.30791176 0 1046.68900976 0 -4.89741106 0 7386
0.08250000 0.08250610 23063.20970425 0 858.93559781 0 11380.79978809 0 266.58061403 0 1811.77558240 0 7227
0.08350000 0.08350160 22836.66993846 0 735.72387446 0 10757.17323733 0 1433.22386918 0 2244.64812118 0 7798
0.08450000 0.08449610 22381.81883491 0 296.60875894 0 10894.47006508 0 1947.31191050 0 3507.91180439 0 7371
0.08550000 0.08548940 22384.03329987 0 -308.21919874 0 9400.56985590 0 1818.31932637 0 3207.18746232 0 8256
0.08650000 0.08650700 22397.20936641 0 89.52627883 0 8709.10317098 0 1296.19277722 0 872.26003349 0 8037
0.08750000 0.08749060 21569.77453271 0 795.14572006 0 7626.72805833 0 -490.34565522 0 1472.72992413 0 8155
0.08850000 0.08849210 21160.31996091 0 980.73670697 0 7654.64138920 0 -625.84987358 0 946.17887398 0 8718
0.08950000 0.08949900 20584.78051684 0 -57.49658976 0 7112.88360815 0 144.24028264 0 925.43930236 0 8571
0.09050000 0.09049190 20455.89865595 0 -260.85179317 0 6753.27664269 0 1405.78664827 0 -704.34269146 0 8932
0.09150000 0.09150830 20607.58950597 0 91.07850805 0 5627.87447580 0 1607.46904485 0 41.38358907 0 9285
0.09250000 0.09250820 20553.99945385 0 194.86627341 0 4915.19321652 0 843.08777929 0 143.44861142 0 9204
0.09350000 0.09350330 20283.61328177 0 433.93548197 0 5540.45847135 0 367.25794191 0 791.42431169 0 9349
0.09450000 0.09448040 19832.19459892 0 481.73027928 0 5268.59968008 0 762.83999794 0 1392.92060684 0 9564
0.09550000 0.09549270 19353.53799701 0 534.16216623 0 6017.78639428 0 -1035.90345815 0 1173.83251565 0 10155
0.09650000 0.09649430 18799.25741659 0 522.59823019 0 6329.04051726 0 -910.30343434 0 1642.03684293 0 9913
0.09750000 0.09749140 18669.48976971 0 636.17924541 0 7368.44393729 0 -840.99289544 0 358.72007224 0 10476
0.09850000 0.09850240 18052.09693782 0 580.40240913 0 6976.47256638 0 -1076.04285008 0 307.83609631 0 10575
0.09950000 0.09950330 17548.85977482 0 453.49031483 0 7781.86240137 0 328.17263530 0 345.21515766 0 10882
0.10050000 0.10051200 17395.06518309 0 229.29566744 0 6765.23475349 0 1167.00089124 0 975.57921807 0 10875
0.10150000 0.10150300 17418.53851170 0 -226.92618993 0 6480.41026986 0 1829.09269842 0 151.79382264 0 11118
0.10250000 0.10250800 17401.70857798 0 -31.10382126 0 5586.51934260 0 1444.28512167 0 535.50413199 0 11575
0.10350000 0.10349800 17267.62272442 0 330.05050159 0 5822.28235496 0 1104.03700892 0 1344.78921085 0 11364
0.10450000 0.10450100 16925.93078052 0 431.13086209 0 4857.69463374 0 864.25584988 0 2218.88282133 0 12093
0.10550000 0.10551000 16572.05927932 0 109.45889942 0 5112.25845364 0 556.47179350 0 1574.56209549 0 12067
0.10650000 0.10649700 16354.37737338 0 26.58454117 0 4493.33764093 0 165.01528570 0 1931.51170299 0 12054
0.10750000 0.10749900 16658.53413615 0 170.37096922 0 4466.23258977 0 -108.86874450 0 1289.00683841 0 12807
0.10850000 0.10850100 16424.68663598 0 18.16038427 0 4677.37075174 0 -405.79959737 0 1132.38880385 0 12736
0.10950000 0.10950300 16319.94244320 0 402.53879771 0 5099.23739965 0 -694.46174879 0 911.70076173 0 12933
0.11050000 0.11050200 16033.39067689 0 579.82664824 0 5112.64598501 0 -598.41486715 0 936.10195117 0 13428
0.11150000 0.11150900 15743.29576664 0 420.32648753 0 5563.22317118 0 97.07383977 0 399.77182374 0 13453
0.11250000 0.11250000 15086.04256541 0 506.03181779 0 5263.87179738 0 334.42074820 0 531.70300288 0 13668
0.11350000 0.11349100 15050.16823299 0 147.41914710 0 5141.09078747 0 510.15625879 0 251.89096069 0 13791
0.11450000 0.11448600 14647.35705609 0 -5.97026398 0 4470.57294110 0 507.88643220 0 903.29243826 0 14205
0.11550000 0.11549300 14701.05783146 0 -24.36132907 0 4258.40505293 0 792.82385355 0 -56.10302696 0 14776
0.11650000 0.11649800 14678.35956558 0 153.92856686 0 3372.64121208 0 447.72716976 0 602.83493922 0 14553
0.11750000 0.11747300 14614.36152813 0 -34.73388296 0 3021.19455002 0 349.12479555 0 -651.23428546 0 14568
0.11850000 0.11849100 14388.26465533 0 313.74871776 0 3196.52481352 0 20.58511269 0 -421.69834858 0 16015
0.11950000 0.11950300 14110.68147213 0 645.00499552 0 3763.97038815 0 -702.39174782 0 -640.23282352 0 15270
0.12050000 0.12050700 13731.89724009 0 337.82105915 0 3992.01599011 0 -623.49589733 0 79.20554342 0 15999
0.12150000 0.12150000 13538.79589525 0 118.30004006 0 4537.09546861 0 194.69686684 0 33.51094468 0 15670
0.12250000 0.12250700 13566.91960029 0 13.42751903 0 4579.52461732 0 105.90711906 0 140.08705361 0 16887
0.12350000 0.12352200 13694.91567519 0 147.51658356 0 4696.37086113 0 355.13153177 0 -35.72308446 0 16407
0.12450000 0.12449800 13429.17987954 0 147.42579050 0 4457.02041552 0 353.54265316 0 616.00325512 0 16306
0.12550000 0.12549900 13327.53593771 0 78.99151538 0 4307.00148656 0 637.09603390 0 595.03005745 0 17523
0.12650000 0.12650100 13107.52884356 0 152.43712471 0 3793.04631312 0 173.17669633 0 -99.19551865 0 17154
0.12750000 0.12750600 12903.90879015 0 306.45205570 0 3724.32039297 0 118.17160109 0 143.49179349 0 18007
0.12850000 0.12850300 12600.96998311 0 271.36385835 0 3643.24883065 0 264.67063800 0 141.42459044 0 17496
0.12950000 0.12949900 12613.59243340 0 21.39007070 0 3403.44441973 0 199.74473973 0 294.90804985 0 18405
0.13050000 0.13049000 12465.11255758 0 -73.64347177 0 3222.53370452 0 469.98586434 0 250.11053086 0 18100
0.13150000 0.13148800 12669.72912023 0 6.70136958 0 3241.68882645 0 373.62452868 0 -20.76780605 0 19059
0.13250000 0.13249300 12623.33607924 0 179.22107844 0 3186.64829978 0 172.96078599 0 473.45814541 0 18957
0.13350000 0.13349100 12529.77493452 0 41.29744639 0 3125.38512656 0 142.91492536 0 844.12857783 0 19468
0.13450000 0.13450700 12409.30804050 0 77.35203625 0 3065.50599394 0 -176.27362558 0 874.59407957 0 19953
0.13550000 0.13551000 12423.81278601 0 271.36053666 0 3536.62234265 0 -238.88208626 0 337.89192203 0 19956
0.13650000 0.13649900 12221.07851858 0 379.85824755 0 3909.58253184 0 -463.42883359 0 611.82677420 0 19723
0.13750000 0.13749600 11926.33323191 0 324.93287306 0 3631.62288959 0 -545.48804728 0 404.64586112 0 20946
0.13850000 0.13851100 11727.14210842 0 91.32818897 0 4026.67236680 0 98.09957994 0 680.06772652 0 20955
0.13950000 0.13949800 11927.55118764 0 -95.85090149 0 3930.67531062 0 330.56204300 0 43.27230624 0 20506
0.14050000 0.14048300 11797.00847803 0 38.76431991 0 3767.35851954 0 215.52723152 0 -317.08591646 0 21447
0.14150000 0.14148400 11728.80295714 0 119.44270398 0 3481.13892298 0 45.00866822 0 -972.15786970 0 21771
0.14250000 0.14249400 11521.08614355 0 332.96584471 0 3735.27092222 0 -141.61614166 0 -344.24411477 0 22470
0.14350000 0.14350900 11250.03563199 0 205.60199956 0 3480.45243884 0 -298.65713903 0 -503.74538272 0 22519
0.14450000 0.14449900 11140.53033953 0 157.40638409 0 3529.86822451 0 73.18153438 0 -303.43263273 0 22218
0.14550000 0.14550500 10989.57026295 0 159.00301333 0 3470.99667345 0 161.40127888 0 -388.42379803 0 23559
0.14650000 0.14650700 10837.73547271 0 327.65555773 0 3578.60859836 0 465.85810165 0 -402.23320155 0 23044
0.14750000 0.14750500 10576.06322027 0 345.30484349 0 3253.91267305 0 425.27581673 0 -224.37512629 0 23649
0.14850000 0.14849900 10306.82856998 0 190.31222622 0 3138.43939752 0 483.38005568 0 147.27852858 0 23640
0.14950000 0.14949500 10238.83342327 0 -2.87376655 0 2824.92652028 0 500.67945597 0 252.13787354 0 24457
0.15050000 0.15050000 10305.57739728 0 -144.84150988 0 2846.25181788 0 282.89347019 0 577.84802380 0 24591
0.15150000 0.15149900 10349.43487589 0 99.33336909 0 2875.37203215 0 322.59550529 0 661.66441544 0 25020
0.15250000 0.15250500 10338.77222709 0 74.57742237 0 2790.66874729 0 64.78649770 0 1143.77115377 0 25297
0.15350000 0.15350100 9958.94719651 0 310.25207758 0 2739.19350921 0 310.71047183 0 1277.83486267 0 25452
0.15450000 0.15450400 9919.87296222 0 313.53280742 0 2611.72890590 0 314.45513208 0 1160.95540188 0 26061
0.15550000 0.15549900 9666.65996594 0 234.88829870 0 2778.54455162 0 -93.85013240 0 1213.08390713 0 26128
0.15650000 0.15649500 9387.19448752 0 283.73164518 0 2729.28377850 0 -212.26532463 0 751.31038610 0 26331
0.15750000 0.15749700 9346.16045174 0 41.80865562 0 3038.24593024 0 -525.73944874 0 1000.07673673 0 27345
0.15850000 0.15849900 9190.08496110 0 74.53579043 0 2908.22361989 0 -336.07163183 0 496.80414229 0 26980
0.15950000 0.15949700 9410.21385082 0 -30.64609136 0 3132.83680116 0 -114.58638232 0 296.25998071 0 27777
0.16050000 0.16050000 9368.17223348 0 -63.03064843 0 2838.03615287 0 173.63176888 0 49.96264779 0 28224
0.16150000 0.16150500 9358.11856255 0 83.24251305 0 2632.79954003 0 350.65056191 0 -117.24706197 0 28075
0.16250000 0.16249700 9236.15690467 0 120.87989174 0 2426.20103124 0 515.69020673 0 -72.45186817 0 28590
0.16350000 0.16349900 9234.40747735 0 39.93510754 0 2225.31584205 0 331.28063688 0 -184.84914115 0 29163
0.16450000 0.16449100 9125.87654948 0 85.93231292 0 2048.04792171 0 450.63808396 0 -123.86277605 0 28996
0.16550000 0.16550500 8902.93528925 0 204.48812368 0 1884.14429741 0 44.81401675 0 21.19453344 0 30777
0.16650000 0.16650700 8774.80634645 0 295.27565103 0 1899.46839496 0 107.74224618 0 450.67905156 0 29211
0.16750000 0.16749900 8537.57071489 0 150.74305901 0 1822.10606146 0 8.34397112 0 241.98122998 0 30922
0.16850000 0.16850800 8392.73363394 0 79.00070541 0 1840.64113320 0 231.54556384 0 339.22945886 0 30867
0.16950000 0.16949900 8315.07234766 0 164.93113603 0 1739.04148067 0 156.00794946 0 522.31145697 0 30852
0.17050000 0.17049200 8204.70341387 0 114.78236246 0 1959.25894898 0 -52.04845234 0 501.96384565 0 31257
0.17150000 0.17149500 8110.13468759 0 114.21435220 0 1942.19649644 0 26.18051203 0 419.64332509 0 32608
0.17250000 0.17250900 8029.83818800 0 133.55881089 0 2241.53679791 0 -133.63188824 0 536.29469599 0 32361
0.17350000 0.17350400 7977.22250047 0 143.81289091 0 2030.16611712 0 -32.22721934 0 495.74009187 0 32508
0.17450000 0.17449800 7873.16479182 0 -33.19892657 0 2035.89050905 0 141.90845104 0 623.04303924 0 32791
0.17550000 0.17549800 8021.77753554 0 -34.14848914 0 1980.82783773 0 189.04887395 0 243.98310631 0 33633
0.17650000 0.17650100 7953.26198956 0 -8.45675382 0 1650.76183489 0 67.23890693 0 180.54754296 0 33984
0.17750000 0.17750300 7995.01572645 0 112.16818658 0 1740.56946149 0 77.61168226 0 332.21071216 0 34069
0.17850000 0.17849800 7824.01474195 0 112.34866547 0 1450.14238150 0 24.44437150 0 322.19357990 0 34536
