### header ###
fiducial parameters:
Omega_m = 0.31
Omega_nu = 0
Omega_de = 0.69
Omega_k = 0
H_0 = 100
w_de = -1
zeff = 0
beta = 0
fgrowth = 0
b_1 = 2
gamma = 0.55
Lx = 3500 Ly = 3500 Lz = 3500
nx = 700 ny = 700 nz = 700
xoffset = -685.467585 yoffset = -31.7331281 zoffset = 572.489161
bins = 400 dk = 0.001
kx_ny = 0.628318531 ky_ny = 0.628318531 kz_ny = 0.628318531
############################
A(data) = 8.08580818 (not used)
A(ran) = 8.08154239 (used)
Ngal = 480231
weighted Ngal = 0
Nran = 23820508
weighted Nran = 0
SN(data) = 3490.95368
SN(ran) = 70.3931651
SN(data+ran) = 3561.34684
############################
13 columns: k_central k_mean P_0(k) sigma^{lin}_{P_0(k)} P^img_1(k) sigma^{lin}_{P_1(k)} P_2(k) sigma^{lin}_{P_2(k)} P^img_3(k) sigma^{lin}_{P_3(k)} P_4(k) sigma^{lin}_{P_4(k)} N_modes
### header ###
0.00050000 0 0 0 0 0 0 0 0 0 0 0 0
0.00150000 0.00179520 1540.26003320 0 -11452.76989942 0 -16149.42864099 0 3829.68463595 0 9816.66782259 0 3
0.00250000 0.00253879 5501.93785331 0 -11360.42671043 0 -9751.98330100 0 7737.87205486 0 5086.42671984 0 6
0.00350000 0.00331552 18342.30257132 0 -14107.91339093 0 -2449.24253918 0 -31470.75810879 0 -6258.58731444 0 7
0.00450000 0.00420575 27963.59922248 0 -12778.23790346 0 -14099.94131706 0 -15710.52168518 0 9740.41272156 0 24
0.00550000 0.00557378 32739.31436326 0 -12077.47046568 0 -23250.88560992 0 -8807.53613862 0 6003.72454176 0 45
0.00650000 0.00659388 43299.87632879 0 -11888.24443453 0 -36589.71531895 0 -11896.43795490 0 -19487.95602031 0 40
0.00750000 0.00754703 54073.91271682 0 -3608.52602002 0 -11585.30562749 0 -27103.50103057 0 -23340.90361070 0 57
0.00850000 0.00846663 54972.54259910 0 3256.89112843 0 -19859.87541096 0 -34354.65583105 0 -11258.67204534 0 75
0.00950000 0.00948925 45782.95589262 0 8845.40348950 0 -9388.62281742 0 -34367.27828135 0 -11414.57037879 0 112
0.01050000 0.01054430 45003.46422539 0 -13822.02596411 0 -13972.60958164 0 -5222.11806049 0 -23547.29174532 0 105
0.01150000 0.01145670 60856.37600773 0 -21903.49440274 0 -6917.93318507 0 1072.87173625 0 -38371.69527526 0 144
0.01250000 0.01249090 71845.21549725 0 -18483.80688250 0 -22054.74235977 0 5499.50194185 0 -54672.26115002 0 169
0.01350000 0.01339930 87386.10916620 0 -7160.14029047 0 -18843.21454612 0 -12721.43687714 0 -56777.33154454 0 180
0.01450000 0.01448870 80275.90506066 0 996.32432585 0 -30072.21276095 0 -18521.89567988 0 -36476.44543605 0 267
0.01550000 0.01550050 87018.17581248 0 10002.68287954 0 -20523.66128384 0 -30469.37705219 0 -37305.98401147 0 238
0.01650000 0.01653350 83210.40330735 0 -31.46400399 0 -19360.62428489 0 -25721.78561645 0 -33142.23626341 0 315
0.01750000 0.01747870 74982.00511837 0 -2053.38478227 0 -5975.63405370 0 -8978.64784636 0 -19647.61894419 0 297
0.01850000 0.01844180 85769.43901943 0 4110.63380590 0 268.92794689 0 -12656.22088395 0 -14759.40898326 0 388
0.01950000 0.01947590 77725.61648518 0 -3822.94159013 0 9004.56815876 0 155.58498665 0 -9794.96606594 0 399
0.02050000 0.02045430 82906.46799107 0 4386.23504296 0 1786.37566927 0 12835.70326926 0 -15634.23336718 0 462
0.02150000 0.02154770 84846.00712956 0 -184.68859244 0 5882.57116360 0 -7282.65556459 0 -17927.97617661 0 571
0.02250000 0.02255340 79311.50556896 0 -1344.09165439 0 7326.64591110 0 -2078.27536846 0 -14328.47410131 0 510
0.02350000 0.02348930 81071.11942914 0 9647.69307353 0 15441.68563858 0 -14809.12372169 0 -13872.18359554 0 555
0.02450000 0.02439640 70501.25671076 0 7190.75526860 0 13541.12108346 0 -8954.05621294 0 -4706.51311066 0 592
0.02550000 0.02547300 69499.87565416 0 290.88768871 0 21959.18819658 0 -5096.13714871 0 -6065.70741610 0 837
0.02650000 0.02652900 70227.32739475 0 3339.82284132 0 32743.41112345 0 -4129.39032414 0 -2590.63612712 0 723
0.02750000 0.02749970 68313.14388010 0 6313.42853927 0 35904.55985917 0 3541.02912793 0 -1472.68563483 0 826
0.02850000 0.02848090 63516.94493841 0 3196.23693307 0 35020.10255266 0 7237.64656420 0 10269.59234162 0 831
0.02950000 0.02946900 63586.92203126 0 -970.20914054 0 26926.78672647 0 11138.75876756 0 4981.52751451 0 996
0.03050000 0.03053250 63608.62378790 0 1131.39229462 0 34117.92952643 0 9988.12277240 0 2631.27155920 0 1041
0.03150000 0.03150510 61803.05977973 0 4197.08651808 0 23084.69001440 0 9880.67693236 0 -64.36729948 0 1036
0.03250000 0.03246190 57782.92008457 0 4136.12229763 0 18866.68787473 0 -3553.58514427 0 -2113.45214441 0 1059
0.03350000 0.03345080 55735.31505586 0 -443.15872854 0 17705.53317100 0 -998.26087546 0 -3661.34100941 0 1302
0.03450000 0.03451200 53477.33585559 0 1863.48333930 0 19955.54029740 0 -4525.67990172 0 -10024.97146940 0 1339
0.03550000 0.03553350 55070.75412025 0 3238.54428621 0 22518.22987667 0 -1354.46642274 0 -14487.80485545 0 1365
0.03650000 0.03647120 50402.55125346 0 1119.44525614 0 19713.16710712 0 -970.20914054 0 -12863.60552781 0 1308
0.03750000 0.03744890 51767.10456411 0 660.96021558 0 19111.27552998 0 5605.54159664 0 -5035.53831497 0 1579
0.03850000 0.03847530 52287.61455383 0 -2447.42667791 0 19967.05551521 0 11510.56743497 0 -2651.04673133 0 1662
0.03950000 0.03950240 52186.85639798 0 -1482.28534045 0 16942.09637476 0 8562.19556528 0 -2444.00532954 0 1683
0.04050000 0.04050350 54427.00915529 0 2307.89324055 0 15088.14630712 0 5435.32674720 0 3758.19063459 0 1822
0.04150000 0.04152450 50001.29020203 0 4146.44170436 0 16613.80194388 0 -2232.44641923 0 3723.15779887 0 1887
0.04250000 0.04250150 47748.95788742 0 3356.92958317 0 20915.51085917 0 -3772.45178896 0 6944.34067976 0 1920
0.04350000 0.04349210 43163.02239403 0 2085.94848956 0 16807.56762821 0 -2179.89716565 0 3215.09310224 0 2005
0.04450000 0.04448520 42761.42917286 0 1328.51289337 0 18751.86786636 0 45.67101469 0 2769.26594342 0 2151
0.04550000 0.04548030 43577.34878875 0 -247.83959704 0 15783.04541274 0 6070.23599695 0 885.77269870 0 2274
0.04650000 0.04648670 40830.41572449 0 2.51615260 0 12400.56090389 0 3723.48996861 0 -3231.65730017 0 2311
0.04750000 0.04749250 41831.13244160 0 2071.07835733 0 13110.73981776 0 2171.59292203 0 -463.06123240 0 2568
0.04850000 0.04851840 40094.99191003 0 3000.67753213 0 11099.00912146 0 -2670.86619275 0 -2629.86537395 0 2493
0.04950000 0.04949480 37118.97244528 0 1413.58156495 0 12703.16754118 0 763.42350946 0 2512.85304527 0 2644
0.05050000 0.05050630 37433.86936312 0 -945.06831980 0 12991.82304921 0 734.58121054 0 2232.14746646 0 2829
0.05150000 0.05149060 37167.57995123 0 0.61224309 0 14867.80704323 0 1847.20702182 0 -490.34454799 0 2784
0.05250000 0.05249300 38813.25958903 0 -342.62534089 0 15513.32358016 0 824.01459256 0 3037.55944610 0 3055
0.05350000 0.05348950 36514.86640317 0 934.36027447 0 12921.62450986 0 2398.36520664 0 2023.04661226 0 3009
0.05450000 0.05448610 37572.16270011 0 974.18631961 0 12768.93715061 0 254.70776013 0 1270.70428549 0 3336
0.05550000 0.05550870 36749.26751958 0 -596.10518019 0 10808.41595659 0 -785.79624898 0 -2096.35647489 0 3349
0.05650000 0.05647670 35690.97471342 0 1606.31752307 0 12053.66496732 0 -711.52973750 0 -1879.92574166 0 3324
0.05750000 0.05747970 35383.05336021 0 1575.55860472 0 11789.25785065 0 -1792.06684422 0 -3263.40165542 0 3639
0.05850000 0.05849280 34228.32060487 0 250.16699972 0 11414.57037879 0 222.35110531 0 -4599.31086177 0 3846
0.05950000 0.05951020 34777.72936238 0 -340.62900072 0 9840.53975490 0 -305.41014994 0 -5960.02207571 0 3787
0.06050000 0.06049470 34080.06217555 0 -70.92798411 0 11916.14669308 0 1513.27677761 0 -7595.07228168 0 3930
0.06150000 0.06148310 35224.27622231 0 1224.42196775 0 11278.93439976 0 -1219.25119205 0 -6362.99933748 0 4083
0.06250000 0.06249100 33087.20680906 0 1911.31578252 0 11700.56852886 0 -509.64139568 0 -4511.78413408 0 4303
0.06350000 0.06350600 31988.38929406 0 1316.32226374 0 12793.73915820 0 570.30998506 0 -1870.30389139 0 4470
0.06450000 0.06451750 31234.36397391 0 -70.85701051 0 12456.91903722 0 2713.93753630 0 -900.97500068 0 4479
0.06550000 0.06550280 31001.62370622 0 429.61838252 0 11836.42595438 0 3989.01539009 0 807.05954157 0 4636
0.06650000 0.06648880 31223.40237234 0 853.11487665 0 11762.68427109 0 3332.29366045 0 3871.12834774 0 4653
0.06750000 0.06749660 30279.81885130 0 -162.50408243 0 10250.13826691 0 2393.52660070 0 4890.44657055 0 5220
0.06850000 0.06852730 29922.07203641 0 342.05290169 0 10999.93395898 0 373.99212986 0 5642.43458293 0 5029
0.06950000 0.06949320 30802.87547573 0 719.31911801 0 9076.82615053 0 560.51983546 0 5044.75048922 0 5040
0.07050000 0.07048030 29143.57687841 0 -209.78955280 0 9774.11687831 0 1419.25059525 0 5084.59978624 0 5475
0.07150000 0.07148790 29646.59259492 0 217.70183612 0 6975.44284017 0 1638.65978386 0 5476.65973575 0 5509
0.07250000 0.07249820 29492.57655669 0 -385.99785167 0 7082.31291932 0 1745.24198256 0 2098.74809705 0 5916
0.07350000 0.07351270 29153.20980100 0 754.90778444 0 7645.71709540 0 137.00451838 0 3597.22117638 0 5721
0.07450000 0.07449140 28253.25123974 0 1755.82712509 0 8673.46135739 0 -960.12114539 0 3786.67972635 0 6028
0.07550000 0.07549160 27020.56931768 0 1837.17549553 0 7531.49499257 0 -650.33853439 0 3499.56327148 0 6183
0.07650000 0.07648840 26427.64632364 0 315.40956648 0 10334.79726248 0 -1154.69953836 0 7158.13619968 0 6330
0.07750000 0.07749960 26650.31077574 0 -219.22538801 0 11241.50994188 0 -236.27012484 0 4774.97329502 0 6583
0.07850000 0.07848650 27723.55122042 0 -49.94061386 0 13097.23158148 0 -204.56562995 0 6093.65396394 0 6549
0.07950000 0.07947320 26760.48040769 0 206.70480311 0 12608.60988723 0 -314.96888795 0 3853.66729151 0 6828
0.08050000 0.08048110 26568.59701858 0 1397.01736702 0 13566.03381430 0 -1328.56825499 0 4966.03733209 0 7147
0.08150000 0.08149960 25324.17843222 0 1397.41597071 0 12367.56537593 0 496.15751852 0 2686.56674935 0 7386
0.08250000 0.08250610 24119.50949195 0 762.86989321 0 12047.13229568 0 2123.02970538 0 2930.94403042 0 7227
0.08350000 0.08350160 23179.24766835 0 263.31317098 0 10390.51320096 0 1755.49495535 0 2793.10465875 0 7798
0.08450000 0.08449610 23392.27919786 0 -34.68959366 0 9849.91801402 0 3154.98145080 0 118.94334213 0 7371
0.08550000 0.08548940 22842.53827061 0 49.35156618 0 7864.14084709 0 2034.37360055 0 1529.34272093 0 8256
0.08650000 0.08650700 22566.50521288 0 493.32189613 0 7714.33229230 0 995.46068452 0 1310.95218620 0 8037
0.08750000 0.08749060 22041.01267699 0 418.57484575 0 6946.67694030 0 -79.64123940 0 1971.34992769 0 8155
0.08850000 0.08849210 21869.50236555 0 570.77391547 0 7673.67471556 0 -64.84750621 0 2831.28203473 0 8718
0.08950000 0.08949900 21124.11345876 0 629.18042889 0 7336.79923296 0 -75.06604406 0 3334.34204054 0 8571
0.09050000 0.09049190 20763.70928591 0 203.77617319 0 6607.70878830 0 614.25493503 0 2261.96523720 0 8932
0.09150000 0.09150830 20409.94850796 0 397.28276512 0 7276.17825457 0 577.18479154 0 2209.52670686 0 9285
0.09250000 0.09250820 20342.29660331 0 426.46055548 0 7037.99040307 0 -35.84786956 0 2366.00080120 0 9204
0.09350000 0.09350330 20164.25362023 0 188.56169166 0 6698.86723853 0 339.89933452 0 968.76088045 0 9349
0.09450000 0.09448040 19659.90922474 0 558.17028813 0 7094.97965892 0 -903.31015398 0 3448.20982897 0 9564
0.09550000 0.09549270 19519.17997630 0 487.01731438 0 7348.61340354 0 621.09320284 0 1430.99833189 0 10155
0.09650000 0.09649430 19401.14899373 0 -19.29330455 0 7133.79922973 0 -77.34317839 0 3068.22978585 0 9913
0.09750000 0.09749140 19285.00030638 0 275.57134178 0 8183.80993693 0 499.71837818 0 1644.16272930 0 10476
0.09850000 0.09850240 18563.52762120 0 827.38832993 0 7635.68556911 0 537.15833732 0 2306.98530991 0 10575
0.09950000 0.09950330 18362.45420249 0 372.49736601 0 7662.83490957 0 929.52941915 0 1519.25583302 0 10882
0.10050000 0.10051200 17514.75701438 0 105.17324537 0 6582.49710469 0 505.50145343 0 1671.43386532 0 10875
0.10150000 0.10150300 17636.99548037 0 179.11810582 0 6495.55721021 0 776.09689244 0 1247.33060779 0 11118
0.10250000 0.10250800 17384.10358152 0 114.46237228 0 5420.06908360 0 573.48442059 0 612.80778218 0 11575
0.10350000 0.10349800 17322.20928578 0 153.87874140 0 4953.68061759 0 426.40962279 0 1529.27628698 0 11364
0.10450000 0.10450100 17008.64104692 0 185.77035857 0 4314.15420839 0 296.92099850 0 515.55623160 0 12093
0.10550000 0.10551000 16811.55366514 0 457.72215738 0 4616.97121985 0 753.61564413 0 1275.55396376 0 12067
0.10650000 0.10649700 16474.73354416 0 174.26289139 0 4252.58101007 0 664.61851170 0 700.32565201 0 12054
0.10750000 0.10749900 16132.04509102 0 483.46531258 0 4422.62977464 0 198.53564186 0 942.83946082 0 12807
0.10850000 0.10850100 16080.00516438 0 293.70005921 0 4389.44601716 0 -40.91190804 0 1058.27509045 0 12736
0.10950000 0.10950300 15353.43920978 0 367.42181232 0 4274.62600879 0 -209.75965753 0 1982.48868645 0 12933
0.11050000 0.11050200 15458.29412581 0 365.82961201 0 4235.59606380 0 644.25429190 0 1360.57834604 0 13428
0.11150000 0.11150900 14923.72228356 0 144.97216332 0 3483.20944772 0 61.88676656 0 351.90284185 0 13453
0.11250000 0.11250000 14929.14772273 0 177.25795525 0 3655.25123076 0 417.94372323 0 357.11347791 0 13668
0.11350000 0.11349100 14765.27731541 0 90.08177737 0 3632.45331395 0 114.03498054 0 120.87657005 0 13791
0.11450000 0.11448600 14575.71911451 0 38.71859121 0 3426.80702510 0 24.10954440 0 356.58643525 0 14205
0.11550000 0.11549300 14896.26291801 0 -150.02778683 0 3867.89522890 0 -63.01171476 0 301.65441736 0 14776
0.11650000 0.11649800 15009.75424741 0 -176.53050351 0 3560.49427496 0 263.45378950 0 734.89566456 0 14553
0.11750000 0.11747300 15463.16594873 0 -186.34611947 0 4303.43619796 0 -534.77557302 0 67.78587977 0 14568
0.11850000 0.11849100 15271.61472937 0 249.84368784 0 4764.74246688 0 -386.29126827 0 265.03159579 0 16015
0.11950000 0.11950300 15085.15677942 0 770.82868029 0 5248.34839799 0 -602.30568209 0 519.78807415 0 15270
0.12050000 0.12050700 14336.44617518 0 859.38956312 0 5382.25709434 0 -475.81876506 0 827.70610566 0 15999
0.12150000 0.12150000 13931.42053332 0 659.02034428 0 5850.15139653 0 410.47876184 0 1242.96811182 0 15670
0.12250000 0.12250700 13453.64971739 0 34.61098015 0 5233.03537276 0 853.89879725 0 1139.79618916 0 16887
0.12350000 0.12352200 13369.83221852 0 147.59630430 0 5493.62253737 0 816.12556113 0 1001.79626878 0 16407
0.12450000 0.12449800 13198.65407682 0 127.98721704 0 4966.61309298 0 630.09943185 0 612.99601170 0 16306
0.12550000 0.12549900 13171.08398802 0 10.80314553 0 4336.97426984 0 125.86575961 0 1376.83251887 0 17523
0.12650000 0.12650100 13080.62309425 0 243.68968970 0 4524.56159692 0 -10.55714062 0 1941.24427650 0 17154
0.12750000 0.12750600 13009.42804567 0 145.01313092 0 4178.31892751 0 256.34424974 0 1887.88674320 0 18007
0.12850000 0.12850300 12852.09031000 0 96.90808706 0 3838.89681020 0 684.75353439 0 1324.91438780 0 17496
0.12950000 0.12949900 12426.35942072 0 362.97848837 0 3787.15583632 0 44.96183228 0 1020.17189905 0 18405
0.13050000 0.13049000 12225.83961825 0 435.95950294 0 4038.04364439 0 -105.56520567 0 376.60519852 0 18100
0.13150000 0.13148800 11920.68634625 0 212.96841726 0 4073.81832587 0 -366.53491910 0 607.12657232 0 19059
0.13250000 0.13249300 11812.39900952 0 137.46180539 0 4003.59764188 0 287.78743776 0 884.98324194 0 18957
0.13350000 0.13349100 11972.72627290 0 -206.68376569 0 4101.47699327 0 286.77210557 0 757.47656380 0 19468
0.13450000 0.13450700 12001.18214768 0 -51.89986174 0 4099.25145598 0 439.96104113 0 667.52721143 0 19953
0.13550000 0.13551000 12064.73729214 0 236.34320218 0 4049.95746589 0 177.99647932 0 1111.60605017 0 19956
0.13650000 0.13649900 11743.63987240 0 172.10710975 0 3706.22821422 0 538.11609342 0 1374.66234321 0 19723
0.13750000 0.13749600 11653.28970188 0 -46.65268701 0 3438.38867686 0 362.10266747 0 1461.43615281 0 20946
0.13850000 0.13851100 11669.45529612 0 -34.99020728 0 2827.99355426 0 453.45266893 0 706.68116646 0 20955
0.13950000 0.13949800 11577.33355362 0 95.70186800 0 2768.78983345 0 154.65712583 0 380.87247251 0 20506
0.14050000 0.14048300 11665.80142893 0 85.27207019 0 2281.03178054 0 -24.89202559 0 176.79623931 0 21447
0.14150000 0.14148400 11455.75942712 0 83.84329739 0 2086.02599583 0 -64.40815636 0 -44.61183610 0 21771
0.14250000 0.14249400 11269.63364691 0 239.33715881 0 2341.17664895 0 -274.44971528 0 -329.38394764 0 22470
0.14350000 0.14350900 11345.81124167 0 242.81497604 0 2509.08845483 0 -629.22250372 0 -677.92633890 0 22519
0.14450000 0.14449900 11042.31881839 0 325.51195565 0 2920.05993512 0 -386.76073485 0 -322.10943023 0 22218
0.14550000 0.14550500 10680.91813631 0 285.21976563 0 3077.96235936 0 87.95865908 0 273.27715608 0 23559
0.14650000 0.14650700 10620.46324280 0 29.01403068 0 3156.96339694 0 366.63014109 0 427.90438664 0 23044
0.14750000 0.14750500 10657.69947116 0 132.76935413 0 3121.90841657 0 559.17011906 0 133.75479104 0 23649
0.14850000 0.14849900 10502.99694880 0 169.75424072 0 3188.82954777 0 177.85475356 0 164.59343013 0 23640
0.14950000 0.14949500 10301.31455222 0 95.33260597 0 2852.16443933 0 71.19770594 0 350.03715512 0 24457
0.15050000 0.15050000 10262.99323603 0 148.24624976 0 2795.98346320 0 74.25056734 0 612.77788690 0 24591
0.15150000 0.15149900 10235.15741143 0 56.59342023 0 2925.95041193 0 81.45931514 0 99.21312364 0 25020
0.15250000 0.15250500 10144.23148002 0 87.41201841 0 2917.71260226 0 105.04857099 0 646.99690676 0 25297
0.15350000 0.15350100 10045.34454707 0 199.08815087 0 2876.58998788 0 353.41199972 0 399.22706536 0 25452
0.15450000 0.15450400 9897.36292587 0 230.65867062 0 2859.40573977 0 185.99401954 0 877.76519339 0 26061
0.15550000 0.15549900 9843.90574164 0 127.82445387 0 3003.09129894 0 145.87234332 0 893.90642851 0 26128
0.15650000 0.15649500 9673.38086711 0 208.36454460 0 2839.04373442 0 -11.55408167 0 645.12236216 0 26331
0.15750000 0.15749700 9417.42193428 0 210.85692492 0 2761.21636327 0 -254.80298212 0 1161.14363141 0 27345
0.15850000 0.15849900 9426.94413362 0 163.47291085 0 2951.74892875 0 163.36218761 0 539.62082236 0 26980
0.15950000 0.15949700 9256.87322441 0 -33.16006271 0 2880.22171042 0 0.12753657 0 344.20093271 0 27777
0.16050000 0.16050000 9296.41249633 0 114.78236246 0 2904.78012687 0 -186.98056368 0 -273.94149557 0 28224
0.16150000 0.16150500 9057.16170165 0 370.90073678 0 3053.60324476 0 -450.67572986 0 -159.66070942 0 28075
0.16250000 0.16249700 8842.12608135 0 389.40480601 0 3204.50795971 0 -175.84401937 0 132.57226675 0 28590
0.16350000 0.16349900 8653.48688341 0 40.63753583 0 3410.07674230 0 251.18897530 0 546.99166899 0 29163
0.16450000 0.16449100 8716.67664115 0 -129.83629529 0 3001.56331811 0 700.26143253 0 363.46234896 0 28996
0.16550000 0.16550500 8851.82543789 0 -58.01898205 0 3085.49154024 0 534.66263531 0 205.57653321 0 30777
0.16650000 0.16650700 8726.98497556 0 104.44103253 0 2749.93366428 0 152.36183290 0 673.45754861 0 29211
0.16750000 0.16749900 8746.92623256 0 161.55961313 0 2827.01918967 0 26.82946099 0 667.63461298 0 30922
0.16850000 0.16850800 8450.75261599 0 120.48239528 0 2666.57013072 0 30.75548593 0 1123.39807610 0 30867
0.16950000 0.16949900 8515.42606525 0 42.02356945 0 2676.47986144 0 313.04008897 0 620.06347663 0 30852
0.17050000 0.17049200 8392.44575349 0 43.30198007 0 2560.56369291 0 241.06554872 0 665.84200360 0 31257
0.17150000 0.17149500 8276.85068238 0 138.49374606 0 2302.50101836 0 152.10384773 0 631.41814574 0 32608
0.17250000 0.17250900 8213.59449069 0 119.63425520 0 2117.38281972 0 34.24957947 0 546.85326493 0 32361
0.17350000 0.17350400 8113.25708319 0 161.86078036 0 2131.68826339 0 -14.81255614 0 772.67775854 0 32508
0.17450000 0.17449800 7997.28555304 0 61.79021588 0 2051.62428262 0 5.82295777 0 758.35681362 0 32791
0.17550000 0.17549800 7986.25751752 0 93.06366516 0 2155.64877429 0 52.35393778 0 1019.79211831 0 33633
0.17650000 0.17650100 7879.42065534 0 136.28481726 0 2215.94865525 0 153.76801815 0 765.95575014 0 33984
0.17750000 0.17750300 7785.44983461 0 213.44231276 0 2183.32958634 0 275.13177049 0 902.59156010 0 34069
