### header ###
fiducial parameters:
Omega_m = 0.31
Omega_nu = 0
Omega_de = 0.69
Omega_k = 0
H_0 = 100
w_de = -1
zeff = 0
beta = 0
fgrowth = 0
b_1 = 2
gamma = 0.55
Lx = 3500 Ly = 3500 Lz = 3500
nx = 700 ny = 700 nz = 700
xoffset = -685.467585 yoffset = -31.7331281 zoffset = 572.489161
bins = 400 dk = 0.001
kx_ny = 0.628318531 ky_ny = 0.628318531 kz_ny = 0.628318531
############################
A(data) = 8.07784064 (not used)
A(ran) = 8.07994031 (used)
Ngal = 479894
weighted Ngal = 0
Nran = 23820508
weighted Nran = 0
SN(data) = 3483.50209
SN(ran) = 70.3792104
SN(data+ran) = 3553.8813
############################
13 columns: k_central k_mean P_0(k) sigma^{lin}_{P_0(k)} P^img_1(k) sigma^{lin}_{P_1(k)} P_2(k) sigma^{lin}_{P_2(k)} P^img_3(k) sigma^{lin}_{P_3(k)} P_4(k) sigma^{lin}_{P_4(k)} N_modes
### header ###
0.00050000 0 0 0 0 0 0 0 0 0 0 0 0
0.00150000 0.00179520 11152.59917358 0 -1596.33028608 0 32027.69604717 0 -7387.12294926 0 52.14909977 0 3
0.00250000 0.00253879 30973.50000118 0 -13057.37121213 0 24476.03835111 0 39383.37359394 0 -29568.53270495 0 6
0.00350000 0.00331552 39872.65962768 0 -2971.60160715 0 38911.36038692 0 61354.07700833 0 25206.92251239 0 7
0.00450000 0.00420575 61340.90094180 0 359.57485572 0 42168.06328583 0 38724.90243697 0 -33082.99932563 0 24
0.00550000 0.00557378 71846.43345298 0 7162.78657611 0 47603.91043230 0 50737.15690948 0 -10109.29829522 0 45
0.00650000 0.00659388 70511.33252634 0 19210.92645334 0 23082.36482618 0 26442.15106915 0 -12398.01426918 0 40
0.00750000 0.00754703 53604.99976075 0 12860.50527686 0 34005.76687602 0 29712.47292759 0 2346.05954420 0 57
0.00850000 0.00846663 53692.58185007 0 -4443.93292759 0 6765.22368117 0 40517.51182511 0 -5358.97199525 0 75
0.00950000 0.00948925 56226.26193832 0 -5981.52453050 0 18263.68906511 0 770.74342339 0 -10558.82361053 0 112
0.01050000 0.01054430 62160.14225513 0 -10958.49024719 0 2762.48968063 0 7963.52603467 0 -12325.37981837 0 105
0.01150000 0.01145670 60220.71383989 0 -6612.41452635 0 2630.96153411 0 3000.48930260 0 -3627.63685266 0 144
0.01250000 0.01249090 73978.63104330 0 -7587.26629268 0 486.30868559 0 1087.85702066 0 -2150.51121558 0 169
0.01350000 0.01339930 77183.51546206 0 -11718.72714156 0 -8223.08347306 0 -9815.02911851 0 -32200.31359109 0 180
0.01450000 0.01448870 93168.96297248 0 3203.86576487 0 19686.70425080 0 -17596.91366453 0 -11579.43729534 0 267
0.01550000 0.01550050 74719.14812717 0 5133.38444940 0 5513.71880692 0 -450.29041296 0 9806.32627121 0 238
0.01650000 0.01653350 79716.64193407 0 17739.30376170 0 29480.72916913 0 -17475.22881477 0 -8471.95611801 0 315
0.01750000 0.01747870 74242.04165074 0 5791.41271337 0 22406.73156575 0 -10119.52912335 0 -7187.93182577 0 297
0.01850000 0.01844180 69220.85306873 0 -1156.08357896 0 38891.09803250 0 313.24935591 0 -9480.37917320 0 388
0.01950000 0.01947590 68027.69934627 0 -519.13148528 0 29327.26674715 0 1325.85553541 0 -5561.42945456 0 399
0.02050000 0.02045430 71666.28672818 0 -5250.62929690 0 36586.17217500 0 10425.32459019 0 -13388.10155447 0 462
0.02150000 0.02154770 73241.87854987 0 153.74587350 0 20334.76742244 0 13540.67819047 0 -10142.60384827 0 571
0.02250000 0.02255340 73672.25981557 0 1923.72785864 0 22548.78949317 0 16816.09331832 0 -146.34180990 0 510
0.02350000 0.02348930 73039.03355919 0 290.19345394 0 12965.47091614 0 5782.30019004 0 -6511.18026053 0 555
0.02450000 0.02439640 68340.82469215 0 5679.15041203 0 7961.38907598 0 -1107.18929980 0 9611.30941418 0 592
0.02550000 0.02547300 67108.03204684 0 3463.02459958 0 20279.29507510 0 -9632.73436270 0 984.83125269 0 837
0.02650000 0.02652900 65802.93712046 0 3135.92597979 0 29606.95367207 0 -4651.21792052 0 10075.25089640 0 723
0.02750000 0.02749970 62132.35071983 0 4212.23345843 0 28359.10266501 0 -3920.85415851 0 -1676.61571334 0 826
0.02850000 0.02848090 61329.38572399 0 3932.04827890 0 36259.42786961 0 3297.46012657 0 8438.25196126 0 831
0.02950000 0.02946900 55143.94218730 0 2842.28792560 0 32055.93047546 0 -816.24071331 0 159.58431038 0 996
0.03050000 0.03053250 55305.26595990 0 914.57624449 0 33840.23561998 0 8622.18542115 0 4780.17728768 0 1041
0.03150000 0.03150510 52951.95404295 0 1441.42846187 0 31921.51245216 0 4012.59944195 0 4085.44426693 0 1036
0.03250000 0.03246190 51616.85311632 0 5372.84561825 0 29455.48426855 0 6543.82147409 0 911.08292600 0 1059
0.03350000 0.03345080 48286.40853412 0 1990.67113449 0 30751.49988857 0 4030.94628418 0 6963.78368214 0 1302
0.03450000 0.03451200 47717.95537793 0 -1662.12204015 0 25149.45714658 0 4449.29193280 0 4116.57964432 0 1339
0.03550000 0.03553350 50458.24504729 0 -2560.74085011 0 26326.99889104 0 3605.42576907 0 4125.57037208 0 1365
0.03650000 0.03647120 50892.05873369 0 662.43283479 0 24603.81297951 0 3149.01346772 0 2973.71642119 0 1308
0.03750000 0.03744890 50369.66644874 0 715.36851251 0 22385.14053235 0 2598.39782682 0 4156.68360482 0 1579
0.03850000 0.03847530 47728.69553300 0 2762.39002970 0 20777.88186168 0 2389.83951653 0 2187.38205722 0 1662
0.03950000 0.03950240 48813.34047224 0 -355.45484365 0 20520.33958640 0 6107.33935742 0 4578.76062690 0 1683
0.04050000 0.04050350 45765.24017291 0 -320.90365406 0 18235.67608332 0 5787.68133990 0 6627.17393533 0 1822
0.04150000 0.04152450 49213.82646093 0 34.88103415 0 15592.60142586 0 3746.16608984 0 1100.82824919 0 1887
0.04250000 0.04250150 46847.78137043 0 908.19969262 0 13466.38289093 0 -1993.37278175 0 5922.35402667 0 1920
0.04350000 0.04349210 44839.92598782 0 4104.23400215 0 17249.46411172 0 -3013.75394774 0 5732.13148629 0 2005
0.04450000 0.04448520 43907.74696133 0 1058.62386868 0 9991.45554217 0 842.63935014 0 5898.89177038 0 2151
0.04550000 0.04548030 42979.33252529 0 -1408.59901878 0 12757.75410254 0 3795.78117735 0 2034.52861310 0 2274
0.04650000 0.04648670 44804.05165540 0 -2633.07634815 0 10026.45516093 0 3567.81308166 0 -1943.39230752 0 2311
0.04750000 0.04749250 46756.43469068 0 -1502.30410372 0 9320.90447883 0 2994.74276602 0 -5051.55996899 0 2568
0.04850000 0.04851840 45479.46346934 0 1884.60933506 0 9965.92276114 0 -2111.54770454 0 -3573.74784777 0 2493
0.04950000 0.04949480 44176.47228468 0 3602.91235134 0 9429.45755135 0 -224.90881234 0 -3493.82780722 0 2644
0.05050000 0.05050630 41092.82982269 0 2049.11086489 0 10839.18594726 0 -815.72917190 0 -3221.07215764 0 2829
0.05150000 0.05149060 39719.08648244 0 1609.56171424 0 9245.81197191 0 -262.18268661 0 -207.20637942 0 2784
0.05250000 0.05249300 39261.91019068 0 749.00955701 0 11515.32853464 0 191.77377309 0 -2464.90987880 0 3055
0.05350000 0.05348950 38159.32808524 0 1121.43827461 0 12589.45476530 0 -1746.95819291 0 -77.22038630 0 3009
0.05450000 0.05448610 36617.94974723 0 2495.72415877 0 11276.94138129 0 -391.33914116 0 -1369.95660516 0 3336
0.05550000 0.05550870 34664.23803298 0 1219.42834925 0 10633.21856099 0 1253.13250600 0 912.61090683 0 3349
0.05650000 0.05647670 34301.28722543 0 589.22483755 0 10131.89691017 0 1692.11696808 0 609.05537130 0 3324
0.05750000 0.05747970 34375.69324821 0 -296.73055451 0 10111.80064063 0 1786.57497111 0 -2815.78077998 0 3639
0.05850000 0.05849280 34014.51401263 0 445.31008125 0 10408.35071625 0 -383.36596006 0 -3795.44900761 0 3846
0.05950000 0.05951020 32959.76435040 0 940.32272139 0 10136.23726150 0 -1111.38460367 0 -2599.87044602 0 3787
0.06050000 0.06049470 32760.46250367 0 1107.83038740 0 12065.73380138 0 -1357.52238439 0 -1262.47754815 0 3930
0.06150000 0.06148310 31866.92589080 0 1514.68296287 0 13104.76076236 0 -1576.53296930 0 -2267.62319518 0 4083
0.06250000 0.06249100 31294.81886742 0 880.92634213 0 14800.48730833 0 -852.19587369 0 2.88290121 0 4303
0.06350000 0.06350600 30789.14579295 0 -263.52022345 0 14290.05313419 0 2207.17937400 0 -480.63854805 0 4470
0.06450000 0.06451750 31343.20492688 0 -236.89681842 0 14403.21229384 0 1704.81692465 0 820.33525902 0 4479
0.06550000 0.06550280 31534.75614624 0 -377.99256082 0 14792.07234147 0 1750.19131176 0 -442.92067356 0 4636
0.06650000 0.06648880 31720.54975670 0 -28.56593369 0 13731.89724009 0 1943.34801822 0 3011.27374698 0 4653
0.06750000 0.06749660 31831.93734437 0 768.36840972 0 12883.42498923 0 90.40531070 0 1757.66513101 0 5220
0.06850000 0.06852730 31390.26230736 0 594.71338896 0 13736.76906301 0 750.71801673 0 5012.64074725 0 5029
0.06950000 0.06949320 30723.15473704 0 1174.54114444 0 11981.91630250 0 2064.56783033 0 3957.48140901 0 5040
0.07050000 0.07048030 29863.49943812 0 -14.67149472 0 11606.12159815 0 3123.38103577 0 6652.00915990 0 5475
0.07150000 0.07148790 30164.99884293 0 -35.52666141 0 11531.38340563 0 3024.16193307 0 5088.38652133 0 5509
0.07250000 0.07249820 29718.45198299 0 -18.76592972 0 9988.01204916 0 1246.33409856 0 3147.48548690 0 5916
0.07350000 0.07351270 29668.62652131 0 165.43381958 0 10975.08766209 0 -187.91949682 0 2158.39471085 0 5721
0.07450000 0.07449140 29115.12100362 0 620.38346682 0 9681.15363913 0 -569.62571539 0 4951.24470613 0 6028
0.07550000 0.07549160 28109.86463334 0 921.56952484 0 9173.86400524 0 -170.57248553 0 2073.78000458 0 6183
0.07650000 0.07648840 27936.02913369 0 189.77300400 0 8211.65683385 0 2375.27940940 0 2548.48378653 0 6330
0.07750000 0.07749960 27154.43372474 0 863.02128566 0 6858.38622219 0 1123.39807610 0 -492.03972092 0 6583
0.07850000 0.07848650 26433.07176280 0 1067.97776869 0 6220.45422777 0 1018.46122486 0 -219.82329355 0 6549
0.07950000 0.07947320 24577.35012320 0 1226.72501131 0 6140.81099534 0 -1127.68306580 0 -1927.52566605 0 6828
0.08050000 0.08048110 24221.70705002 0 768.93863445 0 6312.96350162 0 -1209.50754621 0 -1825.13987846 0 7147
0.08150000 0.08149960 23581.61595226 0 657.99615423 0 6982.15266901 0 -2415.20621269 0 -3351.32698681 0 7386
0.08250000 0.08250610 23691.89630745 0 250.70179301 0 8516.72152725 0 -2692.10291176 0 -3189.51603191 0 7227
0.08350000 0.08350160 23831.29687692 0 139.99072438 0 8449.86683000 0 -882.94039801 0 -3608.37100747 0 7798
0.08450000 0.08449610 23682.48483135 0 401.82795446 0 9825.07171713 0 192.07826202 0 -3891.03638777 0 7371
0.08550000 0.08548940 23428.48570001 0 512.86676390 0 8995.63279264 0 1500.17821735 0 -2710.99229790 0 8256
0.08650000 0.08650700 22820.50434422 0 212.77686604 0 8782.51268453 0 1917.44985047 0 -2751.26234326 0 8037
0.08750000 0.08749060 22566.61593613 0 683.10486522 0 7742.63315453 0 2080.22409763 0 -2249.70817363 0 8155
0.08850000 0.08849210 21786.34920616 0 402.32288738 0 7535.80212692 0 1045.47548296 0 -2342.88178698 0 8718
0.08950000 0.08949900 21410.11160882 0 584.13599706 0 6588.39865381 0 380.50708579 0 -2386.89427813 0 8571
0.09050000 0.09049190 20595.40994867 0 856.50190081 0 7359.18747374 0 -471.42748104 0 -1203.03023620 0 8932
0.09150000 0.09150830 19819.23997888 0 925.18685336 0 7094.19352385 0 -398.81185318 0 -1503.16774505 0 9285
0.09250000 0.09250820 19616.50571145 0 438.72979861 0 7895.71911748 0 -79.64522544 0 -601.35014046 0 9204
0.09350000 0.09350330 18982.61511558 0 216.48277316 0 7659.28069330 0 285.77006017 0 -840.85781308 0 9349
0.09450000 0.09448040 18867.79510721 0 543.43523826 0 8400.22959784 0 370.51320541 0 -519.04290669 0 9564
0.09550000 0.09549270 18539.05778335 0 422.11466799 0 7779.70329803 0 497.59581351 0 -839.04084457 0 10155
0.09650000 0.09649430 18179.98228948 0 311.96275177 0 8318.22796023 0 158.28441944 0 35.72629543 0 9913
0.09750000 0.09749140 18093.83960239 0 74.99949939 0 8392.81114021 0 131.94446593 0 247.53400088 0 10476
0.09850000 0.09850240 17975.91934307 0 157.23365582 0 8296.06116594 0 -401.98518147 0 -542.50073405 0 10575
0.09950000 0.09950330 17973.37270836 0 416.84202691 0 8262.45666012 0 301.13733979 0 395.34178658 0 10882
0.10050000 0.10051200 17628.58051351 0 -336.74925810 0 8093.85837011 0 437.68346392 0 1294.66479639 0 10875
0.10150000 0.10150300 17873.61106175 0 92.68809191 0 7837.25724243 0 1274.74568405 0 396.21871471 0 11118
0.10250000 0.10250800 17990.75625833 0 95.17537895 0 7737.52881279 0 1330.47269486 0 126.36622869 0 11575
0.10350000 0.10349800 17297.62872468 0 606.11013290 0 7069.07041884 0 1081.88571589 0 331.22638248 0 11364
0.10450000 0.10450100 16921.61257384 0 378.41884533 0 6340.44501182 0 608.00460767 0 806.26787034 0 12093
0.10550000 0.10551000 16606.05131651 0 246.28282817 0 6063.64796368 0 602.47065973 0 1089.88104164 0 12067
0.10650000 0.10649700 16280.41424359 0 123.96353420 0 5709.42214809 0 652.27065507 0 -48.81699434 0 12054
0.10750000 0.10749900 16110.78622737 0 268.94234091 0 5249.84316184 0 146.40824384 0 969.64998813 0 12807
0.10850000 0.10850100 15738.75611346 0 243.02977914 0 4636.40314991 0 435.47896405 0 687.58804954 0 12736
0.10950000 0.10950300 15612.53161053 0 339.92369363 0 4650.53143638 0 52.96346926 0 674.37876603 0 12933
0.11050000 0.11050200 15433.60284146 0 257.25882377 0 4762.09618125 0 54.06239750 0 -408.77583828 0 13428
0.11150000 0.11150900 15125.79221150 0 412.52603470 0 4590.61908679 0 -306.52845474 0 105.24720850 0 13453
0.11250000 0.11250000 14856.62399516 0 376.93293934 0 4641.85073372 0 -384.96591099 0 -143.75974375 0 13668
0.11350000 0.11349100 14588.67373455 0 212.08706020 0 4985.25888797 0 74.34246764 0 41.98315546 0 13791
0.11450000 0.11448600 14509.39588885 0 49.67930700 0 5063.03089750 0 361.20248747 0 186.78126183 0 14205
0.11550000 0.11549300 14494.66969684 0 66.66181736 0 4830.99925860 0 532.13150185 0 -378.10217684 0 14776
0.11650000 0.11649800 14409.41279574 0 93.26208122 0 4785.28162942 0 376.49336804 0 242.54148962 0 14553
0.11750000 0.11747300 14224.17280152 0 184.06522055 0 4604.65879466 0 342.60430347 0 303.18350542 0 14568
0.11850000 0.11849100 14075.80364895 0 260.43436652 0 4931.40310005 0 276.60549692 0 434.14031998 0 16015
0.11950000 0.11950300 14080.12185563 0 103.90070308 0 4906.00318692 0 435.01724810 0 1301.16425106 0 15270
0.12050000 0.12050700 13834.42696791 0 117.67556094 0 5003.72752577 0 -62.61909012 0 1389.24459500 0 15999
0.12150000 0.12150000 13896.98560313 0 226.72024468 0 4835.56105642 0 378.77094526 0 1012.35594496 0 15670
0.12250000 0.12250700 13778.06883458 0 66.63203280 0 4929.05576719 0 -587.09452225 0 1142.75249988 0 16887
0.12350000 0.12352200 13864.65441466 0 110.77971704 0 4962.50526047 0 -346.67227561 0 364.31381074 0 16407
0.12450000 0.12449800 13447.44921549 0 195.63579999 0 5088.54153388 0 187.92171129 0 1084.05810602 0 16306
0.12550000 0.12549900 13541.67469970 0 184.29220321 0 4994.02816923 0 256.94104804 0 91.93727756 0 17523
0.12650000 0.12650100 13282.80374544 0 -5.05450521 0 4458.90271074 0 660.29809056 0 315.50146678 0 17154
0.12750000 0.12750600 13131.77723491 0 391.12987422 0 4592.81140710 0 479.76604886 0 -145.53242295 0 18007
0.12850000 0.12850300 12835.59254602 0 274.46632377 0 4092.77414596 0 79.30552651 0 262.12621776 0 17496
0.12950000 0.12949900 12558.89514880 0 164.78719581 0 4175.82765443 0 414.38950697 0 264.75810937 0 18405
0.13050000 0.13049000 12729.18750451 0 -220.78990751 0 4001.12851344 0 222.50611786 0 556.66223749 0 18100
0.13150000 0.13148800 12975.54673172 0 -147.23756097 0 3920.58842271 0 -327.62898415 0 83.25923226 0 19059
0.13250000 0.13249300 12770.48727608 0 260.65692025 0 4241.29831108 0 -505.68082509 0 61.79320541 0 18957
0.13350000 0.13349100 12634.96202030 0 400.94991910 0 4427.03655991 0 -676.34631815 0 -121.42465012 0 19468
0.13450000 0.13450700 12292.05212067 0 410.01815313 0 4431.72015331 0 -269.46384741 0 75.89934723 0 19953
0.13550000 0.13551000 12309.43567063 0 132.33974793 0 4980.04382298 0 156.14413906 0 63.46224765 0 19956
0.13650000 0.13649900 12066.06597112 0 -32.75858021 0 4815.06618318 0 553.29182182 0 -612.68820107 0 19723
0.13750000 0.13749600 12188.52588361 0 150.26916351 0 4708.48398448 0 228.04781643 0 -233.98368977 0 20946
0.13850000 0.13851100 11733.78550331 0 282.64212841 0 4454.63986569 0 207.72899316 0 -142.14318432 0 20955
0.13950000 0.13949800 11810.95960730 0 162.00472058 0 4581.92731180 0 437.98352392 0 433.72178610 0 20506
0.14050000 0.14048300 11434.27911697 0 195.39663777 0 4114.29874541 0 610.44826976 0 623.05078987 0 21447
0.14150000 0.14148400 11330.30998692 0 241.26485057 0 3937.63980293 0 614.15196241 0 482.45551656 0 21771
0.14250000 0.14249400 10980.72347542 0 280.28925939 0 3383.95712805 0 788.32406074 0 912.13036793 0 22470
0.14350000 0.14350900 10900.95844743 0 137.80283300 0 3226.97370677 0 479.68854258 0 1212.84031598 0 22519
0.14450000 0.14449900 10821.10484084 0 -150.58251030 0 3156.60908255 0 365.30367658 0 831.84826237 0 22218
0.14550000 0.14550500 10759.25483440 0 129.47201580 0 2961.92439526 0 160.13349769 0 761.51906959 0 23559
0.14650000 0.14650700 10684.82666697 0 298.15666995 0 3023.09898988 0 -179.23215077 0 1119.68884729 0 23044
0.14750000 0.14750500 10506.36293554 0 198.91542260 0 2982.85108917 0 -167.11902742 0 941.64918590 0 23649
0.14850000 0.14849900 10309.64094049 0 99.76452542 0 2940.75411021 0 279.12334359 0 1085.70345349 0 23640
0.14950000 0.14949500 10272.83653279 0 70.88912025 0 2759.09047691 0 149.49520800 0 395.84779182 0 24457
0.15050000 0.15050000 10304.27086295 0 29.26282582 0 2907.35997856 0 9.89715255 0 219.58191687 0 24591
0.15150000 0.15149900 10156.80964102 0 137.66664340 0 2712.23239828 0 -151.04865518 0 66.41457234 0 25020
0.15250000 0.15250500 10060.18146232 0 204.95094686 0 2770.89357517 0 -381.81804905 0 129.74993115 0 25297
0.15350000 0.15350100 9903.88452518 0 210.05196690 0 2734.67600068 0 -72.13409245 0 -177.37310743 0 25452
0.15450000 0.15450400 9779.19907540 0 176.68108713 0 2922.11938754 0 35.74323609 0 -238.69164228 0 26061
0.15550000 0.15549900 9643.83990449 0 81.42986275 0 2590.96829686 0 130.87266489 0 -450.47089185 0 26128
0.15650000 0.15649500 9552.06140407 0 121.36375234 0 2708.86641153 0 20.56673263 0 -403.29503750 0 26331
0.15750000 0.15749700 9443.48618690 0 106.70288704 0 2656.56074909 0 13.60766576 0 -558.81691190 0 27345
0.15850000 0.15849900 9315.43475037 0 221.02242633 0 2850.68074781 0 -50.38029588 0 -707.38315185 0 26980
0.15950000 0.15949700 9253.91691368 0 229.83156796 0 2942.48139288 0 -332.69235829 0 -636.44498120 0 27777
0.16050000 0.16050000 9043.25486168 0 123.28922962 0 2859.33930582 0 -101.52303205 0 -568.71003413 0 28224
0.16150000 0.16150500 9066.67282867 0 -14.84843047 0 3108.72127771 0 26.87817922 0 -651.99495418 0 28075
0.16250000 0.16249700 9162.10519628 0 -49.11340047 0 3112.55230209 0 165.93761036 0 -254.22722123 0 28590
0.16350000 0.16349900 9201.86591471 0 -45.89788662 0 2992.51722874 0 498.64879160 0 -550.64553618 0 29163
0.16450000 0.16449100 9212.00816424 0 33.97410003 0 2830.90557568 0 469.18976419 0 43.41768586 0 28996
0.16550000 0.16550500 9152.85980506 0 206.24973056 0 2733.90093795 0 276.45048437 0 -82.59677507 0 30777
0.16650000 0.16650700 9006.11828424 0 179.95960251 0 2469.07307293 0 391.43547038 0 598.98398464 0 29211
0.16750000 0.16749900 8738.09051735 0 190.50377743 0 2473.64594308 0 351.83197897 0 706.61805421 0 30922
0.16850000 0.16850800 8607.07169777 0 137.45848369 0 2009.98126898 0 397.81755841 0 1008.91798810 0 30867
0.16950000 0.16949900 8482.06515057 0 43.90353948 0 2334.75470056 0 129.00033476 0 696.70389456 0 30852
0.17050000 0.17049200 8468.64549289 0 216.08638393 0 2325.05534402 0 -279.76775289 0 562.34234012 0 31257
0.17150000 0.17149500 8247.19899652 0 265.70368591 0 2581.42395287 0 -232.67161927 0 667.63239852 0 32608
0.17250000 0.17250900 8072.51092786 0 83.05184762 0 2497.42929679 0 -452.66874833 0 782.87426246 0 32361
0.17350000 0.17350400 8276.03133035 0 -104.33219158 0 2681.00844229 0 115.21861206 0 437.56720451 0 32508
0.17450000 0.17449800 8220.23788559 0 -55.28400710 0 2510.20675964 0 117.48400972 0 313.08769997 0 32791
0.17550000 0.17549800 8343.22926967 0 62.82802489 0 2527.11419963 0 306.50077393 0 425.00675923 0 33633
0.17650000 0.17650100 8245.79281127 0 154.24966428 0 2040.43016223 0 185.01079709 0 141.14778232 0 33984
0.17750000 0.17750300 8058.85875135 0 174.20088637 0 2111.32625804 0 271.10365872 0 213.39359453 0 34069
0.17850000 0.17849800 7913.19124604 0 193.41136993 0 1936.33923661 0 131.11625604 0 114.21435220 0 34536
