### header ###
fiducial parameters:
Omega_m = 0.31
Omega_nu = 0
Omega_de = 0.69
Omega_k = 0
H_0 = 100
w_de = -1
zeff = 0
beta = 0
fgrowth = 0
b_1 = 2
gamma = 0.55
Lx = 3500 Ly = 3500 Lz = 3500
nx = 700 ny = 700 nz = 700
xoffset = -685.467585 yoffset = -31.7331281 zoffset = 572.489161
bins = 400 dk = 0.001
kx_ny = 0.628318531 ky_ny = 0.628318531 kz_ny = 0.628318531
############################
A(data) = 8.04275147 (not used)
A(ran) = 8.03956437 (used)
Ngal = 477906
weighted Ngal = 0
Nran = 23820508
weighted Nran = 0
SN(data) = 3493.45925
SN(ran) = 70.0275214
SN(data+ran) = 3563.48677
############################
13 columns: k_central k_mean P_0(k) sigma^{lin}_{P_0(k)} P^img_1(k) sigma^{lin}_{P_1(k)} P_2(k) sigma^{lin}_{P_2(k)} P^img_3(k) sigma^{lin}_{P_3(k)} P_4(k) sigma^{lin}_{P_4(k)} N_modes
### header ###
0.00050000 0 0 0 0 0 0 0 0 0 0 0 0
0.00150000 0.00179520 29958.27853856 0 -18707.13567410 0 5262.29952726 0 16483.25923427 0 -108084.04884269 0 3
0.00250000 0.00253879 52688.10054252 0 -16948.73976965 0 18873.77416262 0 -1291.02200153 0 49713.29903350 0 6
0.00350000 0.00331552 53475.89645337 0 -600.37577587 0 29195.17391206 0 -50325.93076571 0 27468.99847284 0 7
0.00450000 0.00420575 51460.73333637 0 11679.08821871 0 33198.92656648 0 9179.72126507 0 45994.65874315 0 24
0.00550000 0.00557378 51635.01172902 0 -4996.36442976 0 21002.98222524 0 43454.77815300 0 6787.13581198 0 45
0.00650000 0.00659388 62941.62694083 0 -7327.85279450 0 23934.15877448 0 43358.44892708 0 37822.95085725 0 40
0.00750000 0.00754703 73440.84822686 0 -15462.61233249 0 -1950.51181238 0 52175.45190342 0 -5607.92214647 0 57
0.00850000 0.00846663 76881.24099451 0 -10296.54238023 0 -8987.48356157 0 24790.82454570 0 11162.34281942 0 75
0.00950000 0.00948925 69938.67188672 0 11235.30943998 0 -23033.75732023 0 2903.04177188 0 16325.25715911 0 112
0.01050000 0.01054430 58763.26372402 0 -650.98072923 0 -31185.97791445 0 11253.80022242 0 11112.51735774 0 105
0.01150000 0.01145670 58299.44403736 0 -2758.70294554 0 -35890.71945315 0 -9360.91986073 0 14163.60718476 0 144
0.01250000 0.01249090 60560.74493508 0 -559.83778025 0 -31958.71546355 0 -23193.08807437 0 9660.14943895 0 169
0.01350000 0.01339930 62368.52340822 0 4959.11712907 0 -21510.09470194 0 -25812.24651022 0 14533.64428020 0 180
0.01450000 0.01448870 57386.64157931 0 1888.65073362 0 -19102.97128636 0 -21876.69937668 0 16304.33046520 0 267
0.01550000 0.01550050 61444.53790210 0 -4227.66827923 0 -14474.29661918 0 -2899.28825376 0 7034.94551375 0 238
0.01650000 0.01653350 63784.67375252 0 -6037.76086826 0 -3062.21751347 0 -5551.71902569 0 -3172.48679634 0 315
0.01750000 0.01747870 68604.89963907 0 -8415.64227399 0 -4322.31451178 0 -6187.96802675 0 -1612.54016961 0 297
0.01850000 0.01844180 79519.00093606 0 -1373.75441257 0 12016.01906294 0 -1758.76129117 0 -1851.42557758 0 388
0.01950000 0.01947590 73784.31174274 0 -1583.41995534 0 4267.31827441 0 3248.43187227 0 17978.46597778 0 399
0.02050000 0.02045430 82387.28668033 0 -1694.99577254 0 6175.13520228 0 8438.65056496 0 20182.52295618 0 462
0.02150000 0.02154770 79523.65131248 0 -1596.88390232 0 10779.11858512 0 9225.80428097 0 20030.05704343 0 571
0.02250000 0.02255340 81006.45705219 0 3811.73639742 0 12698.07427177 0 6983.41491404 0 26997.20671231 0 510
0.02350000 0.02348930 76080.82263337 0 5278.94123146 0 12243.88750771 0 -1006.57508417 0 21677.72969969 0 555
0.02450000 0.02439640 76967.71585135 0 6984.22319376 0 18619.88575452 0 -6227.37443078 0 29001.85112073 0 592
0.02550000 0.02547300 69691.98048976 0 6659.40547288 0 25104.39278456 0 -8619.18482113 0 22205.32597730 0 837
0.02650000 0.02652900 66557.07316386 0 5368.49419459 0 29073.93195530 0 -580.10788529 0 24015.87253164 0 723
0.02750000 0.02749970 64026.49332656 0 1591.13736574 0 24562.51320794 0 3491.81264411 0 9924.70049584 0 826
0.02850000 0.02848090 63477.74890855 0 215.34343093 0 31295.59393016 0 682.59221658 0 664.65837207 0 831
0.02950000 0.02946900 61588.36740149 0 3653.43536949 0 26316.14801272 0 6451.51150208 0 -691.90072006 0 996
0.03050000 0.03053250 59088.90079693 0 1236.90047782 0 25131.96287336 0 2917.40257717 0 1547.55669525 0 1041
0.03150000 0.03150510 57278.68641233 0 376.57530324 0 23903.37771149 0 1054.03217558 0 2328.19988427 0 1036
0.03250000 0.03246190 57368.26152011 0 1857.12782486 0 24565.94562863 0 8699.28201886 0 2004.63333609 0 1059
0.03350000 0.03345080 55649.72598501 0 2403.76850115 0 25290.29711827 0 4032.46319268 0 6060.19339834 0 1302
0.03450000 0.03451200 52767.93200446 0 2198.66475621 0 20931.56573016 0 2519.92826083 0 8612.55249856 0 1339
0.03550000 0.03553350 54362.23605510 0 -1520.85024779 0 20904.99215060 0 5809.71526629 0 10678.72581599 0 1365
0.03650000 0.03647120 55314.23454301 0 945.36616534 0 19881.13427462 0 -1399.15432571 0 8579.81163407 0 1308
0.03750000 0.03744890 52370.43554347 0 2632.42308098 0 21349.32454557 0 3267.38769236 0 9171.07377939 0 1579
0.03850000 0.03847530 51303.06343096 0 3034.31525493 0 20629.62343236 0 -915.08667866 0 5945.22944975 0 1662
0.03950000 0.03950240 48417.17269022 0 1261.23744777 0 19007.41712318 0 -869.72668557 0 3663.09043673 0 1683
0.04050000 0.04050350 47803.21227903 0 522.25609535 0 20243.08857294 0 -3726.29126679 0 -957.46710914 0 1822
0.04150000 0.04152450 47080.18946837 0 2883.75378204 0 22954.59019778 0 -682.25451068 0 -4302.90472637 0 1887
0.04250000 0.04250150 44463.35622073 0 3048.39925210 0 23713.81951059 0 -874.18883248 0 -2126.48427072 0 1920
0.04350000 0.04349210 41921.59333537 0 1353.21525004 0 20588.32366078 0 2880.07777020 0 -400.15160448 0 2005
0.04450000 0.04448520 40021.91456623 0 877.09421051 0 20985.82012177 0 6029.09123792 0 -735.13039785 0 2151
0.04550000 0.04548030 42051.69315199 0 120.88542791 0 19382.87965778 0 3797.32023050 0 -5369.16960641 0 2274
0.04650000 0.04648670 40248.78650176 0 665.81321555 0 20131.25809227 0 2512.94162387 0 -2429.60023496 0 2311
0.04750000 0.04749250 39167.13109023 0 1323.16496048 0 17946.90985205 0 -1455.25779556 0 -2034.78327657 0 2568
0.04850000 0.04851840 39816.74438734 0 -664.63844189 0 21932.17172402 0 -126.20014382 0 1863.21760351 0 2493
0.04950000 0.04949480 40040.18390218 0 -393.35651874 0 21886.44302252 0 493.24328263 0 2721.17883673 0 2644
0.05050000 0.05050630 41193.69870179 0 497.83386850 0 22120.06907620 0 5354.23304023 0 2996.62506124 0 2829
0.05150000 0.05149060 39734.14484419 0 222.65891594 0 21575.64286486 0 2733.74592540 0 5090.91101139 0 2784
0.05250000 0.05249300 39937.65417436 0 1082.44376106 0 19761.66388982 0 6911.45587505 0 8044.91869441 0 3055
0.05350000 0.05348950 38908.59230572 0 176.30352085 0 20402.97294332 0 262.99428802 0 7647.58831829 0 3009
0.05450000 0.05448610 37637.82158628 0 3308.43280046 0 18104.24758772 0 2052.02288631 0 6564.53779383 0 3336
0.05550000 0.05550870 35736.81413817 0 1561.67390940 0 19286.77187835 0 -2532.75001297 0 6972.51974642 0 3349
0.05650000 0.05647670 33711.02158935 0 1753.72338338 0 18176.10697579 0 226.98598048 0 6992.91496874 0 3324
0.05750000 0.05747970 33479.16710764 0 77.33819584 0 19571.33062619 0 2005.84021950 0 6321.61098731 0 3639
0.05850000 0.05849280 33195.93703878 0 -1083.70932779 0 17208.71795639 0 2474.74210324 0 3395.16232077 0 3846
0.05950000 0.05951020 34087.70207968 0 885.00981552 0 16935.67442636 0 3475.32595245 0 596.57353953 0 3787
0.06050000 0.06049470 33076.02376100 0 416.23526351 0 14302.89703098 0 1707.72894608 0 4015.61111430 0 3930
0.06150000 0.06148310 31915.75484325 0 566.06928466 0 14629.30916664 0 1610.69109137 0 2918.10013363 0 4083
0.06250000 0.06249100 32121.14646864 0 644.67504024 0 13449.33151071 0 1952.22802272 0 2253.62777661 0 4303
0.06350000 0.06350600 31403.88126689 0 -704.19432230 0 11773.86731916 0 2375.91053191 0 1968.33825534 0 4470
0.06450000 0.06451750 32401.27628655 0 -764.62485670 0 12370.00128739 0 132.28770800 0 932.73264272 0 4479
0.06550000 0.06550280 32956.66409945 0 187.02485298 0 12249.64511661 0 -574.15651070 0 3230.59435699 0 4636
0.06650000 0.06648880 32022.82422425 0 1749.01764533 0 12956.50233304 0 -1330.39518858 0 1279.81680881 0 4653
0.06750000 0.06749660 31176.56643836 0 1314.55069177 0 12831.82795558 0 -405.97232564 0 2628.93529867 0 5220
0.06850000 0.06852730 30321.22934612 0 663.50906476 0 14090.52984096 0 -1505.86939231 0 1922.17773317 0 5029
0.06950000 0.06949320 30745.52083317 0 350.97719550 0 16190.83913581 0 -465.39084954 0 2657.31366718 0 5040
0.07050000 0.07048030 29084.00777088 0 1179.75620943 0 14872.34669641 0 -489.25281676 0 -274.83060325 0 5475
0.07150000 0.07148790 28648.86540551 0 1294.34369897 0 15868.08086735 0 -301.47393846 0 1971.32778304 0 5509
0.07250000 0.07249820 28324.44628832 0 206.16336643 0 15755.25387744 0 849.64148835 0 827.84561695 0 5916
0.07350000 0.07351270 27802.27544988 0 290.88547424 0 15001.22855729 0 2168.63661130 0 -475.07359760 0 5721
0.07450000 0.07449140 26888.03358960 0 605.02061614 0 13684.83985961 0 1891.72883992 0 -482.08016474 0 6028
0.07550000 0.07549160 27174.36390941 0 794.09717090 0 12039.82456130 0 2074.62150127 0 -70.30571945 0 6183
0.07650000 0.07648840 25547.28577731 0 604.48693008 0 10671.36271999 0 1638.62656689 0 1387.05227468 0 6330
0.07750000 0.07749960 25484.50569559 0 -199.11472445 0 9517.48253366 0 2715.60945735 0 2269.46120110 0 6583
0.07850000 0.07848650 25141.15290296 0 -313.61917156 0 8768.27367481 0 1554.51011524 0 -253.52745030 0 6549
0.07950000 0.07947320 25413.08920051 0 619.64051383 0 7288.34673955 0 1025.62059009 0 569.66889745 0 6828
0.08050000 0.08048110 24547.56556944 0 412.90802990 0 7418.04795247 0 -29.47076408 0 439.04978880 0 7147
0.08150000 0.08149960 24049.20022935 0 370.32054695 0 7556.24163854 0 -350.77789365 0 514.17883439 0 7386
0.08250000 0.08250610 24050.08601533 0 808.66170697 0 7873.28658739 0 -359.75754908 0 558.02745514 0 7227
0.08350000 0.08350160 23293.84623022 0 789.36485927 0 8856.76369476 0 542.69117803 0 2396.87044279 0 7798
0.08450000 0.08449610 23051.36231669 0 121.42686459 0 7524.12082424 0 1586.58664024 0 2548.01874889 0 7371
0.08550000 0.08548940 22885.05599792 0 -267.65462954 0 7769.15137247 0 2668.91746359 0 2670.29043186 0 8256
0.08650000 0.08650700 23083.47205867 0 185.45258285 0 7098.45636891 0 863.72105659 0 389.04716992 0 8037
0.08750000 0.08749060 22544.91417949 0 493.24881879 0 7257.31101308 0 -50.15984589 0 1676.47177312 0 8155
0.08850000 0.08849210 22200.89704737 0 912.01189406 0 6676.29076822 0 -1246.52232808 0 1103.97943283 0 8718
0.08950000 0.08949900 21369.25473024 0 461.31180508 0 6831.64655775 0 -1533.61663831 0 107.54227999 0 8571
0.09050000 0.09049190 21170.06360676 0 451.65230891 0 7003.85442566 0 -171.31876022 0 -1134.38182232 0 8932
0.09150000 0.09150830 20383.04275865 0 637.68397435 0 6268.86243187 0 463.64363669 0 -1816.66954997 0 9285
0.09250000 0.09250820 19897.41059210 0 610.57338703 0 5998.94129744 0 669.96644459 0 -2083.91118179 0 9204
0.09350000 0.09350330 19598.45782200 0 242.63560438 0 5852.49872939 0 958.78693025 0 -2290.31038874 0 9349
0.09450000 0.09448040 19165.52992159 0 392.51170036 0 6361.49350131 0 738.21736201 0 -1845.19185870 0 9564
0.09550000 0.09549270 18840.33574166 0 584.50359825 0 5998.11087308 0 -291.81887122 0 -961.74213375 0 10155
0.09650000 0.09649430 18163.70597200 0 605.87429238 0 6753.34307664 0 -375.32413054 0 -280.18960847 0 9913
0.09750000 0.09749140 18313.40380354 0 425.06544256 0 7296.65098316 0 -544.46939340 0 -433.77825496 0 10476
0.09850000 0.09850240 17891.32678146 0 284.17121647 0 7762.38618201 0 -411.61146067 0 940.30943460 0 10575
0.09950000 0.09950330 17875.71480346 0 369.72264141 0 8784.89323436 0 -699.90158197 0 673.71885547 0 10882
0.10050000 0.10051200 17639.98500807 0 198.25108311 0 9096.55703336 0 -136.60259299 0 1338.51120268 0 10875
0.10150000 0.10150300 17383.32851878 0 231.97627728 0 9138.37720420 0 1489.71487040 0 1474.05860311 0 11118
0.10250000 0.10250800 17398.94049677 0 -252.65938004 0 8844.34054631 0 594.14537870 0 706.20837819 0 11575
0.10350000 0.10349800 17475.89315426 0 39.91750254 0 8975.65831866 0 790.66917914 0 1844.89290593 0 11364
0.10450000 0.10450100 17332.50654786 0 285.04482290 0 8347.11565568 0 927.98815154 0 1701.83846928 0 12093
0.10550000 0.10551000 17315.01227465 0 159.98734300 0 8489.04071521 0 493.09159178 0 2595.49687771 0 12067
0.10650000 0.10649700 17024.69591790 0 260.23174298 0 7258.57325811 0 692.12438102 0 2366.55441744 0 12054
0.10750000 0.10749900 17070.09244966 0 247.48528265 0 7266.96608032 0 353.80063833 0 1562.57076771 0 12807
0.10850000 0.10850100 16428.22977992 0 333.08874752 0 7055.97185858 0 -70.63534256 0 1217.35782451 0 12736
0.10950000 0.10950300 15886.79309629 0 670.37833507 0 6623.18789839 0 -207.21080835 0 616.27231262 0 12933
0.11050000 0.11050200 15398.17140204 0 584.23786245 0 6284.60727776 0 136.19070250 0 292.75116097 0 13428
0.11150000 0.11150900 15133.09994588 0 -22.18517435 0 5954.72950444 0 450.90935591 0 -258.50003138 0 13453
0.11250000 0.11250000 14913.64646798 0 295.81708771 0 5326.56330051 0 969.43518503 0 466.70292004 0 13668
0.11350000 0.11349100 14817.64941180 0 -82.10660325 0 4731.74693892 0 1106.84716496 0 -433.08402019 0 13791
0.11450000 0.11448600 14841.34418691 0 -36.41078655 0 4186.00312094 0 915.41441947 0 134.43020286 0 14205
0.11550000 0.11549300 14836.69381049 0 126.81576508 0 4031.04593510 0 269.52806690 0 691.78556788 0 14776
0.11650000 0.11649800 14455.03077399 0 310.06163359 0 4106.32667154 0 555.75430685 0 1160.71181074 0 14553
0.11750000 0.11747300 14226.16581999 0 319.19408710 0 4183.06895486 0 584.05738356 0 1742.31888881 0 14568
0.11850000 0.11849100 14058.64154548 0 193.79447237 0 3629.76273902 0 734.59006840 0 1062.62540687 0 16015
0.11950000 0.11950300 13727.46831016 0 164.57903610 0 3648.40853402 0 360.83820798 0 1170.05685289 0 15270
0.12050000 0.12050700 13803.20301192 0 -24.43562437 0 3331.15321099 0 434.30529762 0 1657.33879583 0 15999
0.12150000 0.12150000 13569.57695824 0 32.73355675 0 3322.94861830 0 -32.87627902 0 1457.19545241 0 15670
0.12250000 0.12250700 13703.88425829 0 286.39786099 0 3107.00506736 0 -158.99304823 0 911.37966431 0 16887
0.12350000 0.12352200 13345.36238067 0 308.20591195 0 3131.53026683 0 -239.37148302 0 1346.91509721 0 16407
0.12450000 0.12449800 13143.95679222 0 266.04471351 0 3646.64803437 0 -718.36136191 0 1005.82216608 0 16306
0.12550000 0.12549900 13325.87508899 0 165.88114150 0 4171.39872450 0 -570.43510233 0 569.21493214 0 17523
0.12650000 0.12650100 13119.70840086 0 293.17744548 0 4425.89611046 0 -681.20596152 0 726.38658294 0 17154
0.12750000 0.12750600 13014.96420808 0 298.60952803 0 4693.73564782 0 -288.53592691 0 954.17419973 0 18007
0.12850000 0.12850300 12843.56461989 0 -63.18555026 0 5290.97684854 0 326.04896340 0 1035.26901394 0 17496
0.12950000 0.12949900 12892.39357234 0 -2.25173441 0 4934.34833846 0 647.23939067 0 528.07792374 0 18405
0.13050000 0.13049000 12722.43338637 0 176.89256854 0 4749.99413022 0 845.52811968 0 578.30309635 0 18100
0.13150000 0.13148800 12602.18793884 0 191.97971833 0 4400.83943939 0 474.31292888 0 657.17237326 0 19059
0.13250000 0.13249300 12472.19884547 0 3.65527338 0 3880.59518546 0 499.28102135 0 1158.88487714 0 18957
0.13350000 0.13349100 12564.54203446 0 -191.73280549 0 3677.53982062 0 342.29649284 0 810.09114410 0 19468
0.13450000 0.13450700 12746.01743823 0 38.04495097 0 3464.99547340 0 205.22221882 0 414.71060438 0 19953
0.13550000 0.13551000 12444.07514043 0 203.16498086 0 3455.37362313 0 -393.84370103 0 -178.76932759 0 19956
0.13650000 0.13649900 12364.90801798 0 492.12276335 0 3502.40885896 0 -339.66017230 0 -536.29469599 0 19723
0.13750000 0.13749600 11871.52522406 0 483.85727288 0 3690.32835578 0 -457.23940401 0 131.13065006 0 20946
0.13850000 0.13851100 11759.36257364 0 143.92250692 0 3966.27283491 0 -62.49264417 0 -198.67072422 0 20955
0.13950000 0.13949800 11597.81735454 0 22.23411402 0 3535.47082087 0 316.14366162 0 -179.21664951 0 20506
0.14050000 0.14048300 11627.82335480 0 42.02556247 0 3762.49776895 0 294.97669826 0 -738.01141676 0 21447
0.14150000 0.14148400 11508.24224676 0 112.10618156 0 3577.55672750 0 41.95647116 0 -348.65090005 0 21771
0.14250000 0.14249400 11289.34238509 0 307.51610612 0 3762.70814312 0 128.14555129 0 -275.02436894 0 22470
0.14350000 0.14350900 10984.37734261 0 293.42878725 0 3299.18740924 0 233.82424829 0 78.21700626 0 22519
0.14450000 0.14449900 11066.62257136 0 -67.42082522 0 3421.51445383 0 526.96294063 0 314.17389503 0 22218
0.14550000 0.14550500 10900.68163931 0 -48.81799085 0 3027.73829398 0 347.26575222 0 -34.66290935 0 23559
0.14650000 0.14650700 10933.46679310 0 129.22953189 0 3105.70960536 0 185.00747539 0 17.01306998 0 23044
0.14750000 0.14750500 10859.59224191 0 262.50821296 0 2997.49977490 0 -94.82283613 0 -44.39304696 0 23649
0.14850000 0.14849900 10538.87128121 0 209.82276978 0 2770.49497147 0 -355.62092853 0 244.59762034 0 23640
0.14950000 0.14949500 10595.79410310 0 352.99014415 0 3268.98210713 0 -119.98746236 0 201.88723458 0 24457
0.15050000 0.15050000 10174.14890168 0 288.30783702 0 3306.24048015 0 -135.12443762 0 153.96621277 0 24591
0.15150000 0.15149900 10105.10188411 0 229.07311371 0 3317.33494962 0 188.42328760 0 401.27323099 0 25020
0.15250000 0.15250500 9770.05333510 0 120.97954267 0 3223.78487722 0 322.37627326 0 709.40163667 0 25297
0.15350000 0.15350100 9868.84061713 0 -111.62674989 0 3080.86330846 0 546.12138426 0 197.57456406 0 25452
0.15450000 0.15450400 9812.58213473 0 -24.38723831 0 2695.13672876 0 415.55985170 0 -132.64755856 0 26061
0.15550000 0.15549900 9693.93110197 0 103.17026181 0 2561.22803240 0 163.89144473 0 102.13012762 0 26128
0.15650000 0.15649500 9813.18004027 0 223.82483174 0 2168.29336924 0 23.95597125 0 423.82866387 0 26331
0.15750000 0.15749700 9579.10002128 0 -4.61345022 0 2192.82964103 0 239.27515380 0 327.26138297 0 27345
0.15850000 0.15849900 9492.13798215 0 50.96823633 0 2076.62559206 0 117.91472316 0 364.37249406 0 26980
0.15950000 0.15949700 9504.90437267 0 90.72685101 0 2189.68510079 0 182.74761390 0 21.28565868 0 27777
0.16050000 0.16050000 9412.92657040 0 215.76971544 0 2432.41260546 0 20.79947290 0 276.17146179 0 28224
0.16150000 0.16150500 9113.51983498 0 282.16158952 0 2545.16208909 0 -119.87231018 0 568.01801382 0 28075
0.16250000 0.16249700 8997.30471368 0 250.73058105 0 2467.43436886 0 -85.35909866 0 965.22880883 0 28590
0.16350000 0.16349900 8926.10966510 0 -13.10907897 0 2423.85369837 0 234.78200438 0 588.25268743 0 29163
0.16450000 0.16449100 9013.75818836 0 -107.69585313 0 2656.02927750 0 -29.27633405 0 549.61248828 0 28996
0.16550000 0.16550500 9006.29544144 0 -55.85489616 0 2560.77406708 0 -41.05662332 0 425.51719341 0 30777
0.16650000 0.16650700 9069.41876523 0 93.31556055 0 2632.04662194 0 -1.98348520 0 549.76971529 0 29211
0.16750000 0.16749900 8916.41030856 0 241.97015766 0 2680.93093601 0 -81.36818990 0 621.23382137 0 30922
0.16850000 0.16850800 8741.87725244 0 302.12499116 0 2701.12685648 0 128.55301284 0 598.63188472 0 30867
0.16950000 0.16949900 8590.89503121 0 228.83062979 0 2861.35446893 0 148.69135722 0 733.41308027 0 30852
0.17050000 0.17049200 8338.32422978 0 105.71302121 0 2608.25219590 0 279.85854595 0 992.34714678 0 31257
0.17150000 0.17149500 8353.34937456 0 39.95027662 0 2513.62810800 0 253.55402388 0 657.84999954 0 32608
0.17250000 0.17250900 8335.52293160 0 62.59550607 0 2473.51307519 0 113.97076106 0 449.83866210 0 32361
0.17350000 0.17350400 8237.65465253 0 164.24133020 0 2243.49659940 0 26.95967153 0 610.43055404 0 32508
0.17450000 0.17449800 8171.27606524 0 94.77876828 0 2091.68395382 0 -171.96095506 0 279.96373304 0 32791
0.17550000 0.17549800 8058.57087091 0 18.50141188 0 2053.07475717 0 5.22240594 0 370.30504570 0 33633
0.17650000 0.17650100 8022.09863296 0 149.65797118 0 2038.79145816 0 33.22893257 0 -4.91421885 0 33984
0.17750000 0.17750300 7998.13812205 0 53.76732004 0 2010.60131917 0 184.65648270 0 -52.51847253 0 34069
0.17850000 0.17849800 7849.92398203 0 113.89879094 0 1939.57235546 0 98.79558628 0 23.29849661 0 34536
