### header ###
fiducial parameters:
Omega_m = 0.31
Omega_nu = 0
Omega_de = 0.69
Omega_k = 0
H_0 = 100
w_de = -1
zeff = 0
beta = 0
fgrowth = 0
b_1 = 2
gamma = 0.55
Lx = 3500 Ly = 3500 Lz = 3500
nx = 700 ny = 700 nz = 700
xoffset = -685.467585 yoffset = -31.7331281 zoffset = 572.489161
bins = 400 dk = 0.001
kx_ny = 0.628318531 ky_ny = 0.628318531 kz_ny = 0.628318531
############################
A(data) = 8.05362905 (not used)
A(ran) = 8.05585515 (used)
Ngal = 478564
weighted Ngal = 0
Nran = 23820508
weighted Nran = 0
SN(data) = 3480.49773
SN(ran) = 70.16942
SN(data+ran) = 3550.66715
############################
13 columns: k_central k_mean P_0(k) sigma^{lin}_{P_0(k)} P^img_1(k) sigma^{lin}_{P_1(k)} P_2(k) sigma^{lin}_{P_2(k)} P^img_3(k) sigma^{lin}_{P_3(k)} P_4(k) sigma^{lin}_{P_4(k)} N_modes
### header ###
0.00050000 0 0 0 0 0 0 0 0 0 0 0 0
0.00150000 0.00179520 7481.08269767 0 -4452.85722139 0 -130.21275433 0 6099.63301934 0 -28912.60818269 0 3
0.00250000 0.00253879 18047.33583815 0 -6581.67775265 0 1722.75409086 0 473.81799596 0 20624.08726995 0 6
0.00350000 0.00331552 18349.72102895 0 -3470.02230886 0 4569.29378918 0 -15665.56804641 0 15776.73418759 0 7
0.00450000 0.00420575 19997.61513171 0 -1365.53874756 0 2701.40366460 0 -7496.29607197 0 4194.15235200 0 24
0.00550000 0.00557378 22487.33809043 0 -1494.46489775 0 10649.45058917 0 2424.76162901 0 13762.01396359 0 45
0.00650000 0.00659388 29594.55266827 0 -4616.65012243 0 13005.44200873 0 3441.44463851 0 23276.57340350 0 40
0.00750000 0.00754703 30408.36854244 0 -9182.87687764 0 12349.62820973 0 7516.94595775 0 5345.15373388 0 57
0.00850000 0.00846663 37091.51307973 0 -2959.62135170 0 13765.00349129 0 15146.60818216 0 21258.53148206 0 75
0.00950000 0.00948925 55453.85655897 0 -15572.44979469 0 19462.15750348 0 -4928.00389633 0 338.55183258 0 112
0.01050000 0.01054430 58959.57604305 0 -10125.04314111 0 14049.89440888 0 -8645.32658002 0 12026.75921801 0 105
0.01150000 0.01145670 77704.68979127 0 -8199.96445884 0 30218.47817180 0 -13121.92286583 0 -18764.82248640 0 144
0.01250000 0.01249090 81336.96594803 0 -601.13090843 0 24291.24124988 0 -10303.49580021 0 1138.19070206 0 169
0.01350000 0.01339930 85997.75035719 0 12676.92613136 0 26615.43295257 0 2345.32877076 0 -5141.96550113 0 180
0.01450000 0.01448870 75862.25494145 0 3033.15266082 0 27618.36413464 0 -3773.33757495 0 -3821.53540488 0 267
0.01550000 0.01550050 72373.36539110 0 2433.06587262 0 35432.21448241 0 24482.01740651 0 -9173.31038900 0 238
0.01650000 0.01653350 76932.50585842 0 -4920.81795753 0 20698.49329273 0 20496.97698103 0 -5402.60802736 0 315
0.01750000 0.01747870 76930.29139346 0 -6209.44833690 0 15084.16027019 0 10601.73994153 0 -5135.06744277 0 297
0.01850000 0.01844180 87077.96636650 0 2418.57219944 0 21931.39666129 0 5351.11064463 0 443.09118736 0 388
0.01950000 0.01947590 77710.11523044 0 5275.81883586 0 29670.95170952 0 -1987.47123262 0 29110.58135045 0 399
0.02050000 0.02045430 78371.57591510 0 6636.35289260 0 35864.92093632 0 2289.15886696 0 29460.46681472 0 462
0.02150000 0.02154770 71635.61638843 0 7611.99079400 0 38227.42288287 0 5446.06690227 0 25275.01731002 0 571
0.02250000 0.02255340 69961.37015260 0 4055.10609693 0 45894.34348030 0 11737.66081700 0 19655.03740182 0 510
0.02350000 0.02348930 65971.23645771 0 3125.92767048 0 47071.55305501 0 2254.41391167 0 26935.09097008 0 555
0.02450000 0.02439640 65149.78067941 0 -1387.24050420 0 45275.73269268 0 10959.54211804 0 24721.95468533 0 592
0.02550000 0.02547300 70300.18329205 0 -6406.24783822 0 37839.00572823 0 5792.07705286 0 12056.87594152 0 837
0.02650000 0.02652900 72990.64749974 0 -3192.62735518 0 31932.25260723 0 -1.21938406 0 1828.05189988 0 723
0.02750000 0.02749970 73783.42595675 0 6612.84634701 0 32135.20832116 0 415.00623546 0 -4484.43549177 0 826
0.02850000 0.02848090 69363.24316590 0 3863.00126133 0 19437.68766563 0 -2608.45149775 0 -8173.12514348 0 831
0.02950000 0.02946900 62720.40189095 0 5539.67233629 0 18695.62045628 0 -134.56307075 0 -12206.13088008 0 996
0.03050000 0.03053250 62153.94175323 0 3457.93133016 0 16398.99884240 0 4165.32001818 0 -18448.48616633 0 1041
0.03150000 0.03150510 57996.72667682 0 -282.78496140 0 13309.26660176 0 9579.56505892 0 -14717.99848843 0 1036
0.03250000 0.03246190 59159.43150603 0 1191.54823536 0 11964.86492228 0 7210.27577725 0 -20654.97905619 0 1059
0.03350000 0.03345080 55459.50344463 0 3129.76976719 0 13179.16678514 0 -961.09550998 0 -14158.40319210 0 1302
0.03450000 0.03451200 53771.19535628 0 3033.10837152 0 13956.77615715 0 -2123.50581534 0 -13806.19253962 0 1339
0.03550000 0.03553350 49411.57818219 0 504.82382715 0 16300.23370502 0 -172.81020237 0 1185.15950394 0 1365
0.03650000 0.03647120 49211.50127271 0 1056.30975279 0 20898.68092545 0 163.94569912 0 344.50431441 0 1308
0.03750000 0.03744890 53908.71363053 0 -1078.33814302 0 24265.99634930 0 6004.39995358 0 3675.00425823 0 1579
0.03850000 0.03847530 50918.63231325 0 1998.21138770 0 22001.92737038 0 5316.13317053 0 5194.71405657 0 1662
0.03950000 0.03950240 49866.98290198 0 2645.42199032 0 18369.20832063 0 6282.18243863 0 9894.67235094 0 1683
0.04050000 0.04050350 46785.77635145 0 1100.43407443 0 17666.44786439 0 6030.86280990 0 13371.38234399 0 1822
0.04150000 0.04152450 47348.80406847 0 -873.93195454 0 15055.59367215 0 4888.09923769 0 8025.36496878 0 1887
0.04250000 0.04250150 47899.54150495 0 684.34164390 0 17836.40805036 0 2886.17862118 0 9182.26789978 0 1920
0.04350000 0.04349210 45468.28042127 0 2451.27984695 0 12865.15565328 0 -859.09282482 0 6198.08813163 0 2005
0.04450000 0.04448520 44802.39080668 0 2741.23081698 0 13747.84138782 0 -1718.98950042 0 8888.85129208 0 2151
0.04550000 0.04548030 41260.35409720 0 2224.87294906 0 14811.11674016 0 -1348.95240498 0 6271.07689684 0 2274
0.04650000 0.04648670 40287.09674564 0 52.11167531 0 14186.19472739 0 1618.16491062 0 1602.07682266 0 2311
0.04750000 0.04749250 41174.65430310 0 -1820.88810573 0 14726.52417854 0 -657.41928611 0 -1002.82267329 0 2568
0.04850000 0.04851840 40954.86865545 0 1015.21592646 0 13887.90629678 0 -517.19825737 0 -4266.79787514 0 2493
0.04950000 0.04949480 38620.82258368 0 3269.58001267 0 12208.23462179 0 -719.92809587 0 -3764.97796971 0 2644
0.05050000 0.05050630 37379.83641801 0 1557.44428132 0 10716.37172038 0 -1851.25949270 0 -3003.54526425 0 2829
0.05150000 0.05149060 37099.48515360 0 -36.18158943 0 11266.42267272 0 3592.93618668 0 -1287.85531663 0 2784
0.05250000 0.05249300 36999.50206048 0 -450.47421355 0 10566.21992351 0 3124.62113615 0 -4240.60075462 0 3055
0.05350000 0.05348950 37561.64399153 0 -419.03877616 0 8478.93168265 0 3779.88131891 0 -1765.42683071 0 3009
0.05450000 0.05448610 37175.55202510 0 1418.81877459 0 8124.59514380 0 -282.14387380 0 -2892.87737769 0 3336
0.05550000 0.05550870 36334.94112487 0 1295.49522076 0 9159.91287597 0 257.22449956 0 1038.12235204 0 3349
0.05650000 0.05647670 35198.25625899 0 1127.01872632 0 12191.95830431 0 133.80129481 0 2550.73146847 0 3324
0.05750000 0.05747970 33848.42914035 0 1051.73023925 0 10218.41605631 0 -376.26749261 0 2445.13470668 0 3639
0.05850000 0.05849280 33472.52371275 0 1453.55265754 0 12712.46829403 0 2012.62755461 0 2068.63137354 0 3846
0.05950000 0.05951020 32494.94815452 0 564.55680509 0 11071.05150129 0 -1114.72844577 0 40.41188185 0 3787
0.06050000 0.06049470 31525.12322365 0 -283.49359019 0 11994.76019929 0 525.09836113 0 1627.35494022 0 3930
0.06150000 0.06148310 32312.25479501 0 631.92525821 0 11913.48933512 0 -638.09143590 0 159.42043997 0 4083
0.06250000 0.06249100 32147.83077145 0 -51.49860069 0 11227.33736611 0 166.00625877 0 -401.01967475 0 4303
0.06350000 0.06350600 32689.48890158 0 -1058.56407812 0 11981.69485600 0 463.34911285 0 -994.14639956 0 4470
0.06450000 0.06451750 32900.85958237 0 -380.85807848 0 12141.46850313 0 -929.37108491 0 -1462.05620300 0 4479
0.06550000 0.06550280 33639.93726401 0 378.98907006 0 13715.06730636 0 -1757.52119079 0 -4591.11734140 0 4636
0.06650000 0.06648880 32505.46686309 0 2071.86449239 0 13821.36162462 0 -1880.78938299 0 -2339.83689765 0 4653
0.06750000 0.06749660 31034.95140393 0 1983.28589384 0 15604.89170641 0 -292.56071699 0 -989.99538499 0 5220
0.06850000 0.06852730 30412.24385613 0 190.62446578 0 14270.23367277 0 257.04069897 0 -680.83503863 0 5029
0.06950000 0.06949320 30757.70039047 0 -300.74980842 0 15121.80617457 0 3731.34024691 0 -1707.14211286 0 5040
0.07050000 0.07048030 30512.22694924 0 -386.18497395 0 14037.27195858 0 1254.18437686 0 -2540.47849569 0 5475
0.07150000 0.07148790 31127.29459292 0 544.25901923 0 14382.83921617 0 1655.16862016 0 -2115.53374147 0 5509
0.07250000 0.07249820 30161.67714548 0 624.55994774 0 13156.35779601 0 339.40661606 0 -2168.99092570 0 5916
0.07350000 0.07351270 29521.91821746 0 1105.03462539 0 12323.38679991 0 1057.78680092 0 -413.40960622 0 5721
0.07450000 0.07449140 28516.99401692 0 717.93729187 0 12167.70991295 0 2951.95930292 0 151.74178271 0 6028
0.07550000 0.07549160 27690.11279946 0 674.59689083 0 10832.98544537 0 2421.52851016 0 174.39686652 0 6183
0.07650000 0.07648840 27030.97730301 0 948.75761843 0 9487.13329134 0 1018.00061615 0 -396.29511375 0 6330
0.07750000 0.07749960 26253.14648450 0 1049.67300129 0 10235.98783579 0 637.70279730 0 918.26665035 0 6583
0.07850000 0.07848650 25644.05789623 0 556.13630206 0 10292.24631820 0 -229.37760264 0 4547.63632184 0 6549
0.07950000 0.07947320 24667.70029372 0 721.40071507 0 10734.24245263 0 142.59714964 0 5178.19414794 0 6828
0.08050000 0.08048110 25432.57649219 0 123.06446143 0 11685.73161360 0 1241.25190147 0 5077.18132862 0 7147
0.08150000 0.08149960 24349.37095518 0 346.86271959 0 11202.09246552 0 522.66134244 0 5770.87355083 0 7386
0.08250000 0.08250610 24298.65970751 0 884.13620909 0 12097.40065036 0 92.04877587 0 6161.35015788 0 7227
0.08350000 0.08350160 23423.83532359 0 441.01734092 0 11110.96723226 0 667.99446354 0 5756.62346879 0 7798
0.08450000 0.08449610 23115.36035414 0 557.82040267 0 11303.62568411 0 1638.95873663 0 4054.62998696 0 7371
0.08550000 0.08548940 22859.14675784 0 67.68113558 0 10807.76268943 0 473.79806578 0 3186.93618023 0 8256
0.08650000 0.08650700 22327.45372005 0 451.42643348 0 9877.08949912 0 -126.70836353 0 2089.40305490 0 8037
0.08750000 0.08749060 22239.09656800 0 158.52358166 0 9560.50958791 0 -318.54524887 0 3041.75585720 0 8155
0.08850000 0.08849210 22021.85755505 0 229.94450567 0 9742.27287213 0 -54.84731461 0 2428.45978550 0 8718
0.08950000 0.08949900 22048.87402761 0 285.31055869 0 9905.44572298 0 149.19625523 0 1919.43179661 0 8571
0.09050000 0.09049190 21734.08783302 0 523.88483433 0 10403.20208521 0 229.13954766 0 1552.55031375 0 8932
0.09150000 0.09150830 20931.89789991 0 627.12540540 0 9830.77396441 0 223.41072680 0 1394.83611903 0 9285
0.09250000 0.09250820 20610.91120341 0 408.69501031 0 9962.22460465 0 1199.94105757 0 1738.58751535 0 9204
0.09350000 0.09350330 20100.36630603 0 370.77561950 0 9339.31775501 0 868.36257516 0 1332.37713473 0 9349
0.09450000 0.09448040 19834.63051038 0 619.37477803 0 8692.04071843 0 1096.43475070 0 615.43524486 0 9564
0.09550000 0.09549270 19333.27564259 0 270.05621679 0 7695.56470173 0 821.33287549 0 1511.63807354 0 10155
0.09650000 0.09649430 18748.54616892 0 387.62548341 0 6676.84438446 0 1229.58167111 0 1139.34222384 0 9913
0.09750000 0.09749140 18757.51475202 0 146.90871293 0 6437.43857724 0 789.18659484 0 826.87346683 0 10476
0.09850000 0.09850240 18240.21573649 0 594.59159339 0 6433.29752775 0 296.93096359 0 382.87656330 0 10575
0.09950000 0.09950330 17367.71654078 0 852.55461701 0 6700.41736400 0 -349.56436685 0 445.62564251 0 10882
0.10050000 0.10051200 17273.04816358 0 351.63378436 0 6913.53747211 0 241.33460621 0 1573.32199511 0 10875
0.10150000 0.10150300 16865.25444051 0 -226.10462342 0 6454.03599214 0 361.37521573 0 1173.03530826 0 11118
0.10250000 0.10250800 17486.63330934 0 -232.64172400 0 6837.07199692 0 596.66322536 0 1304.46380386 0 11575
0.10350000 0.10349800 17577.09420310 0 -213.39913069 0 6617.34171089 0 337.00724327 0 880.77575851 0 11364
0.10450000 0.10450100 17508.44578923 0 380.75510586 0 6579.74009581 0 183.97553472 0 1328.08107270 0 12093
0.10550000 0.10551000 17196.87056883 0 636.09952467 0 6036.52076788 0 -658.83432922 0 373.65220949 0 12067
0.10650000 0.10649700 16640.92913969 0 634.98564879 0 6411.03108254 0 -75.88904997 0 869.06234609 0 12054
0.10750000 0.10749900 16179.87753424 0 521.91838944 0 6517.53577497 0 -18.92880362 0 -31.31087374 0 12807
0.10850000 0.10850100 15637.99795762 0 345.84628018 0 5966.02327576 0 425.96230087 0 -504.63227593 0 12736
0.10950000 0.10950300 15577.98595710 0 189.58256001 0 6073.34732022 0 631.75585164 0 -678.97820976 0 12933
0.11050000 0.11050200 15252.01671444 0 61.75954554 0 5302.56957262 0 438.06988805 0 -860.83671598 0 13428
0.11150000 0.11150900 15104.09045486 0 209.65114874 0 5232.82499859 0 247.52957195 0 -526.16351878 0 13453
0.11250000 0.11250000 15029.35226233 0 -23.61250774 0 5201.18029426 0 481.18330643 0 -1096.22105483 0 13668
0.11350000 0.11349100 14516.15000699 0 418.68446176 0 5230.64375060 0 38.46857812 0 -1017.82678065 0 13791
0.11450000 0.11448600 14801.48381757 0 397.33369781 0 5386.02168478 0 -196.50054856 0 -773.39524519 0 14205
0.11550000 0.11549300 14282.96684631 0 38.11758542 0 5439.50101366 0 -277.60975678 0 -347.02769723 0 14776
0.11650000 0.11649800 14487.47268571 0 294.22599464 0 5874.48836648 0 -394.84021027 0 -387.52472526 0 14553
0.11750000 0.11747300 14214.87204867 0 -45.90065471 0 5947.86466305 0 541.44997042 0 22.42865477 0 14568
0.11850000 0.11849100 14201.25308915 0 106.93352357 0 5528.02425058 0 901.66148482 0 319.92486054 0 16015
0.11950000 0.11950300 14273.33392372 0 272.77890146 0 5262.59848003 0 796.52090280 0 -24.06337281 0 15270
0.12050000 0.12050700 14025.09240128 0 122.99359855 0 4824.32264673 0 523.28028539 0 234.62588460 0 15999
0.12150000 0.12150000 13933.19210529 0 100.47802603 0 4591.05090745 0 531.25568096 0 6.59360265 0 15670
0.12250000 0.12250700 13604.01188843 0 243.01317065 0 4617.08194310 0 -423.60500291 0 -332.43215866 0 16887
0.12350000 0.12352200 13587.95701744 0 441.42590971 0 4263.06650168 0 -112.33759315 0 5.80174319 0 16407
0.12450000 0.12449800 13073.75825286 0 157.80609501 0 4061.97093832 0 7.38823018 0 -80.32606269 0 16306
0.12550000 0.12549900 13394.63422611 0 -305.39354145 0 4224.84483640 0 50.05919846 0 -504.44847534 0 17523
0.12650000 0.12650100 13148.82861514 0 56.61080378 0 4207.88203478 0 719.12756679 0 -1161.25435465 0 17154
0.12750000 0.12750600 13349.01624786 0 156.41098209 0 4028.61002364 0 -184.46271701 0 -902.41329567 0 18007
0.12850000 0.12850300 13001.56669505 0 263.98304663 0 3937.32977784 0 -70.57931660 0 -500.35614409 0 17496
0.12950000 0.12949900 13133.88097663 0 -40.16042935 0 4243.36883582 0 251.93303553 0 -387.77163810 0 18405
0.13050000 0.13049000 13035.78017874 0 -13.89167089 0 4045.65033154 0 43.37450380 0 -190.10628097 0 18100
0.13150000 0.13148800 13163.88697689 0 247.04238966 0 4405.88841951 0 131.20815633 0 -102.50902257 0 19059
0.13250000 0.13249300 13020.50037049 0 129.15977624 0 4451.07457710 0 -219.20767229 0 712.25608200 0 18957
0.13350000 0.13349100 12798.72170437 0 167.04041391 0 4622.00912765 0 258.82112880 0 570.51814477 0 19468
0.13450000 0.13450700 12682.01940078 0 254.88713179 0 4489.28517004 0 347.48830595 0 660.58707824 0 19953
0.13550000 0.13551000 12356.16088137 0 297.30077924 0 4572.89229475 0 673.47415709 0 635.28792326 0 19956
0.13650000 0.13649900 12234.03313862 0 375.16690353 0 4185.06197333 0 418.56155896 0 841.77903050 0 19723
0.13750000 0.13749600 11938.51278921 0 36.35885735 0 3896.72756273 0 630.93207068 0 1072.73111773 0 20946
0.13850000 0.13851100 11856.24541581 0 -35.72242012 0 3482.30151709 0 249.80825640 0 713.59472607 0 20955
0.13950000 0.13949800 11889.35166701 0 101.77105212 0 3342.01516164 0 -120.43699875 0 446.17593705 0 20506
0.14050000 0.14048300 11765.67379879 0 361.13383905 0 3695.66521634 0 -324.01829903 0 392.94019933 0 21447
0.14150000 0.14148400 11459.41329431 0 291.66275144 0 3587.28930102 0 -141.05588203 0 507.88089604 0 21771
0.14250000 0.14249400 11145.62360895 0 261.06216734 0 3821.36932001 0 117.36221415 0 313.72325141 0 22470
0.14350000 0.14350900 11151.82411084 0 112.94435655 0 4048.05302602 0 128.54969114 0 130.73315360 0 22519
0.14450000 0.14449900 10997.05515453 0 59.80671961 0 3742.37935475 0 317.02501867 0 879.43489998 0 22218
0.14550000 0.14550500 11087.82607339 0 73.47162929 0 3627.76972056 0 324.21095748 0 678.58624946 0 23559
0.14650000 0.14650700 10966.71698453 0 -29.06728856 0 3303.10701222 0 509.37123096 0 916.58365697 0 23044
0.14750000 0.14750500 10955.68894901 0 190.30115389 0 3605.44791372 0 102.18548924 0 890.95897565 0 23649
0.14850000 0.14849900 10783.90182945 0 380.46611819 0 3341.59441329 0 58.80445277 0 955.31354196 0 23640
0.14950000 0.14949500 10356.02290915 0 408.50899525 0 3313.50392523 0 130.12639020 0 1184.22942865 0 24457
0.15050000 0.15050000 10196.72537199 0 238.96955763 0 3296.24217084 0 228.45638522 0 1251.59345285 0 24591
0.15150000 0.15149900 9993.90252596 0 -83.37006623 0 3243.38289215 0 221.91817741 0 1343.99200346 0 25020
0.15250000 0.15250500 10121.77680529 0 -34.99563271 0 3175.85278308 0 320.47515509 0 1284.60005313 0 25297
0.15350000 0.15350100 10133.75706074 0 97.78468302 0 3170.08410185 0 -71.84532622 0 1086.94798280 0 25452
0.15450000 0.15450400 9914.00463007 0 284.89313205 0 3380.52470736 0 -330.81892093 0 594.69899494 0 26061
0.15550000 0.15549900 9817.89685064 0 437.81301012 0 3781.17678092 0 -713.38324467 0 906.37940242 0 26128
0.15650000 0.15649500 9483.28012230 0 305.96265895 0 3809.77659592 0 -259.81099464 0 686.26933565 0 26331
0.15750000 0.15749700 9348.30848276 0 -51.42231237 0 3957.39283041 0 -10.99616937 0 848.34934805 0 27345
0.15850000 0.15849900 9506.33270257 0 -18.17909650 0 3883.51827922 0 288.78394699 0 -51.07475209 0 26980
0.15950000 0.15949700 9381.31508304 0 127.21990493 0 3675.71288702 0 328.64985250 0 270.21012211 0 27777
0.16050000 0.16050000 9262.49796541 0 67.77569323 0 3233.46208911 0 365.21509798 0 83.25923226 0 28224
0.16150000 0.16150500 9229.95640277 0 48.98285777 0 2935.58333452 0 227.95259444 0 160.72918876 0 28075
0.16250000 0.16249700 9041.48328971 0 92.45767683 0 2963.39701446 0 481.91740157 0 -119.92213565 0 28590
0.16350000 0.16349900 9055.01367064 0 106.73599330 0 2745.58224063 0 263.54015364 0 188.73663439 0 29163
0.16450000 0.16449100 8892.37229138 0 173.70706068 0 2710.78192373 0 211.89550898 0 22.71110978 0 28996
0.16550000 0.16550500 8824.88647161 0 79.21606213 0 2689.96595307 0 -52.56752293 0 255.90467844 0 30777
0.16650000 0.16650700 8793.41892447 0 -2.25903107 0 2962.51122848 0 -32.77197772 0 457.43427693 0 29211
0.16750000 0.16749900 8733.27405606 0 84.78998117 0 2863.97860992 0 102.16932365 0 604.34520432 0 30922
0.16850000 0.16850800 8753.81321860 0 90.56220554 0 2898.40246778 0 56.86779244 0 805.71314687 0 30867
0.16950000 0.16949900 8524.97040924 0 194.56399895 0 2839.53091672 0 196.87147144 0 790.09231101 0 30852
0.17050000 0.17049200 8550.28174378 0 142.92046153 0 2621.30646687 0 220.24404190 0 787.12714243 0 31257
0.17150000 0.17149500 8353.02827714 0 174.43672689 0 2592.13089097 0 79.06813587 0 810.00477997 0 32608
0.17250000 0.17250900 8221.87658966 0 223.36090133 0 2391.74395640 0 83.24672053 0 650.97630030 0 32361
0.17350000 0.17350400 7986.52325331 0 69.81410823 0 2554.30782939 0 177.60894795 0 720.73526835 0 32508
0.17450000 0.17449800 8099.20630299 0 55.13408782 0 2291.31797030 0 230.80150361 0 414.05290829 0 32791
0.17550000 0.17549800 8042.25026413 0 -74.28046262 0 2225.94696457 0 201.08338380 0 327.68877471 0 33633
0.17650000 0.17650100 8019.69593847 0 86.63352325 0 2373.64070532 0 -67.98905693 0 520.93848870 0 33984
0.17750000 0.17750300 7982.99118170 0 180.67819639 0 2282.20544697 0 -136.95912184 0 518.50147000 0 34069
0.17850000 0.17849800 7895.08799496 0 202.60582846 0 2440.86078930 0 -136.60259299 0 428.79792325 0 34536
