### header ###
fiducial parameters:
Omega_m = 0.31
Omega_nu = 0
Omega_de = 0.69
Omega_k = 0
H_0 = 100
w_de = -1
zeff = 0
beta = 0
fgrowth = 0
b_1 = 2
gamma = 0.55
Lx = 3500 Ly = 3500 Lz = 3500
nx = 700 ny = 700 nz = 700
xoffset = -685.467585 yoffset = -31.7331281 zoffset = 572.489161
bins = 400 dk = 0.001
kx_ny = 0.628318531 ky_ny = 0.628318531 kz_ny = 0.628318531
############################
A(data) = 8.04135372 (not used)
A(ran) = 8.03751227 (used)
Ngal = 477940
weighted Ngal = 0
Nran = 23820508
weighted Nran = 0
SN(data) = 3485.70506
SN(ran) = 70.0096468
SN(data+ran) = 3555.71471
############################
13 columns: k_central k_mean P_0(k) sigma^{lin}_{P_0(k)} P^img_1(k) sigma^{lin}_{P_1(k)} P_2(k) sigma^{lin}_{P_2(k)} P^img_3(k) sigma^{lin}_{P_3(k)} P_4(k) sigma^{lin}_{P_4(k)} N_modes
### header ###
0.00050000 0 0 0 0 0 0 0 0 0 0 0 0
0.00150000 0.00179520 21988.64058060 0 -9923.74827591 0 24024.84111475 0 10808.88099424 0 -10904.85590576 0 3
0.00250000 0.00253879 34292.65081207 0 -185.85672271 0 15726.02293992 0 -14922.28288134 0 -13060.80363283 0 6
0.00350000 0.00331552 32772.75278421 0 1744.01295451 0 868.56630593 0 -7976.95676467 0 17668.55160611 0 7
0.00450000 0.00420575 25059.66059230 0 -1400.30584749 0 -5382.84392756 0 3071.42968772 0 15086.26401190 0 24
0.00550000 0.00557378 44273.13368035 0 -18417.59438009 0 1081.07190002 0 -1452.73330551 0 -24218.16390608 0 45
0.00650000 0.00659388 45640.56579545 0 -7456.72358307 0 23083.47205867 0 -17978.24453128 0 89.79478271 0 40
0.00750000 0.00754703 60610.90256650 0 17168.19324755 0 -614.49188279 0 -14002.50485865 0 -2353.27869998 0 57
0.00850000 0.00846663 47300.30728577 0 4041.67536693 0 20899.45598819 0 -37666.16673782 0 17593.59196708 0 75
0.00950000 0.00948925 51605.33789851 0 -8692.83792582 0 20644.46034761 0 5962.74586761 0 7759.23056944 0 112
0.01050000 0.01054430 66242.50841576 0 -25276.67815874 0 21190.43668442 0 14498.76645702 0 -8795.81054663 0 105
0.01150000 0.01145670 82439.32660698 0 -11354.89054802 0 42276.35062256 0 -303.86556063 0 -38084.70061596 0 144
0.01250000 0.01249090 85300.19389362 0 7713.95583325 0 32427.18552662 0 -9830.02104632 0 -8021.56716136 0 169
0.01350000 0.01339930 78734.19455291 0 19024.02561041 0 41078.76797017 0 -9385.65543437 0 -211.70506500 0 180
0.01450000 0.01448870 77080.09994825 0 864.57141114 0 33441.52120326 0 7734.12960907 0 -3981.07653319 0 267
0.01550000 0.01550050 79208.97584114 0 -9181.94680236 0 39424.78408876 0 13319.56386384 0 2942.45924823 0 238
0.01650000 0.01653350 83141.31200048 0 -4956.99124271 0 23254.09658412 0 -1328.64576126 0 -34348.12315941 0 315
0.01750000 0.01747870 81519.21641455 0 6407.79796370 0 28311.60239153 0 -2293.86460500 0 -28884.04158466 0 297
0.01850000 0.01844180 81407.82882687 0 7993.35487773 0 29189.08413341 0 -14979.74824715 0 -37888.72046667 0 388
0.01950000 0.01947590 70624.27023949 0 4904.85166514 0 21903.82657249 0 -4016.48582796 0 -20704.91524112 0 399
0.02050000 0.02045430 74073.41014375 0 -5315.18095059 0 26111.86361981 0 -1640.57529605 0 -25490.04185800 0 462
0.02150000 0.02154770 73035.82258500 0 1098.36908585 0 26619.64043600 0 11052.27283840 0 -30361.53260846 0 571
0.02250000 0.02255340 77341.18536748 0 6220.17741964 0 18815.20156433 0 11082.73280398 0 -23163.85713685 0 510
0.02350000 0.02348930 60584.99332643 0 9655.56549648 0 18701.26734194 0 -1099.85277737 0 -1928.82112806 0 555
0.02450000 0.02439640 61111.26092506 0 6030.30919365 0 16094.39918664 0 3916.40308393 0 -1792.80868999 0 592
0.02550000 0.02547300 57741.28814326 0 -2815.68112906 0 23498.35206962 0 2242.24542670 0 -1597.84719458 0 837
0.02650000 0.02652900 60517.67359153 0 -860.94301030 0 21329.28363765 0 -3068.56195559 0 496.27267070 0 723
0.02750000 0.02749970 62564.17138776 0 -11.43217538 0 24420.12311077 0 -2739.21565386 0 -4580.90865792 0 826
0.02850000 0.02848090 62136.89037301 0 -88.92948052 0 28315.03481223 0 -381.89001916 0 3388.51892587 0 831
0.02950000 0.02946900 65350.96482137 0 -4717.04289156 0 24119.06659895 0 4979.51235139 0 176.22490735 0 996
0.03050000 0.03053250 67257.95132488 0 -1285.44154982 0 25726.65743937 0 10356.95298444 0 -7123.51303997 0 1041
0.03150000 0.03150510 67407.42770993 0 2657.61261995 0 22791.82702294 0 4615.28822648 0 -7254.95260790 0 1036
0.03250000 0.03246190 63033.08434383 0 5533.05108605 0 13277.48902953 0 6326.42744860 0 1651.47046368 0 1059
0.03350000 0.03345080 56755.96195764 0 5933.01667547 0 14679.02390507 0 7686.24180423 0 -4094.61215188 0 1302
0.03450000 0.03451200 51575.99623774 0 4637.32215287 0 10388.64197807 0 337.82548808 0 -3591.09818076 0 1339
0.03550000 0.03553350 47713.63717125 0 1738.06711608 0 8982.22420728 0 1273.31735414 0 -12648.13808684 0 1365
0.03650000 0.03647120 47183.05136594 0 -1168.31849789 0 8672.24340166 0 -2063.16164508 0 -7676.56459234 0 1308
0.03750000 0.03744890 47107.42738743 0 35.44838008 0 10435.14574231 0 -5424.05512053 0 -6720.71293540 0 1579
0.03850000 0.03847530 49946.15002443 0 945.14582608 0 13030.90835582 0 -4676.08636206 0 -10824.55940618 0 1662
0.03950000 0.03950240 49219.80551633 0 1532.90800952 0 16318.94593396 0 -4884.39000887 0 -6293.36548670 0 1683
0.04050000 0.04050350 48339.11280025 0 2243.66268428 0 20670.92320393 0 -5128.98873644 0 -4544.56928786 0 1822
0.04150000 0.04152450 48314.08934616 0 2026.54546691 0 21971.47847713 0 866.66075883 0 -1253.34288017 0 1887
0.04250000 0.04250150 47165.55709273 0 -1011.81340104 0 23841.15124601 0 3804.35115676 0 1635.85848568 0 1920
0.04350000 0.04349210 47338.50680639 0 1022.56573567 0 21597.01245176 0 5453.07568388 0 -703.89869123 0 2005
0.04450000 0.04448520 47202.09576463 0 1666.40702986 0 22887.82407912 0 2224.31933282 0 1100.45400461 0 2151
0.04550000 0.04548030 45200.99450015 0 3048.85321741 0 23524.37203294 0 183.77180395 0 2074.76544149 0 2274
0.04650000 0.04648670 43240.52866776 0 2866.34808743 0 23685.14218931 0 1865.91925076 0 4735.48938471 0 2311
0.04750000 0.04749250 39790.17080778 0 2738.73954389 0 23096.98029494 0 1579.56678630 0 8343.32892059 0 2568
0.04850000 0.04851840 38937.04818050 0 1604.06984113 0 24572.81047002 0 4906.52358619 0 6335.47353798 0 2493
0.04950000 0.04949480 37876.98380236 0 -86.30079989 0 23650.92870562 0 5988.44473352 0 8357.34648381 0 2644
0.05050000 0.05050630 37046.55944096 0 378.26161831 0 20089.07253471 0 4997.59345782 0 6950.10936099 0 2829
0.05150000 0.05149060 37655.09441300 0 -179.58535793 0 15552.96250301 0 3643.74708527 0 6541.42985193 0 2784
0.05250000 0.05249300 37543.04248583 0 -422.27078777 0 16890.27789460 0 -901.13001323 0 1177.77426328 0 3055
0.05350000 0.05348950 36526.04945124 0 807.68623515 0 15221.45709794 0 243.12943007 0 4183.70007738 0 3009
0.05450000 0.05448610 35759.06951105 0 2130.62532020 0 14903.23848265 0 -1112.46969150 0 356.80566728 0 3336
0.05550000 0.05550870 33743.35277782 0 1145.80846153 0 13610.21239033 0 -1490.05811247 0 1194.33846121 0 3349
0.05650000 0.05647670 35340.64635616 0 -518.39739015 0 14482.93303253 0 3711.81973825 0 -3358.14753890 0 3324
0.05750000 0.05747970 33482.26735859 0 -527.45455185 0 12677.14757786 0 1709.43408410 0 -3636.58329111 0 3639
0.05850000 0.05849280 34240.05726918 0 1121.12824951 0 12503.09063171 0 696.98845331 0 -2922.01973662 0 3846
0.05950000 0.05951020 32962.08953861 0 1517.47318872 0 14185.75183440 0 -1904.15198836 0 -693.40434177 0 3787
0.06050000 0.06049470 32354.32962932 0 1435.60441901 0 14228.38028495 0 -679.29930718 0 -1033.26049422 0 3930
0.06150000 0.06148310 32371.93462578 0 -501.47334166 0 16268.67757929 0 -703.28306997 0 -923.65001467 0 4083
0.06250000 0.06249100 33574.38910108 0 -781.30088511 0 16862.26491281 0 1084.05589155 0 1466.16403551 0 4303
0.06350000 0.06350600 33634.84399459 0 -79.68641449 0 18989.81212672 0 968.24712458 0 1068.26786360 0 4470
0.06450000 0.06451750 34176.28067823 0 884.39308703 0 17940.82007340 0 1240.68721290 0 5194.96872004 0 4479
0.06550000 0.06550280 33323.26877420 0 423.08792534 0 17969.71884117 0 2819.72252762 0 4106.14951435 0 4636
0.06650000 0.06648880 33275.32560773 0 161.03810663 0 16633.17851232 0 1158.18732068 0 5620.98748976 0 4653
0.06750000 0.06749660 32839.51890287 0 417.40671548 0 16886.62402741 0 3151.63760870 0 3937.77267083 0 5220
0.06850000 0.06852730 31892.94585413 0 1347.69015995 0 13622.17050113 0 1663.87146747 0 3151.09506479 0 5029
0.06950000 0.06949320 30813.39418431 0 1621.50875272 0 13115.50091743 0 1287.56743619 0 5147.30236169 0 5040
0.07050000 0.07048030 30150.27265092 0 102.36153921 0 11618.74404845 0 1350.32537326 0 4152.12180699 0 5475
0.07150000 0.07148790 28919.25157758 0 181.95594267 0 10825.02444382 0 1765.55969861 0 3896.26252508 0 5509
0.07250000 0.07249820 28929.88100941 0 556.67441705 0 10814.82683266 0 1809.68291301 0 2816.22367297 0 5916
0.07350000 0.07351270 28685.51480066 0 414.71614055 0 10141.60733904 0 1378.90304361 0 2670.39008279 0 5721
0.07450000 0.07449140 27616.92473241 0 38.68039169 0 9629.49017153 0 287.95130816 0 2927.06871673 0 6028
0.07550000 0.07549160 27810.69041674 0 248.30131299 0 8656.83072551 0 -11.11993582 0 2789.30685134 0 6183
0.07650000 0.07648840 27334.13755654 0 1126.71977355 0 10197.32327753 0 -948.35790751 0 1478.45431606 0 6330
0.07750000 0.07749960 26042.66158970 0 1327.30600996 0 8819.32816455 0 -429.54309071 0 1850.11904325 0 6583
0.07850000 0.07848650 25260.95545750 0 1073.46853456 0 9294.56341809 0 -516.44091035 0 193.72250226 0 6549
0.07950000 0.07947320 24037.02067205 0 1067.70871119 0 8810.85783606 0 -207.26063382 0 468.91406330 0 6828
0.08050000 0.08048110 23998.37825843 0 636.24235766 0 10473.21239503 0 166.13137604 0 -1794.18165826 0 7147
0.08150000 0.08149960 22922.70190230 0 413.70855899 0 9940.43426941 0 -191.49585774 0 -1053.86055454 0 7386
0.08250000 0.08250610 23000.42962253 0 203.06422271 0 10517.86708103 0 -70.94514621 0 -1261.01600127 0 7227
0.08350000 0.08350160 23108.60623600 0 -50.70903320 0 10990.56677219 0 -34.73764755 0 33.27831514 0 7798
0.08450000 0.08449610 23112.03865670 0 200.54416158 0 11103.88094438 0 1192.75511876 0 -418.56045172 0 7371
0.08550000 0.08548940 22625.52070417 0 477.87046685 0 10725.01920606 0 1429.59214663 0 204.34529069 0 8256
0.08650000 0.08650700 22126.38030134 0 674.22596795 0 9889.11404388 0 364.91060905 0 -1397.63741721 0 8037
0.08750000 0.08749060 21354.19636849 0 748.89440483 0 9433.03391227 0 997.23668542 0 206.59186540 0 8155
0.08850000 0.08849210 20604.26780852 0 672.18090956 0 7948.67804708 0 985.84658488 0 -526.41928948 0 8718
0.08950000 0.08949900 20179.86559822 0 158.64427000 0 6811.76066238 0 2146.90163769 0 31.13903126 0 8571
0.09050000 0.09049190 19913.68690958 0 -235.14739110 0 6130.33657607 0 1540.41504574 0 -1061.94224443 0 8932
0.09150000 0.09150830 20137.12642442 0 -368.75934916 0 5189.98617387 0 1059.17194876 0 -773.80381397 0 9285
0.09250000 0.09250820 20263.46165060 0 91.71106996 0 4917.65127263 0 131.45064025 0 -884.22589492 0 9204
0.09350000 0.09350330 19792.44495282 0 825.48499730 0 5169.64631318 0 -515.60827153 0 684.27299549 0 9349
0.09450000 0.09448040 19662.45585945 0 838.25360228 0 6118.24559736 0 -287.59699377 0 1564.78523267 0 9564
0.09550000 0.09549270 19101.86405388 0 294.66556593 0 6221.87148534 0 -360.35213292 0 869.51741864 0 10155
0.09650000 0.09649430 19093.44908702 0 142.54953865 0 7331.60631262 0 -247.63143734 0 1535.74252467 0 9913
0.09750000 0.09749140 18756.96113578 0 316.36732258 0 7089.49885813 0 -228.20615067 0 -124.46511052 0 10476
0.09850000 0.09850240 18428.33453516 0 363.70926181 0 7295.00120677 0 331.28949474 0 436.14662523 0 10575
0.09950000 0.09950330 17837.18311309 0 604.74934418 0 6707.71402606 0 588.10763997 0 342.19684192 0 10882
0.10050000 0.10051200 17614.18649125 0 309.66302990 0 5957.64152587 0 1210.99123774 0 564.00761777 0 10875
0.10150000 0.10150300 17192.66308540 0 294.64785021 0 5685.88238552 0 1050.64293695 0 327.31010120 0 11118
0.10250000 0.10250800 16759.73518499 0 344.49877824 0 5365.87005361 0 956.91570736 0 71.80159054 0 11575
0.10350000 0.10349800 16780.77260215 0 107.86238090 0 4935.98704253 0 -105.04923533 0 -328.17817146 0 11364
0.10450000 0.10450100 16516.14403898 0 256.86907793 0 5184.66038563 0 -238.14134773 0 700.21603600 0 12093
0.10550000 0.10551000 16336.21876068 0 392.93909209 0 5171.22965563 0 -93.17748866 0 884.58795995 0 12067
0.10650000 0.10649700 16251.51547582 0 366.97227593 0 5303.69894976 0 209.85155782 0 336.61085404 0 12054
0.10750000 0.10749900 15826.78109577 0 326.26487373 0 4978.80372260 0 41.01731657 0 604.86671082 0 12807
0.10850000 0.10850100 15671.87927156 0 107.20368830 0 5096.33645055 0 53.20905343 0 683.95411254 0 12736
0.10950000 0.10950300 15787.58506592 0 -11.06300192 0 5346.74814865 0 -100.01387418 0 181.74667574 0 12933
0.11050000 0.11050200 15424.41281186 0 81.88692832 0 5089.63769404 0 323.46246832 0 278.17887428 0 13428
0.11150000 0.11150900 15532.14653235 0 321.86916078 0 5165.09558768 0 -97.43136513 0 -215.93358585 0 13453
0.11250000 0.11250000 15202.85559224 0 414.46036984 0 5396.70647823 0 -158.06408018 0 -111.13070974 0 13668
0.11350000 0.11349100 15088.25703037 0 132.62762838 0 5096.56896937 0 -145.99413890 0 -515.14987728 0 13791
0.11450000 0.11448600 14838.13321272 0 298.06587689 0 5027.83197690 0 120.82453012 0 -470.86832863 0 14205
0.11550000 0.11549300 14777.89976570 0 196.81943151 0 4924.64898191 0 87.39496703 0 -791.13310955 0 14776
0.11650000 0.11649800 14385.60729738 0 59.31189742 0 4570.11314122 0 355.50909804 0 -359.18289542 0 14553
0.11750000 0.11747300 14320.83419719 0 -100.07288967 0 4540.64968488 0 1047.51168349 0 -193.15006307 0 14568
0.11850000 0.11849100 14260.93291992 0 74.00299016 0 4135.70154929 0 1225.56241720 0 -460.20346537 0 16015
0.11950000 0.11950300 14236.79525182 0 85.30451210 0 3946.07691444 0 844.45853311 0 -327.51051028 0 15270
0.12050000 0.12050700 14103.37373775 0 456.84633648 0 3964.00300832 0 -1.06986117 0 129.74328776 0 15999
0.12150000 0.12150000 13721.26780826 0 449.44227288 0 3876.25483414 0 -198.11821521 0 1266.38607881 0 15670
0.12250000 0.12250700 13538.90661850 0 191.44049611 0 3807.94966233 0 -459.29553473 0 606.81101106 0 16887
0.12350000 0.12352200 13536.24926054 0 12.31231448 0 4385.10566583 0 -293.24277219 0 946.25748749 0 16407
0.12450000 0.12449800 13414.78585728 0 162.03018693 0 4463.61952112 0 -215.06883728 0 189.66338798 0 16306
0.12550000 0.12549900 13353.44517778 0 96.25559496 0 4367.07992102 0 -30.15448013 0 655.26239723 0 17523
0.12650000 0.12650100 13426.74396808 0 -186.39373046 0 4044.43237581 0 728.43385580 0 267.47857957 0 17154
0.12750000 0.12750600 13466.93650717 0 55.44510942 0 4010.16353049 0 677.37493713 0 92.22294354 0 18007
0.12850000 0.12850300 13260.99126555 0 283.70174990 0 3654.28793850 0 282.16380398 0 -296.91435510 0 17496
0.12950000 0.12949900 12980.41855464 0 476.64918942 0 3761.31303019 0 8.63070004 0 281.27248183 0 18405
0.13050000 0.13049000 12539.07568737 0 357.07583201 0 3568.63243370 0 127.03167541 0 182.79079597 0 18100
0.13150000 0.13148800 12374.20877082 0 241.17184304 0 3654.26579385 0 -39.86645913 0 -117.29910190 0 19059
0.13250000 0.13249300 12172.36028938 0 150.59247539 0 3648.81821004 0 32.18890910 0 270.22340890 0 18957
0.13350000 0.13349100 12159.73783909 0 36.46548383 0 3687.53812993 0 132.10833634 0 234.72221383 0 19468
0.13450000 0.13450700 12265.25709461 0 -187.66815505 0 3286.27707850 0 137.47730665 0 206.43685285 0 19953
0.13550000 0.13551000 12355.60726513 0 -8.94978230 0 3516.65894100 0 480.77252318 0 197.21471351 0 19956
0.13650000 0.13649900 12230.93288767 0 361.02200857 0 3667.41971573 0 16.26878830 0 106.08604783 0 19723
0.13750000 0.13749600 11919.57911377 0 327.79506902 0 3636.16254277 0 -22.13867058 0 392.72982515 0 20946
0.13850000 0.13851100 11625.49816659 0 242.88140999 0 3723.75570441 0 25.84546348 0 256.90340214 0 20955
0.13950000 0.13949800 11456.53448985 0 198.08831994 0 3537.50812863 0 83.86499915 0 320.05883567 0 20506
0.14050000 0.14048300 11354.11548528 0 216.99320733 0 3643.17132438 0 119.28547697 0 143.14080079 0 21447
0.14150000 0.14148400 11292.99625228 0 88.37176752 0 3359.83053227 0 -38.09278341 0 396.99820637 0 21771
0.14250000 0.14249400 11277.16282779 0 34.00189156 0 3270.18899054 0 354.24020962 0 181.53962326 0 22470
0.14350000 0.14350900 11149.05602964 0 132.40507465 0 3222.85480194 0 187.58400538 0 663.00970291 0 22519
0.14450000 0.14449900 10952.48904713 0 105.27522148 0 3090.27478456 0 420.67748023 0 610.46487825 0 22218
0.14550000 0.14550500 10976.36097944 0 58.62740630 0 3257.27865980 0 695.40621809 0 983.60333187 0 23559
0.14650000 0.14650700 10823.49646300 0 175.70893701 0 2834.17191150 0 32.52949381 0 436.03590199 0 23044
0.14750000 0.14750500 10641.42315368 0 275.99319736 0 2899.27718144 0 -64.04575917 0 568.63917125 0 23649
0.14850000 0.14849900 10434.59212607 0 168.31262403 0 3067.54330171 0 -256.66977609 0 627.68898674 0 23640
0.14950000 0.14949500 10425.77855551 0 64.16844053 0 2925.06462594 0 -343.70378532 0 234.13427338 0 24457
0.15050000 0.15050000 10270.94316525 0 161.23962294 0 3102.06681049 0 -82.01702814 0 29.98728803 0 24591
0.15150000 0.15149900 10154.60624838 0 250.75494017 0 2960.96110300 0 -100.32079902 0 -101.02367020 0 25020
0.15250000 0.15250500 9997.75569500 0 261.47073613 0 2876.84465136 0 200.63274018 0 214.49750532 0 25297
0.15350000 0.15350100 9881.78416485 0 107.48680764 0 2903.44037557 0 114.08259154 0 397.85741878 0 25452
0.15450000 0.15450400 9917.31525519 0 6.86677904 0 3251.82000366 0 475.39801672 0 303.25547553 0 26061
0.15550000 0.15549900 9789.55169911 0 171.56456583 0 3280.35338472 0 273.72226354 0 394.16258399 0 26128
0.15650000 0.15649500 9561.02998717 0 241.62580835 0 3070.62140801 0 147.29402983 0 1020.28926569 0 26331
0.15750000 0.15749700 9466.08480185 0 210.31770270 0 3273.10101196 0 72.09567148 0 1110.83098743 0 27345
0.15850000 0.15849900 9287.02316489 0 95.80461917 0 2828.48073655 0 130.53938791 0 1037.78132444 0 26980
0.15950000 0.15949700 9319.21041314 0 27.62722199 0 2951.71571178 0 364.63047923 0 1025.36481939 0 27777
0.16050000 0.16050000 9023.74542535 0 161.73787756 0 2537.75470378 0 109.94563881 0 631.87321829 0 28224
0.16150000 0.16150500 9089.37109455 0 184.77384934 0 2474.22170397 0 67.53608812 0 525.52575287 0 28075
0.16250000 0.16249700 8734.52522876 0 185.65742086 0 2479.52534756 0 -87.34957049 0 431.95464306 0 28590
0.16350000 0.16349900 8742.66338750 0 173.76685124 0 2377.48280203 0 -217.98528763 0 127.98500258 0 29163
0.16450000 0.16449100 8516.02397079 0 71.67337302 0 2592.85059208 0 -31.46422544 0 197.72182598 0 28996
0.16550000 0.16550500 8457.04169648 0 108.76887213 0 2423.78726443 0 284.21329130 0 172.09160849 0 30777
0.16650000 0.16650700 8503.70047327 0 50.82451755 0 2452.45351338 0 232.85541987 0 318.43895455 0 29211
0.16750000 0.16749900 8472.90833795 0 71.37940279 0 2434.38347928 0 81.39642433 0 -20.78197862 0 30922
0.16850000 0.16850800 8347.66927192 0 193.88415820 0 2366.89765951 0 17.48674403 0 198.66408083 0 30867
0.16950000 0.16949900 8196.50989350 0 253.96369990 0 2390.37098812 0 -269.12060534 0 486.40280035 0 30852
0.17050000 0.17049200 8060.25386428 0 54.65720279 0 2454.81191857 0 133.67507030 0 588.04563496 0 31257
0.17150000 0.17149500 8212.33224567 0 -126.90545091 0 2658.78628638 0 199.61962246 0 978.67061116 0 32608
0.17250000 0.17250900 8321.61609163 0 -53.45530193 0 2471.60863532 0 183.53707066 0 707.98327186 0 32361
0.17350000 0.17350400 8286.66076217 0 118.32439917 0 2700.30750445 0 -66.31702516 0 729.87104356 0 32508
0.17450000 0.17449800 8132.29040955 0 264.41154560 0 2587.66874407 0 -52.95328272 0 809.94609665 0 32791
0.17550000 0.17549800 7960.24862652 0 141.66928882 0 2703.24167052 0 -53.90993159 0 956.33108861 0 33633
0.17650000 0.17650100 7974.91945690 0 -117.04665289 0 2530.80128380 0 82.89893881 0 721.89786246 0 33984
0.17750000 0.17750300 8084.22544751 0 -78.91046596 0 2454.52403812 0 328.51698460 0 460.48802412 0 34069
0.17850000 0.17849800 8113.21279389 0 23.83539364 0 2315.38920445 0 55.11050377 0 121.74685478 0 34536
