### header ###
fiducial parameters:
Omega_m = 0.31
Omega_nu = 0
Omega_de = 0.69
Omega_k = 0
H_0 = 100
w_de = -1
zeff = 0
beta = 0
fgrowth = 0
b_1 = 2
gamma = 0.55
Lx = 3500 Ly = 3500 Lz = 3500
nx = 700 ny = 700 nz = 700
xoffset = -685.467585 yoffset = -31.7331281 zoffset = 572.489161
bins = 400 dk = 0.001
kx_ny = 0.628318531 ky_ny = 0.628318531 kz_ny = 0.628318531
############################
A(data) = 8.0095079 (not used)
A(ran) = 8.00766684 (used)
Ngal = 475680
weighted Ngal = 0
Nran = 23820508
weighted Nran = 0
SN(data) = 3488.40109
SN(ran) = 69.7496823
SN(data+ran) = 3558.15078
############################
13 columns: k_central k_mean P_0(k) sigma^{lin}_{P_0(k)} P^img_1(k) sigma^{lin}_{P_1(k)} P_2(k) sigma^{lin}_{P_2(k)} P^img_3(k) sigma^{lin}_{P_3(k)} P_4(k) sigma^{lin}_{P_4(k)} N_modes
### header ###
0.00050000 0 0 0 0 0 0 0 0 0 0 0 0
0.00150000 0.00179520 60583.88609395 0 -80924.07895554 0 61949.54663708 0 -259617.22895273 0 86899.92338342 0 3
0.00250000 0.00253879 113118.19204474 0 -83299.09262914 0 -68674.21239243 0 24872.87047261 0 -45083.62785707 0 6
0.00350000 0.00331552 146211.15646271 0 -55344.79415951 0 -4251.25233109 0 -89545.43395233 0 27328.71211738 0 7
0.00450000 0.00420575 168703.47709930 0 -3832.72952527 0 -24091.16434041 0 -82549.27479242 0 39932.11801195 0 24
0.00550000 0.00557378 140521.08873840 0 42233.83289525 0 26919.36826884 0 -53962.52512915 0 24257.69210568 0 45
0.00650000 0.00659388 96865.90150618 0 45066.13358386 0 15495.05424421 0 -55913.57948544 0 13199.42913956 0 40
0.00750000 0.00754703 77439.95050486 0 12893.94369781 0 60353.91390746 0 -4685.97394812 0 -21801.29684467 0 57
0.00850000 0.00846663 83822.59214657 0 -9749.92384858 0 30571.79605676 0 36888.22519606 0 -22422.23282050 0 75
0.00950000 0.00948925 88216.31208110 0 -24707.11777007 0 25999.47952290 0 -4976.31244952 0 -45667.02865177 0 112
0.01050000 0.01054430 121102.44547146 0 -14953.61756057 0 14114.33533932 0 -5942.77139364 0 -56184.74072025 0 105
0.01150000 0.01145670 116217.33576148 0 -4249.09322775 0 6948.75853736 0 -9831.47152087 0 -28268.30960149 0 144
0.01250000 0.01249090 110786.36043793 0 19123.12291753 0 5562.03843242 0 -23524.26130970 0 -29981.64114393 0 169
0.01350000 0.01339930 99616.93133062 0 15921.33874972 0 13506.24326028 0 334.06089764 0 -24292.01631262 0 180
0.01450000 0.01448870 88446.17354434 0 10694.20492609 0 -708.28776079 0 -146.51675263 0 -36239.49768493 0 267
0.01550000 0.01550050 74852.01602500 0 9248.24788337 0 -98.04931158 0 1070.36496192 0 -15743.96010613 0 238
0.01650000 0.01653350 74541.99093008 0 5797.20353925 0 9398.17823374 0 -9056.58594076 0 -27675.82950045 0 315
0.01750000 0.01747870 67894.16710896 0 2925.06462594 0 4146.24240251 0 7642.80507397 0 9357.23277656 0 297
0.01850000 0.01844180 70024.37168082 0 -3809.13440109 0 20391.78989525 0 2223.06816011 0 15170.08151078 0 388
0.01950000 0.01947590 71502.74849061 0 -4748.10076268 0 8126.21170323 0 21903.49440274 0 22799.35620382 0 399
0.02050000 0.02045430 76829.31179111 0 -2238.90158460 0 13581.09217606 0 15887.67888228 0 8551.98688180 0 462
0.02150000 0.02154770 79085.18724966 0 -1177.55281679 0 1557.28926877 0 8322.04791229 0 17597.13511103 0 571
0.02250000 0.02255340 77520.00341330 0 -30.25258093 0 6505.00190328 0 -8021.67788461 0 12662.19993936 0 510
0.02350000 0.02348930 77612.67877203 0 -755.59980474 0 4098.48746557 0 -5940.83373680 0 -1024.77023555 0 555
0.02450000 0.02439640 80299.71055902 0 2610.90955386 0 5328.62275292 0 -17780.93570302 0 -5361.46326833 0 592
0.02550000 0.02547300 69858.95114803 0 5554.56461317 0 4162.47443070 0 -11194.78473114 0 -14806.13419399 0 837
0.02650000 0.02652900 67056.21356669 0 4840.21143285 0 6019.35866441 0 -8231.86382665 0 -29808.02709077 0 723
0.02750000 0.02749970 63740.93806949 0 3071.80614676 0 3518.97305689 0 -4863.20865150 0 -29955.39973411 0 826
0.02850000 0.02848090 61230.06697036 0 2902.77603608 0 8764.34299950 0 1020.08774938 0 -25542.63540089 0 831
0.02950000 0.02946900 61105.06042316 0 540.53650362 0 9045.03750598 0 -952.87873773 0 -7532.24791065 0 996
0.03050000 0.03053250 61161.30783324 0 -846.36075851 0 13843.06338126 0 6351.37339642 0 -3534.21964816 0 1041
0.03150000 0.03150510 61606.41529095 0 1721.01573586 0 16377.40780900 0 10908.87515967 0 9077.11403098 0 1036
0.03250000 0.03246190 58888.15954797 0 2994.41059628 0 16047.00963642 0 11058.40690635 0 6845.15479403 0 1059
0.03350000 0.03345080 57013.28278643 0 2205.82855037 0 13919.57314576 0 10102.45559848 0 21911.90936960 0 1302
0.03450000 0.03451200 55393.06949572 0 337.80002173 0 12229.05059245 0 5931.51083930 0 22443.04879116 0 1339
0.03550000 0.03553350 57495.37180903 0 682.12607171 0 11846.05887697 0 4933.56220339 0 22220.60578555 0 1365
0.03650000 0.03647120 52859.83230046 0 2671.51945992 0 15495.38641395 0 -5904.46114977 0 18208.65961076 0 1308
0.03750000 0.03744890 51879.15649127 0 4464.28386060 0 13737.65484899 0 -3146.12359094 0 15726.24438642 0 1579
0.03850000 0.03847530 49550.86802841 0 2161.04099648 0 16225.49551249 0 -7342.82257766 0 14330.79928953 0 1662
0.03950000 0.03950240 49315.02750977 0 2623.46557021 0 22899.45002018 0 -2878.63836798 0 10691.53649581 0 1683
0.04050000 0.04050350 47317.13721949 0 783.89180912 0 24202.88409783 0 -3449.98140094 0 7262.34892087 0 1822
0.04150000 0.04152450 46282.20701869 0 922.58485703 0 22814.63601207 0 1315.53612868 0 4971.00880593 0 1887
0.04250000 0.04250150 46928.83078810 0 1460.06318454 0 24739.22751205 0 1423.95633330 0 3563.00769269 0 1920
0.04350000 0.04349210 43487.99512746 0 1484.05691242 0 22889.70637434 0 1089.12369462 0 -1554.90871893 0 2005
0.04450000 0.04448520 44636.63810415 0 1373.41117050 0 24073.00572771 0 1427.94237024 0 263.41835806 0 2151
0.04550000 0.04548030 40336.81148407 0 1077.48003784 0 19520.95154827 0 1998.56570209 0 -2647.59216599 0 2274
0.04650000 0.04648670 40793.87705259 0 616.84696627 0 19707.96311445 0 2448.85500782 0 -3983.24670886 0 2311
0.04750000 0.04749250 41013.77342349 0 319.24059087 0 18533.85379068 0 2999.43743175 0 -3637.54658337 0 2568
0.04850000 0.04851840 39997.99834462 0 -291.98052717 0 17171.95783799 0 4087.59229795 0 -4435.52903305 0 2493
0.04950000 0.04949480 39251.39148210 0 1255.60163443 0 17319.21975808 0 107.65067805 0 -3652.37242630 0 2644
0.05050000 0.05050630 39070.69114106 0 1691.50799022 0 16209.66208800 0 1707.69572910 0 -1270.53820061 0 2829
0.05150000 0.05149060 37916.62272521 0 485.31328359 0 14195.16331050 0 803.41563947 0 3013.62107984 0 2784
0.05250000 0.05249300 37751.64508542 0 -895.36133199 0 15188.79373972 0 4358.13348257 0 2014.78665795 0 3055
0.05350000 0.05348950 38251.00693474 0 -1244.97220261 0 12490.02528843 0 3407.57439689 0 1819.62586070 0 3009
0.05450000 0.05448610 38699.76825964 0 1162.64946758 0 11026.89506992 0 1676.59356869 0 -1641.98148131 0 3336
0.05550000 0.05550870 36868.07356489 0 3444.06877949 0 10922.47197455 0 -1668.45540995 0 1284.36753431 0 3349
0.05650000 0.05647670 33673.04351522 0 2779.75143502 0 10822.57746004 0 -266.13550657 0 3276.33413081 0 3324
0.05750000 0.05747970 32480.44340900 0 1165.88258643 0 10610.64209068 0 1090.19328120 0 5281.60966174 0 3639
0.05850000 0.05849280 31629.42452344 0 254.74651327 0 10269.00550840 0 3214.39554578 0 4756.17248747 0 3846
0.05950000 0.05951020 31701.50535801 0 -620.59162653 0 9956.27876623 0 4600.14128613 0 2443.29670076 0 3787
0.06050000 0.06049470 32816.93136024 0 -838.95558767 0 8355.16523583 0 504.76182214 0 5140.00569964 0 3930
0.06150000 0.06148310 32566.47537284 0 -346.73428063 0 7245.38611925 0 -101.54916273 0 5189.67614877 0 4083
0.06250000 0.06249100 32966.07557555 0 605.90750935 0 10282.76840815 0 -1382.12509014 0 7883.07452253 0 4303
0.06350000 0.06350600 33223.17495784 0 -500.39600446 0 10318.86418706 0 -379.27916497 0 5796.73850161 0 4470
0.06450000 0.06451750 33467.87333633 0 216.47834423 0 11239.84909315 0 1088.83138525 0 6668.62871945 0 4479
0.06550000 0.06550280 32621.06193420 0 1034.27029024 0 11711.86230017 0 -665.39800337 0 4830.30170213 0 4636
0.06650000 0.06648880 32679.41308599 0 572.68056981 0 11651.29668341 0 2123.40616442 0 5709.25606321 0 4653
0.06750000 0.06749660 31393.36255831 0 738.23618496 0 10809.65605697 0 -268.31564733 0 4654.63926889 0 5220
0.06850000 0.06852730 31501.31772529 0 713.28359375 0 11099.45201445 0 820.19574773 0 3313.43749128 0 5029
0.06950000 0.06949320 29952.85309940 0 339.24053119 0 10908.57620690 0 569.39983996 0 4280.72685976 0 5040
0.07050000 0.07048030 29769.60612365 0 1283.80284575 0 9305.39215176 0 82.30557292 0 2552.24837697 0 5475
0.07150000 0.07148790 28444.35956611 0 991.53111644 0 8654.90414099 0 960.35255698 0 1759.15989486 0 5509
0.07250000 0.07249820 27997.81270617 0 1019.72236266 0 9145.16453931 0 -537.36096087 0 -850.89598276 0 5916
0.07350000 0.07351270 26513.89973398 0 795.91967557 0 8177.07796344 0 -391.50633326 0 665.31274647 0 5721
0.07450000 0.07449140 26244.17790140 0 1033.57937717 0 8507.57578695 0 -436.68474022 0 -1438.09569210 0 6028
0.07550000 0.07549160 26205.86765752 0 298.04594670 0 8960.45601669 0 208.85172689 0 428.87985846 0 6183
0.07650000 0.07648840 26260.23277238 0 -215.23270768 0 9901.95794067 0 -702.15590730 0 572.74478929 0 6330
0.07750000 0.07749960 26008.89099900 0 96.18417847 0 11007.04239152 0 -187.05585549 0 1470.02827687 0 6583
0.07850000 0.07848650 26374.27771802 0 154.87082170 0 12289.61620921 0 1362.84817263 0 3578.18785002 0 6549
0.07950000 0.07947320 26229.00881639 0 -80.01260518 0 11185.04108530 0 697.49556579 0 2407.65488717 0 6828
0.08050000 0.08048110 26355.23331933 0 462.58844413 0 12629.42585789 0 1701.61702278 0 4506.17046539 0 7147
0.08150000 0.08149960 25799.07044369 0 350.80114553 0 11464.28511723 0 670.64074917 0 5009.92802767 0 7386
0.08250000 0.08250610 25479.74459592 0 288.79501931 0 11058.42905100 0 1580.60758484 0 5826.55627234 0 7227
0.08350000 0.08350160 25781.90834022 0 93.82256231 0 10642.67432638 0 1073.90921309 0 3903.09414950 0 7798
0.08450000 0.08449610 25175.80927965 0 705.06239257 0 10254.76649869 0 -72.85855466 0 3693.18501558 0 7371
0.08550000 0.08548940 24524.97802681 0 873.71825867 0 9480.78884921 0 -1032.41789030 0 1711.20565607 0 8256
0.08650000 0.08650700 23751.02252198 0 681.26575207 0 10853.07064259 0 -1475.48693301 0 1766.72229271 0 8037
0.08750000 0.08749060 22958.90840446 0 1042.48374079 0 9362.87966222 0 -20.85760260 0 -607.48642287 0 8155
0.08850000 0.08849210 22565.17653390 0 573.12899896 0 10362.78809962 0 509.20071715 0 -95.92265015 0 8718
0.08950000 0.08949900 21518.62039205 0 -100.47559012 0 7565.11057072 0 1805.70794840 0 -2117.09493927 0 8571
0.09050000 0.09049190 21632.99750742 0 540.61843883 0 8472.79761470 0 1597.60360343 0 -1501.38510076 0 8932
0.09150000 0.09150830 20945.62758268 0 524.62557286 0 6306.36439603 0 1619.92541027 0 -1737.73494634 0 9285
0.09250000 0.09250820 20443.16548241 0 119.24008044 0 6263.45913736 0 890.45297040 0 -296.29873384 0 9204
0.09350000 0.09350330 20423.23529774 0 361.51029810 0 5820.44434904 0 906.30964678 0 -599.49331159 0 9349
0.09450000 0.09448040 20145.98428428 0 462.71023971 0 6709.99492497 0 -297.27420566 0 548.86178466 0 9564
0.09550000 0.09549270 19567.01241951 0 768.21893333 0 6586.17311653 0 -378.79862607 0 1384.59421857 0 10155
0.09650000 0.09649430 19039.08397216 0 824.96349080 0 7577.35656197 0 -103.15586779 0 1587.82674062 0 9913
0.09750000 0.09749140 18375.18737603 0 510.96896743 0 7148.99045938 0 954.86732727 0 2514.40317074 0 10476
0.09850000 0.09850240 18128.71742557 0 259.40242585 0 7193.16903541 0 1256.53170972 0 2227.44172842 0 10575
0.09950000 0.09950330 17813.15616824 0 -144.14948958 0 5636.79876960 0 1381.09536393 0 1544.82183102 0 10882
0.10050000 0.10051200 17847.92326817 0 6.42117333 0 5609.98159889 0 818.89474956 0 612.74688439 0 10875
0.10150000 0.10150300 17725.79552542 0 395.24877905 0 5336.15193380 0 -324.93398029 0 405.18729781 0 11118
0.10250000 0.10250800 17311.24768421 0 505.46159306 0 4864.49304117 0 -784.74880706 0 367.89570782 0 11575
0.10350000 0.10349800 16642.14709542 0 609.14173543 0 5104.16458420 0 -617.27435801 0 135.04139519 0 11364
0.10450000 0.10450100 16591.32512450 0 448.94069656 0 5583.28622375 0 -201.16199731 0 -185.63859791 0 12093
0.10550000 0.10551000 16035.71586510 0 152.41387283 0 4852.53493037 0 704.65825271 0 -395.51451485 0 12067
0.10650000 0.10649700 15893.99010742 0 -136.38114649 0 4692.01943747 0 1047.76856143 0 -954.03579567 0 12054
0.10750000 0.10749900 16054.76026379 0 -303.18239818 0 3819.74168826 0 1398.53427552 0 -544.16933340 0 12807
0.10850000 0.10850100 15921.89236597 0 23.49835207 0 3261.49721555 0 979.61840217 0 -1242.79095462 0 12736
0.10950000 0.10950300 16015.45351068 0 103.36734919 0 3125.54013911 0 78.17902819 0 -354.54248409 0 12933
0.11050000 0.11050200 15775.62695511 0 384.29935704 0 3686.75199486 0 -557.79382909 0 -546.16013740 0 13428
0.11150000 0.11150900 15620.28223791 0 774.28656734 0 4335.34663809 0 -1162.57196131 0 105.48836374 0 13453
0.11250000 0.11250000 15243.49102433 0 418.19727947 0 5284.78741897 0 -1365.41695199 0 412.79730666 0 13668
0.11350000 0.11349100 14942.21306601 0 355.81690867 0 6048.22421521 0 -982.00227370 0 824.75976002 0 13791
0.11450000 0.11448600 15094.67897876 0 36.49947587 0 6516.94894176 0 -190.00663005 0 26.38236052 0 14205
0.11550000 0.11549300 14975.54076372 0 20.31339784 0 6386.22907495 0 187.11232434 0 -291.52988355 0 14776
0.11650000 0.11649800 14890.17313936 0 158.93657938 0 6044.86930079 0 599.83655366 0 -976.70416628 0 14553
0.11750000 0.11747300 14736.37854763 0 272.43233770 0 5013.08364024 0 1056.95194763 0 -1283.58139925 0 14568
0.11850000 0.11849100 14386.93597636 0 299.95592273 0 4878.92028041 0 733.75742957 0 -1284.01321992 0 16015
0.11950000 0.11950300 13791.13417786 0 477.18508994 0 4237.57800994 0 340.19053666 0 -538.91108634 0 15270
0.12050000 0.12050700 13702.22340957 0 137.60131668 0 4053.86599655 0 947.77218152 0 -768.94417061 0 15999
0.12150000 0.12150000 13659.15206603 0 -290.89101040 0 3915.03011565 0 717.82878309 0 -31.18464924 0 15670
0.12250000 0.12250700 13884.47387609 0 -220.31822647 0 3765.60909222 0 451.45079260 0 -430.04798872 0 16887
0.12350000 0.12352200 14243.99226295 0 -78.37655846 0 3877.70530869 0 -147.44018452 0 92.89115834 0 16407
0.12450000 0.12449800 13916.58361806 0 162.71113491 0 3849.74768852 0 -720.61790171 0 84.25939536 0 16306
0.12550000 0.12549900 14005.27293986 0 308.51261535 0 4232.40723425 0 -366.28579179 0 94.19902135 0 17523
0.12650000 0.12650100 13767.77157250 0 312.73117111 0 4142.77676485 0 168.82084374 0 18.36500084 0 17154
0.12750000 0.12750600 13254.01570091 0 441.72486248 0 4071.08346164 0 365.12319768 0 -479.87787934 0 18007
0.12850000 0.12850300 12996.36270238 0 297.48900876 0 3793.23454265 0 450.54618366 0 -566.54760909 0 17496
0.12950000 0.12949900 12798.05736488 0 187.02042405 0 3439.01979937 0 775.78243842 0 -407.01533864 0 18405
0.13050000 0.13049000 12639.05878048 0 201.88059119 0 3685.32366496 0 281.20604788 0 -414.09276866 0 18100
0.13150000 0.13148800 12369.11550141 0 178.96420051 0 3046.90448824 0 254.15525112 0 314.02774034 0 19059
0.13250000 0.13249300 12423.70206276 0 63.35074934 0 3384.55503359 0 213.48881653 0 340.41309039 0 18957
0.13350000 0.13349100 12231.26505741 0 -25.49646381 0 3185.77358612 0 -3.67148326 0 599.60846376 0 19468
0.13450000 0.13450700 12392.03521378 0 105.03572710 0 3582.49498437 0 -302.01205345 0 14.50873155 0 19953
0.13550000 0.13551000 12269.13240829 0 366.84826589 0 3682.79917490 0 -356.01067436 0 225.39599464 0 19956
0.13650000 0.13649900 12024.87692279 0 330.01839185 0 3497.66990394 0 -443.73781113 0 63.00219256 0 19723
0.13750000 0.13749600 11871.41450081 0 41.87741476 0 3621.69101423 0 88.01546011 0 206.84431440 0 20946
0.13850000 0.13851100 11833.99004292 0 -15.22178927 0 3577.77817400 0 210.95768307 0 138.03535182 0 20955
0.13950000 0.13949800 11837.86535661 0 187.04699763 0 3750.17427143 0 603.39187715 0 -125.03533525 0 20506
0.14050000 0.14048300 11467.27464493 0 337.82659531 0 3337.98483540 0 397.64150844 0 -49.96641238 0 21447
0.14150000 0.14148400 11190.24507796 0 428.44250163 0 3093.14251669 0 482.03919714 0 571.28767134 0 21771
0.14250000 0.14249400 10830.91492063 0 158.95429510 0 3209.54586751 0 342.41275225 0 595.72318499 0 22470
0.14350000 0.14350900 10652.22974270 0 145.88563011 0 2752.28099715 0 701.31441062 0 418.96237712 0 22519
0.14450000 0.14449900 10496.79644690 0 135.69909128 0 2415.38336989 0 288.11739304 0 342.03186428 0 22218
0.14550000 0.14550500 10497.77081148 0 62.67644476 0 2381.35811572 0 27.21865321 0 223.85140532 0 23559
0.14650000 0.14650700 10456.19423179 0 -70.93130581 0 2205.88391199 0 -69.71811118 0 368.96972333 0 23044
0.14750000 0.14750500 10507.44802337 0 115.70800882 0 2093.72126158 0 -160.62289445 0 343.65728156 0 23649
0.14850000 0.14849900 10414.27441002 0 346.05665435 0 2472.52763828 0 -290.99951919 0 237.67631009 0 23640
0.14950000 0.14949500 10137.02339657 0 258.82223603 0 2796.39313922 0 -239.25300915 0 531.40958628 0 24457
0.15050000 0.15050000 10018.72667820 0 117.38546603 0 2942.66962240 0 -152.11934899 0 506.51900008 0 24591
0.15150000 0.15149900 9946.83407316 0 141.07913391 0 3174.34694691 0 -64.17176223 0 400.96542036 0 25020
0.15250000 0.15250500 9880.27832867 0 -3.09322002 0 3240.74767884 0 -106.01208470 0 551.49256903 0 25297
0.15350000 0.15350100 9868.66345994 0 84.11346212 0 3402.43683817 0 280.97020737 0 834.98726646 0 25452
0.15450000 0.15450400 9848.14644205 0 89.79334331 0 3217.25220558 0 247.23726257 0 672.46989723 0 26061
0.15550000 0.15549900 9740.54558946 0 10.74411897 0 2902.90890398 0 383.44789526 0 774.66413361 0 26128
0.15650000 0.15649500 9742.36145073 0 7.54398457 0 2858.12135009 0 475.43012646 0 884.55363574 0 26331
0.15750000 0.15749700 9712.51046302 0 179.15907343 0 2537.16787057 0 262.84813333 0 890.27581321 0 27345
0.15850000 0.15849900 9531.28972271 0 206.20876296 0 2645.82059401 0 173.54097581 0 806.30773071 0 26980
0.15950000 0.15949700 9335.37600737 0 244.86114167 0 2233.58686869 0 91.72413531 0 1083.80344255 0 27777
0.16050000 0.16050000 8993.04186863 0 299.03027638 0 2256.45121944 0 151.13169761 0 997.53895989 0 28224
0.16150000 0.16150500 8962.60404770 0 222.84160930 0 1998.39961722 0 15.77330177 0 1012.71911721 0 28075
0.16250000 0.16249700 8651.28349078 0 109.27033772 0 2145.90512845 0 5.63048754 0 692.80422176 0 28590
0.16350000 0.16349900 8566.55806126 0 69.57084926 0 2021.04252147 0 -191.82802748 0 151.14830610 0 29163
0.16450000 0.16449100 8587.45153820 0 116.73109163 0 2094.85063871 0 -97.21523335 0 -17.13973737 0 28996
0.16550000 0.16550500 8463.72938067 0 103.95850062 0 1997.24809544 0 -305.36143171 0 -175.00141546 0 30777
0.16650000 0.16650700 8431.19889036 0 83.46407027 0 2131.65504641 0 -118.25575076 0 -518.85135547 0 29211
0.16750000 0.16749900 8424.28975967 0 -9.60510891 0 2247.48263634 0 -49.02138946 0 -787.87230989 0 30922
0.16850000 0.16850800 8403.23019786 0 51.33938066 0 2265.56374277 0 -122.48205714 0 -744.35585889 0 30867
0.16950000 0.16949900 8330.38537288 0 194.09563961 0 2041.48203309 0 316.97630044 0 -595.11974328 0 30852
0.17050000 0.17049200 8263.65247120 0 4.73386175 0 2034.53968543 0 175.16528586 0 -254.81737614 0 31257
0.17150000 0.17149500 8300.44580657 0 -61.59157838 0 2088.93801726 0 314.49942138 0 -316.31971158 0 32608
0.17250000 0.17250900 8307.60960073 0 64.15570736 0 2003.82505638 0 391.32585437 0 -401.02853261 0 32361
0.17350000 0.17350400 8113.60032526 0 159.40272425 0 2025.80362114 0 54.97586430 0 43.38081502 0 32508
0.17450000 0.17449800 8060.59710635 0 265.76790539 0 1908.44805039 0 134.30619282 0 204.93212391 0 32791
0.17550000 0.17549800 7918.36202173 0 105.89350010 0 2039.16791720 0 160.47120360 0 446.45385241 0 33633
0.17650000 0.17650100 7776.90199985 0 131.02767744 0 1894.82909086 0 112.34755824 0 407.57338381 0 33984
0.17750000 0.17750300 7812.59917506 0 35.09107615 0 1983.11980897 0 30.73223404 0 573.61618125 0 34069
