### header ###
fiducial parameters:
Omega_m = 0.31
Omega_nu = 0
Omega_de = 0.69
Omega_k = 0
H_0 = 100
w_de = -1
zeff = 0
beta = 0
fgrowth = 0
b_1 = 2
gamma = 0.55
Lx = 3500 Ly = 3500 Lz = 3500
nx = 700 ny = 700 nz = 700
xoffset = -685.467585 yoffset = -31.7331281 zoffset = 572.489161
bins = 400 dk = 0.001
kx_ny = 0.628318531 ky_ny = 0.628318531 kz_ny = 0.628318531
############################
A(data) = 8.0091939 (not used)
A(ran) = 8.00489471 (used)
Ngal = 475300
weighted Ngal = 0
Nran = 23820508
weighted Nran = 0
SN(data) = 3484.72887
SN(ran) = 69.725536
SN(data+ran) = 3554.4544
############################
13 columns: k_central k_mean P_0(k) sigma^{lin}_{P_0(k)} P^img_1(k) sigma^{lin}_{P_1(k)} P_2(k) sigma^{lin}_{P_2(k)} P^img_3(k) sigma^{lin}_{P_3(k)} P_4(k) sigma^{lin}_{P_4(k)} N_modes
### header ###
0.00050000 0 0 0 0 0 0 0 0 0 0 0 0
0.00150000 0.00179520 66984.57562511 0 -21549.29073179 0 64897.44239679 0 -41176.20442857 0 -58844.53458818 0 3
0.00250000 0.00253879 105169.14861093 0 6340.19034835 0 48543.61863965 0 -17479.32557496 0 58520.11547100 0 6
0.00350000 0.00331552 93872.38776821 0 22503.83585441 0 49024.93259952 0 5186.54268085 0 103571.41213960 0 7
0.00450000 0.00420575 70587.73156759 0 26504.37753463 0 68936.51576739 0 30469.04488245 0 66743.97400680 0 24
0.00550000 0.00557378 66397.63168647 0 10600.04587583 0 90822.84806666 0 95089.23626578 0 -14115.77474155 0 45
0.00650000 0.00659388 73928.80558162 0 -8837.32069238 0 84942.44707873 0 94022.86066250 0 -8554.84354161 0 40
0.00750000 0.00754703 77457.33405483 0 -20696.61099751 0 34818.47551771 0 68594.60237699 0 549.00683211 0 57
0.00850000 0.00846663 89740.97120863 0 -22380.37943268 0 23707.39756220 0 2444.55894579 0 -17462.82781098 0 75
0.00950000 0.00948925 102041.99191240 0 15187.90795374 0 15219.46407947 0 8194.97084035 0 9536.28334121 0 112
0.01050000 0.01054430 97516.73275902 0 5605.41980106 0 11362.41972889 0 -21250.55940819 0 34024.70055146 0 105
0.01150000 0.01145670 87050.83917069 0 2457.45820420 0 15726.68727941 0 -18840.66791141 0 37803.35284232 0 144
0.01250000 0.01249090 91948.34988448 0 6664.21086185 0 33947.19427773 0 94.21751213 0 5656.97254542 0 169
0.01350000 0.01339930 82464.01789132 0 19743.83744687 0 46830.95143671 0 33384.05583745 0 -24144.09005304 0 180
0.01450000 0.01448870 74731.43840772 0 6351.65020454 0 46730.63617385 0 13217.36630576 0 -3696.69494255 0 267
0.01550000 0.01550050 72989.20809751 0 2359.01416424 0 51216.69929737 0 8935.74258769 0 3391.79633402 0 238
0.01650000 0.01653350 77389.79287343 0 -2369.98683813 0 53454.41614322 0 -4460.47498087 0 803.25951969 0 315
0.01750000 0.01747870 72198.20121247 0 3316.41594666 0 56510.48851641 0 -7450.70023836 0 -24096.47905632 0 297
0.01850000 0.01844180 71405.86564844 0 3956.50704442 0 44369.57362952 0 4399.00143347 0 -13675.98199975 0 388
0.01950000 0.01947590 67161.51137571 0 6647.11519233 0 50653.78230359 0 3703.57085626 0 -952.68718651 0 399
0.02050000 0.02045430 64536.48460771 0 1213.42714920 0 41997.77093012 0 19920.33030447 0 -14437.31505428 0 462
0.02150000 0.02154770 61414.42117859 0 905.97415533 0 31061.41426024 0 22948.38969588 0 -15785.25987770 0 571
0.02250000 0.02255340 58849.40641111 0 1722.35548716 0 16258.82321020 0 10063.80211254 0 -14706.48327062 0 510
0.02350000 0.02348930 54504.95832201 0 2320.23888272 0 11555.96396672 0 2788.55393325 0 -6793.00414414 0 555
0.02450000 0.02439640 56453.24459710 0 -407.07955812 0 11156.91738026 0 -1844.74896571 0 -2948.78154570 0 592
0.02550000 0.02547300 58766.69614471 0 -3986.43553841 0 15440.79985260 0 -6348.69389381 0 -12324.93692538 0 837
0.02650000 0.02652900 65381.96733086 0 -5729.09766929 0 19751.58807424 0 -6120.15003723 0 -8094.53378192 0 723
0.02750000 0.02749970 66448.45365739 0 775.09816874 0 25473.10120103 0 -11332.85662163 0 -16726.96110353 0 826
0.02850000 0.02848090 68778.18152248 0 2976.72809354 0 25098.63517566 0 -2300.46371060 0 -16982.06746735 0 831
0.02950000 0.02946900 67833.82293870 0 1892.04993734 0 27431.90618469 0 -1090.16338592 0 -11950.69234651 0 996
0.03050000 0.03053250 62197.34526652 0 4076.06600781 0 24255.03474773 0 3296.80685940 0 -9288.50685641 0 1041
0.03150000 0.03150510 61297.27598201 0 3043.39456128 0 24342.17394405 0 10052.68549842 0 -4362.37418297 0 1036
0.03250000 0.03246190 58755.73454314 0 1678.43157461 0 17341.69657746 0 11927.21901789 0 -6679.49067010 0 1059
0.03350000 0.03345080 55783.03677583 0 2011.92999815 0 15983.23304546 0 8185.27148381 0 -3903.10522182 0 1302
0.03450000 0.03451200 53497.59821001 0 1963.84289146 0 10183.11748479 0 4262.01463082 0 -2037.63993638 0 1339
0.03550000 0.03553350 52320.38863529 0 1581.09476713 0 9454.56958404 0 1211.24590121 0 3073.17911504 0 1365
0.03650000 0.03647120 49082.50868858 0 515.45104451 0 9616.72378101 0 1862.95186771 0 1970.77416680 0 1308
0.03750000 0.03744890 51566.25259190 0 -1058.11786343 0 6063.40437254 0 -786.67760604 0 -2808.90486627 0 1579
0.03850000 0.03847530 48197.82993557 0 1369.70194169 0 9406.31639248 0 -2949.53446379 0 -5245.08206217 0 1662
0.03950000 0.03950240 50223.95465413 0 1046.03906429 0 9055.40120201 0 -710.95508384 0 -3794.65180022 0 1683
0.04050000 0.04050350 47183.93715192 0 933.45898723 0 11186.25904103 0 432.53926181 0 -2661.36613806 0 1822
0.04150000 0.04152450 46895.83526014 0 2731.50931579 0 10699.64143758 0 374.43170116 0 -4303.75729538 0 1887
0.04250000 0.04250150 45198.89075844 0 1531.13643755 0 15158.56629297 0 901.98701117 0 -5221.88554167 0 1920
0.04350000 0.04349210 43617.87349758 0 2751.01875212 0 15168.64210855 0 -4526.22244564 0 -3302.32087716 0 2005
0.04450000 0.04448520 42200.28375105 0 3006.04760966 0 18273.65415745 0 -1653.60742237 0 5092.04038852 0 2151
0.04550000 0.04548030 40319.31721086 0 643.30650089 0 20749.42598690 0 523.95016105 0 3806.34417523 0 2274
0.04650000 0.04648670 40804.61720766 0 -929.76525967 0 20611.57554290 0 3400.23344553 0 2259.38538552 0 2311
0.04750000 0.04749250 40833.51597544 0 -161.19976257 0 20192.59877177 0 3106.26322160 0 2977.33707141 0 2568
0.04850000 0.04851840 41530.29737627 0 1197.98125608 0 16864.92227077 0 2411.98416617 0 -3476.08994287 0 2493
0.04950000 0.04949480 39851.95438026 0 486.75490028 0 14613.69718864 0 -15.67686182 0 -1514.49473334 0 2644
0.05050000 0.05050630 39430.54169767 0 141.15664018 0 13815.27184597 0 -1007.53394750 0 -6282.19351095 0 2829
0.05150000 0.05149060 39718.64358945 0 679.03578585 0 12284.74438629 0 -1516.07807579 0 -6720.95652654 0 2784
0.05250000 0.05249300 38379.00300964 0 1574.11920249 0 12355.93943487 0 1686.34828685 0 -10758.38012074 0 3055
0.05350000 0.05348950 36287.88374439 0 1688.30808835 0 9139.96054665 0 987.28377264 0 -7634.92157870 0 3009
0.05450000 0.05448610 34316.23486393 0 2099.42350886 0 9092.60421340 0 2864.06718851 0 -9276.78126443 0 3336
0.05550000 0.05550870 33842.00719195 0 733.69210285 0 8503.99942604 0 790.25396696 0 -7024.88077049 0 3349
0.05650000 0.05647670 31566.53371847 0 1318.03847409 0 9656.11911272 0 1707.14211286 0 -3827.48124331 0 3324
0.05750000 0.05747970 32512.33170448 0 -200.60284490 0 9381.78012069 0 83.67034768 0 -4523.95261905 0 3639
0.05850000 0.05849280 32075.41776714 0 -28.87806253 0 10458.29797350 0 233.02704090 0 -1213.40500455 0 3846
0.05950000 0.05951020 32914.03564890 0 -383.85978574 0 11830.00400599 0 -1766.48977389 0 -2055.96463395 0 3787
0.06050000 0.06049470 32308.49020457 0 551.70737213 0 12076.80612619 0 343.12691720 0 -877.05435014 0 3930
0.06150000 0.06148310 33748.00315424 0 910.97552445 0 13862.43994970 0 -78.54840094 0 -1185.85706040 0 4083
0.06250000 0.06249100 32225.55849168 0 540.88196016 0 13855.02149207 0 797.18524229 0 -2162.01536106 0 4303
0.06350000 0.06350600 32354.88324556 0 323.22884227 0 14796.39054815 0 -1433.32352010 0 -2415.95913078 0 4470
0.06450000 0.06451750 31737.04752068 0 945.87549228 0 14903.45992915 0 -673.79525451 0 -3932.12578517 0 4479
0.06550000 0.06550280 31247.87221019 0 670.45362688 0 16330.12898203 0 -2756.51062523 0 -3936.18932838 0 4636
0.06650000 0.06648880 30499.93666869 0 763.08137462 0 16575.38097676 0 532.16361160 0 -3308.58781301 0 4653
0.06750000 0.06749660 29967.13639842 0 455.79668009 0 15733.66284405 0 913.39261296 0 -3995.29339826 0 5220
0.06850000 0.06852730 29529.22595184 0 1108.58330549 0 15627.47924904 0 3592.67045088 0 -4783.46576815 0 5029
0.06950000 0.06949320 27967.80670592 0 1062.58333203 0 14109.13134666 0 1409.18585199 0 -3453.33631536 0 5040
0.07050000 0.07048030 27935.14334770 0 663.98849642 0 13124.80167028 0 2267.53461659 0 -3222.13510082 0 5475
0.07150000 0.07148790 26717.40906415 0 327.50165242 0 12389.93147207 0 1561.23101640 0 -707.67767569 0 5509
0.07250000 0.07249820 27103.27958408 0 -158.63873384 0 11598.03880104 0 2524.15788891 0 -2508.44625999 0 5916
0.07350000 0.07351270 26431.52163733 0 -119.76158694 0 8929.66388137 0 2791.65418420 0 843.19518084 0 5721
0.07450000 0.07449140 27053.89701538 0 -461.20883246 0 7980.62170419 0 2494.07438237 0 -1658.23565414 0 6028
0.07550000 0.07549160 26685.41004542 0 -557.98095138 0 7287.29486869 0 1745.93953903 0 822.18876620 0 6183
0.07650000 0.07648840 27098.18631466 0 397.96260586 0 7320.96580846 0 154.45560952 0 -433.44165628 0 6330
0.07750000 0.07749960 26917.59669687 0 551.14932696 0 6965.00163787 0 -964.57886337 0 644.35505005 0 6583
0.07850000 0.07848650 26183.50156139 0 1201.98943766 0 9067.91292905 0 -3017.92821419 0 -408.71051157 0 6549
0.07950000 0.07947320 25675.39257546 0 1383.92987908 0 10954.24954678 0 -1511.05124033 0 321.71746993 0 6828
0.08050000 0.08048110 24883.83207418 0 995.32228046 0 11345.47907192 0 258.32176695 0 1613.13807515 0 7147
0.08150000 0.08149960 24537.48975385 0 207.93383116 0 11239.95981640 0 534.70138844 0 327.47950777 0 7386
0.08250000 0.08250610 24299.10260050 0 -170.81386221 0 10702.39844646 0 2099.66710001 0 507.21323485 0 7227
0.08350000 0.08350160 24214.17786915 0 289.15486987 0 10573.46122394 0 1353.99031277 0 358.76214708 0 7798
0.08450000 0.08449610 23634.54166489 0 772.97228238 0 8156.59416253 0 1081.85692785 0 782.15123965 0 7371
0.08550000 0.08548940 22955.69743026 0 608.05554037 0 9156.84584199 0 100.35545540 0 2052.42149001 0 8256
0.08650000 0.08650700 22362.11009673 0 374.53245932 0 8612.76287273 0 869.47202210 0 781.16248105 0 8037
0.08750000 0.08749060 22155.27906912 0 350.13237711 0 8111.24192007 0 1158.77415390 0 1245.45938490 0 8155
0.08850000 0.08849210 21940.36524439 0 479.11831786 0 7262.34892087 0 780.71626636 0 287.17513819 0 8718
0.08950000 0.08949900 21265.28560020 0 363.59078793 0 7262.14961903 0 -240.31152340 0 749.17232018 0 8571
0.09050000 0.09049190 20720.97011211 0 257.96634532 0 6318.05677104 0 347.26796668 0 -43.09658845 0 8932
0.09150000 0.09150830 20859.04200260 0 -49.33230034 0 5901.70414089 0 545.79032175 0 -250.63535906 0 9285
0.09250000 0.09250820 20257.70404170 0 -23.21899731 0 4848.42709786 0 1080.85709691 0 -1523.99478804 0 9204
0.09350000 0.09350330 20128.93290406 0 342.28209882 0 4628.23177419 0 207.14880333 0 -2863.40284903 0 9349
0.09450000 0.09448040 19598.01492900 0 830.64137896 0 4414.90129191 0 -31.19239986 0 -2489.68974175 0 9564
0.09550000 0.09549270 18876.65296707 0 822.26627247 0 4130.75222009 0 -642.32881461 0 -2145.91620078 0 10155
0.09650000 0.09649430 18422.02331002 0 541.17426953 0 5102.94662847 0 -564.00761777 0 -1186.59890616 0 9913
0.09750000 0.09749140 17781.60004251 0 424.11543709 0 4986.41040975 0 304.25752092 0 -665.25959931 0 10476
0.09850000 0.09850240 18090.29645845 0 330.99497090 0 5578.48083478 0 55.50800023 0 -49.05161690 0 10575
0.09950000 0.09950330 17762.33419732 0 423.89841952 0 6392.97212076 0 -64.88548429 0 -252.31281627 0 10882
0.10050000 0.10051200 17517.96798857 0 718.99248442 0 6755.92292832 0 -579.73142625 0 266.18422480 0 10875
0.10150000 0.10150300 17127.44709222 0 380.50154963 0 6796.61372203 0 752.77525468 0 1055.68195197 0 11118
0.10250000 0.10250800 16755.08480857 0 56.73990709 0 6233.44206478 0 358.38458080 0 985.18335262 0 11575
0.10350000 0.10349800 16888.06342964 0 -63.91322344 0 5962.05938347 0 1112.85722287 0 788.19008561 0 11364
0.10450000 0.10450100 16788.19105978 0 -124.65998344 0 6308.97746469 0 1096.27863092 0 671.72362254 0 12093
0.10550000 0.10551000 16481.59838555 0 237.35853437 0 5531.77776869 0 608.81731632 0 1212.30884439 0 12067
0.10650000 0.10649700 16620.22389228 0 221.62697527 0 5640.76266188 0 316.84232531 0 1062.81363639 0 12054
0.10750000 0.10749900 15996.40911199 0 541.91279360 0 5412.22987763 0 32.30760442 0 1482.78359506 0 12807
0.10850000 0.10850100 16115.43660380 0 141.29836594 0 5677.23489984 0 68.57168266 0 1708.64794904 0 12736
0.10950000 0.10950300 15657.70669579 0 258.96396179 0 5747.61059638 0 -295.83258897 0 1603.02904259 0 12933
0.11050000 0.11050200 15641.54110156 0 -71.24852791 0 5318.21476759 0 361.04193876 0 1059.23395378 0 13428
0.11150000 0.11150900 15813.71575249 0 -75.30753147 0 5120.85057770 0 460.81908663 0 487.40595298 0 13453
0.11250000 0.11250000 15621.72164013 0 286.78317790 0 4387.19833522 0 238.40154737 0 884.51820430 0 13668
0.11350000 0.11349100 15344.69207317 0 318.86523906 0 4143.76220175 0 -20.61246133 0 359.16075077 0 13791
0.11450000 0.11448600 15161.99871366 0 418.13527445 0 4492.78402469 0 104.41578763 0 822.20426745 0 14205
0.11550000 0.11549300 14987.83104426 0 77.11608500 0 4469.07817725 0 253.19638779 0 48.48249941 0 14776
0.11650000 0.11649800 14722.87031135 0 293.15751529 0 4263.03328470 0 454.47132281 0 524.90791714 0 14553
0.11750000 0.11747300 14605.50366828 0 260.76653627 0 4317.04408517 0 -7.76501032 0 428.20444664 0 14568
0.11850000 0.11849100 14283.40973930 0 140.95180217 0 4068.62540553 0 418.69885578 0 724.38692108 0 16015
0.11950000 0.11950300 14289.83168770 0 28.08251599 0 3928.80408773 0 251.58425730 0 608.55711668 0 15270
0.12050000 0.12050700 14095.06949414 0 262.23694100 0 4056.47906521 0 162.34574819 0 422.15342113 0 15999
0.12150000 0.12150000 13867.75466561 0 104.46959913 0 3807.24103354 0 -103.61747301 0 444.69888892 0 15670
0.12250000 0.12250700 13736.21544676 0 341.72073195 0 3950.28439787 0 222.79067661 0 56.82029216 0 16887
0.12350000 0.12352200 13426.19035184 0 281.73973394 0 3810.36342914 0 31.47219751 0 217.31984091 0 16407
0.12450000 0.12449800 13304.83767183 0 147.73027943 0 4030.66947606 0 206.15561580 0 737.48326687 0 16306
0.12550000 0.12549900 13284.35387092 0 -107.19128729 0 3473.60974211 0 687.71870297 0 1045.15106384 0 17523
0.12650000 0.12650100 13330.08257242 0 30.91835982 0 3860.91966426 0 123.75537450 0 1013.99464903 0 17154
0.12750000 0.12750600 13398.39881655 0 275.98323227 0 3555.44529484 0 283.04073211 0 1091.77883812 0 18007
0.12850000 0.12850300 13081.95177323 0 181.41450599 0 3850.87706565 0 -277.86331302 0 898.14712892 0 17496
0.12950000 0.12949900 13106.64305758 0 25.91854083 0 3930.74174457 0 -509.57939066 0 1297.12285250 0 18405
0.13050000 0.13049000 13053.38517520 0 -20.10291294 0 3831.60014814 0 97.49115569 0 1037.93190806 0 18100
0.13150000 0.13148800 13219.58077073 0 -14.06683507 0 3960.13876696 0 205.48241845 0 78.38397692 0 19059
0.13250000 0.13249300 13082.06249648 0 265.35601491 0 3983.71174650 0 32.42020996 0 503.62580161 0 18957
0.13350000 0.13349100 12802.59701806 0 418.56155896 0 4094.10282494 0 -6.85498702 0 257.82904849 0 19468
0.13450000 0.13450700 12593.77297198 0 481.21984511 0 3883.46291759 0 114.49780372 0 977.29099949 0 19953
0.13550000 0.13551000 12109.02659142 0 126.53009910 0 3770.33697492 0 330.19112011 0 1275.56503608 0 19956
0.13650000 0.13649900 12322.61173717 0 -234.70117641 0 3964.46804597 0 226.43679317 0 258.21547263 0 19723
0.13750000 0.13749600 12340.65962662 0 -48.93137145 0 3968.54266150 0 61.92253016 0 718.75885837 0 20946
0.13850000 0.13851100 12366.01525046 0 173.90082637 0 4047.15616771 0 -148.55184593 0 141.65157310 0 20955
0.13950000 0.13949800 12211.22414949 0 339.89379835 0 3570.09398058 0 175.88498698 0 968.41763838 0 20506
0.14050000 0.14048300 11836.42595438 0 67.61558742 0 3356.91851084 0 367.94442605 0 187.04589039 0 21447
0.14150000 0.14148400 11694.58947345 0 274.47518163 0 2948.02862761 0 528.77437297 0 133.09709495 0 21771
0.14250000 0.14249400 11508.46369325 0 363.37044867 0 2883.38839532 0 387.87239626 0 -425.86707887 0 22470
0.14350000 0.14350900 10936.53382707 0 350.66606317 0 2369.88718721 0 233.89511117 0 -111.35547793 0 22519
0.14450000 0.14449900 10832.59791400 0 96.74620967 0 2463.80264632 0 32.16731806 0 -18.86812728 0 22218
0.14550000 0.14550500 10806.51151673 0 26.61476861 0 2507.93693305 0 105.80669307 0 -184.50479185 0 23559
0.14650000 0.14650700 10792.40537491 0 204.19359984 0 2688.96944383 0 -160.15121341 0 320.34007272 0 23044
0.14750000 0.14750500 10685.21419834 0 176.34559569 0 2766.80788731 0 -87.81438669 0 206.81552636 0 23649
0.14850000 0.14849900 10538.89342586 0 169.05225533 0 2713.11818426 0 -80.13617232 0 663.37398239 0 23640
0.14950000 0.14949500 10550.71866876 0 105.35649235 0 3028.38048882 0 -10.15202640 0 168.20522248 0 24457
0.15050000 0.15050000 10166.63079313 0 191.65972815 0 3060.12484408 0 -160.58303408 0 -287.56931296 0 24591
0.15150000 0.15149900 10096.93050840 0 450.99350558 0 2992.49508409 0 66.03346292 0 -205.50124140 0 25020
0.15250000 0.15250500 9673.52480733 0 237.16919762 0 2799.79234294 0 51.91015900 0 355.31643959 0 25297
0.15350000 0.15350100 9846.30843613 0 -194.37244773 0 2804.81917841 0 247.80305837 0 -314.33112204 0 25452
0.15450000 0.15450400 9944.26529380 0 -281.85710058 0 2456.67206914 0 339.58377326 0 -415.99056513 0 26061
0.15550000 0.15549900 10102.25629664 0 116.58161525 0 2780.15003871 0 -252.70809827 0 -1096.65619720 0 26128
0.15650000 0.15649500 9985.24396795 0 273.67133085 0 3007.01090192 0 -639.80543179 0 -695.69409854 0 26331
0.15750000 0.15749700 9728.74249120 0 263.59219356 0 3204.39723647 0 -343.92412459 0 -432.80499760 0 27345
0.15850000 0.15849900 9537.57880321 0 260.76321457 0 3365.23382678 0 -283.88997942 0 -673.69560359 0 26980
0.15950000 0.15949700 9455.32250213 0 145.22793402 0 3487.78231787 0 387.16155300 0 -854.67275275 0 27777
0.16050000 0.16050000 9428.16208935 0 171.71072052 0 3361.40280239 0 261.58367384 0 -665.95494131 0 28224
0.16150000 0.16150500 9083.96780004 0 157.32444888 0 3089.56615577 0 651.27082414 0 -233.56183419 0 28075
0.16250000 0.16249700 9051.32658647 0 122.46766312 0 2903.41823092 0 450.41331576 0 -163.07873609 0 28590
0.16350000 0.16349900 8891.94047071 0 137.70096761 0 2597.03593086 0 683.52782803 0 -31.29116500 0 29163
0.16450000 0.16449100 8622.01933628 0 114.51109051 0 2403.25917421 0 258.61075463 0 -64.41059227 0 28996
0.16550000 0.16550500 8713.99713855 0 10.64137886 0 2225.55943320 0 321.42737502 0 -37.74068348 0 30777
0.16650000 0.16650700 8502.03962455 0 65.47419980 0 2203.72480866 0 8.16495377 0 156.74758076 0 29211
0.16750000 0.16749900 8446.45655396 0 274.42867786 0 2154.86263923 0 -171.22575269 0 -104.73433842 0 30922
0.16850000 0.16850800 8415.56476771 0 125.21359968 0 2091.01961433 0 -224.19907632 0 166.24099206 0 30867
0.16950000 0.16949900 8267.99282253 0 -4.50422174 0 2172.03581502 0 -101.00971907 0 118.31664855 0 30852
0.17050000 0.17049200 8340.62727334 0 -29.55591025 0 2371.63661453 0 126.11377968 0 213.25740494 0 31257
0.17150000 0.17149500 8433.65694647 0 1.22965918 0 2180.78295163 0 34.67198866 0 -6.01079976 0 32608
0.17250000 0.17250900 8351.33421144 0 47.17419351 0 2337.63350501 0 10.21543760 0 -176.92135658 0 32361
0.17350000 0.17350400 8404.53673219 0 67.10703554 0 2062.35336537 0 -61.02135365 0 -47.86322428 0 32508
0.17450000 0.17449800 8401.77972331 0 -42.11978795 0 2233.62008567 0 15.09323958 0 -91.24215701 0 32791
0.17550000 0.17549800 8337.89240911 0 99.19120044 0 2157.08817652 0 -40.08469465 0 -291.97277654 0 33633
0.17650000 0.17650100 8235.39589826 0 276.71400571 0 2041.39345449 0 53.57676533 0 -415.00734269 0 33984
0.17750000 0.17750300 7999.76575380 0 146.96407455 0 1964.24149515 0 -104.92134998 0 -597.86900153 0 34069
0.17850000 0.17849800 7875.71142653 0 208.60813575 0 2044.09510174 0 84.37432609 0 -528.65922079 0 34536
