### header ###
fiducial parameters:
Omega_m = 0.31
Omega_nu = 0
Omega_de = 0.69
Omega_k = 0
H_0 = 100
w_de = -1
zeff = 0
beta = 0
fgrowth = 0
b_1 = 2
gamma = 0.55
Lx = 3500 Ly = 3500 Lz = 3500
nx = 700 ny = 700 nz = 700
xoffset = -685.467585 yoffset = -31.7331281 zoffset = 572.489161
bins = 400 dk = 0.001
kx_ny = 0.628318531 ky_ny = 0.628318531 kz_ny = 0.628318531
############################
A(data) = 8.01831161 (not used)
A(ran) = 8.0194574 (used)
Ngal = 476702
weighted Ngal = 0
Nran = 23820508
weighted Nran = 0
SN(data) = 3486.3462
SN(ran) = 69.8523824
SN(data+ran) = 3556.19859
############################
13 columns: k_central k_mean P_0(k) sigma^{lin}_{P_0(k)} P^img_1(k) sigma^{lin}_{P_1(k)} P_2(k) sigma^{lin}_{P_2(k)} P^img_3(k) sigma^{lin}_{P_3(k)} P_4(k) sigma^{lin}_{P_4(k)} N_modes
### header ###
0.00050000 0 0 0 0 0 0 0 0 0 0 0 0
0.00150000 0.00179520 23298.71805314 0 -33352.16754197 0 12160.40217857 0 -88992.81422064 0 117484.00972073 0 3
0.00250000 0.00253879 50899.36646807 0 -41306.52569169 0 -12736.60596214 0 -64782.84383492 0 -63428.25561661 0 6
0.00350000 0.00331552 63810.58299260 0 -26407.16252273 0 -41431.20006915 0 53449.43359705 0 46566.43359679 0 7
0.00450000 0.00420575 78189.98978808 0 -14474.51806567 0 -16141.01367413 0 -49197.77158994 0 -3882.69892718 0 24
0.00550000 0.00557378 78479.97397508 0 595.62907022 0 -16352.71652466 0 -14261.92942915 0 10660.06894867 0 45
0.00650000 0.00659388 80012.71589972 0 -780.44056547 0 297.50118832 0 -15649.95606842 0 -4119.70203992 0 40
0.00750000 0.00754703 81631.37906496 0 -4530.09775933 0 -32623.16567591 0 -10256.33876881 0 -17578.97649832 0 57
0.00850000 0.00846663 82275.12402992 0 -1352.24088545 0 -22546.13213522 0 -7902.71682676 0 -15379.45917310 0 75
0.00950000 0.00948925 92210.09964319 0 2073.54748576 0 -29080.57535019 0 -39659.29592842 0 -26185.05168686 0 112
0.01050000 0.01054430 71560.21385641 0 14657.21142518 0 -13952.56867372 0 -16322.93197090 0 -21807.94023956 0 105
0.01150000 0.01145670 77623.86182010 0 4823.45900540 0 -6653.38212817 0 -15915.91331056 0 -10938.92544923 0 144
0.01250000 0.01249090 58448.36680617 0 1856.55206397 0 -9850.82594465 0 2366.37726024 0 -9993.76965806 0 169
0.01350000 0.01339930 73374.30355470 0 -812.79943475 0 -2444.85789856 0 7316.72510806 0 -16154.74335690 0 180
0.01450000 0.01448870 68146.72683807 0 -6835.00147217 0 -5405.77471226 0 3983.52351698 0 -9468.63143656 0 267
0.01550000 0.01550050 80965.15728062 0 -2476.05970989 0 4439.14968327 0 1620.30186931 0 8141.14826941 0 238
0.01650000 0.01653350 75286.82622063 0 1945.93894223 0 11863.44242694 0 -13570.68419073 0 9802.31808962 0 315
0.01750000 0.01747870 77449.36198096 0 -1150.56956120 0 10483.11105342 0 6457.03659217 0 4985.41390052 0 297
0.01850000 0.01844180 78986.86500527 0 -2296.23408251 0 19801.63498242 0 1761.35221518 0 5853.41773235 0 388
0.01950000 0.01947590 80514.73510700 0 2137.16906417 0 32893.55184799 0 -8549.46239174 0 -14093.18719892 0 399
0.02050000 0.02045430 79961.00814282 0 5498.20647984 0 35786.41815335 0 -12612.70664742 0 -1623.92251953 0 462
0.02150000 0.02154770 74923.10035033 0 7751.80103948 0 35614.57567217 0 -10866.00311798 0 -3614.93689609 0 571
0.02250000 0.02255340 73105.91040110 0 7315.98326230 0 34488.18806837 0 -3140.80887503 0 -2702.31159524 0 510
0.02350000 0.02348930 68249.03511940 0 3454.25531832 0 40322.08529206 0 -1971.52708488 0 -10442.45347669 0 555
0.02450000 0.02439640 65770.16303900 0 3452.07407033 0 41741.66805706 0 12572.95700132 0 -11926.88684815 0 592
0.02550000 0.02547300 63309.33884806 0 1769.43501229 0 35871.89650095 0 7108.46575055 0 -19760.88882709 0 837
0.02650000 0.02652900 59813.58445631 0 2739.34852176 0 32074.31053465 0 2784.98864466 0 -23046.82266352 0 723
0.02750000 0.02749970 57951.21942182 0 104.62328300 0 28070.11498724 0 -1991.54584816 0 -25016.14635576 0 826
0.02850000 0.02848090 58085.08382887 0 -628.27692718 0 29892.61965239 0 -1288.07676313 0 -14739.36807533 0 831
0.02950000 0.02946900 58224.04150535 0 2554.59570983 0 31524.90177715 0 2244.19415587 0 -17835.63298762 0 996
0.03050000 0.03053250 55209.71179672 0 3734.50693181 0 27518.15959503 0 1953.45705078 0 -12583.47570990 0 1041
0.03150000 0.03150510 52749.33049877 0 809.68811148 0 24073.55934395 0 10553.80784739 0 -13061.35724907 0 1036
0.03250000 0.03246190 53463.49544957 0 -647.12977465 0 29077.91799223 0 4753.03901955 0 -9905.08033626 0 1059
0.03350000 0.03345080 51389.42756454 0 2195.33198644 0 23621.14415186 0 7296.56240456 0 -8705.85897981 0 1302
0.03450000 0.03451200 50587.23763143 0 2903.54002649 0 24816.06944629 0 -1545.04327752 0 -7795.59208414 0 1339
0.03550000 0.03553350 48251.30926444 0 2464.81022788 0 21734.53072601 0 -718.45436944 0 -1553.22572556 0 1365
0.03650000 0.03647120 47828.78934936 0 -400.71186412 0 24117.73791998 0 523.10755713 0 -4168.98495769 0 1308
0.03750000 0.03744890 48584.14334849 0 -877.40534284 0 21953.76275742 0 355.44709303 0 -6635.04635827 0 1579
0.03850000 0.03847530 49458.08194643 0 -599.71697255 0 19862.31132243 0 3736.52209492 0 -9166.74450038 0 1662
0.03950000 0.03950240 48734.50551953 0 -244.77256307 0 18330.23373727 0 4589.94367497 0 -9583.44037261 0 1683
0.04050000 0.04050350 48342.76666744 0 2319.43060301 0 12493.23626262 0 1860.32772673 0 -9199.99469181 0 1822
0.04150000 0.04152450 46741.81922192 0 -1102.11706780 0 15317.56487736 0 3552.15681437 0 -7582.69342253 0 1887
0.04250000 0.04250150 46257.95862734 0 -202.54825237 0 13240.06457164 0 -366.12745755 0 -11064.81778242 0 1920
0.04350000 0.04349210 46621.02015814 0 3407.10935924 0 16380.28661346 0 -341.69526560 0 -8508.43942829 0 2005
0.04450000 0.04448520 43345.82647679 0 2448.35675320 0 17416.98838623 0 -3300.89254726 0 -4552.46385546 0 2151
0.04550000 0.04548030 42309.89976676 0 1149.89414939 0 17508.99940547 0 925.75929255 0 -1063.90426038 0 2274
0.04650000 0.04648670 41769.68103885 0 -1287.51207456 0 17784.47884696 0 6828.81204260 0 -585.23769338 0 2311
0.04750000 0.04749250 43380.59357672 0 -1427.83164699 0 11782.72517901 0 4158.14515169 0 -5038.69392755 0 2568
0.04850000 0.04851840 43089.39143399 0 1043.85338737 0 13555.29365923 0 90.24841586 0 -4527.39611207 0 2493
0.04950000 0.04949480 43519.88342294 0 403.13448879 0 11024.14913336 0 -2900.76087296 0 -6839.33075118 0 2644
0.05050000 0.05050630 41009.78738655 0 2517.25983054 0 12719.44385867 0 -3005.93688642 0 -4631.74170116 0 2829
0.05150000 0.05149060 40484.07340416 0 1072.64253913 0 12657.99245592 0 -2144.94183619 0 -7303.61547547 0 2784
0.05250000 0.05249300 38936.05167127 0 433.56898802 0 13466.05072119 0 381.89666255 0 -8637.43201243 0 3055
0.05350000 0.05348950 39896.35440279 0 1264.16054152 0 13387.76938472 0 2913.92586717 0 -5475.68537116 0 3009
0.05450000 0.05448610 36905.05512978 0 2736.61365753 0 11950.58162326 0 2239.00123553 0 -7419.47628238 0 3336
0.05550000 0.05550870 36075.51655437 0 1063.64738245 0 10750.28625130 0 3804.93798998 0 -3317.02492452 0 3349
0.05650000 0.05647670 34562.04047491 0 1076.23440130 0 11281.59175772 0 1481.32204819 0 -3613.96253151 0 3324
0.05750000 0.05747970 33066.39083841 0 2148.80607755 0 11557.18192245 0 187.89624494 0 -2012.90436273 0 3639
0.05850000 0.05849280 32086.82226170 0 1997.19273381 0 13253.01919168 0 -1306.61183487 0 1275.89720583 0 3846
0.05950000 0.05951020 29516.93567129 0 829.32930847 0 14054.43406205 0 1106.14628680 0 2762.88828432 0 3787
0.06050000 0.06049470 30993.76235560 0 -545.50908470 0 13409.69258786 0 2908.09075199 0 3738.78084919 0 3930
0.06150000 0.06148310 31320.83883075 0 -1293.97831226 0 14434.43624983 0 2104.39498271 0 3663.04614743 0 4083
0.06250000 0.06249100 31989.27508005 0 -0.97355741 0 15025.69839514 0 188.44986118 0 2146.40338307 0 4303
0.06350000 0.06350600 32383.56056684 0 1401.24699510 0 14285.29203452 0 -1054.70980185 0 2549.04847510 0 4470
0.06450000 0.06451750 30709.53577751 0 1060.00126589 0 14861.71726458 0 -1045.74011152 0 6726.43732733 0 4479
0.06550000 0.06550280 31032.62621572 0 284.45577522 0 15237.51196892 0 1355.35220873 0 2568.27003098 0 4636
0.06650000 0.06648880 29541.62695564 0 -139.67737759 0 12870.80253894 0 4044.76454555 0 1391.92409760 0 4653
0.06750000 0.06749660 30164.00233369 0 72.20938426 0 12876.56014784 0 2180.25148004 0 771.56498990 0 5220
0.06850000 0.06852730 29885.97625750 0 400.24129031 0 9807.72138413 0 1745.72916486 0 -548.53072214 0 5029
0.06950000 0.06949320 28456.53912341 0 659.06463358 0 10010.83211061 0 -1199.44280295 0 -527.35157923 0 5040
0.07050000 0.07048030 28714.30284519 0 729.99505360 0 8881.66535328 0 -1965.34872763 0 -658.76568081 0 5475
0.07150000 0.07148790 28726.37167924 0 -165.28545043 0 9828.24947435 0 -797.74882363 0 516.10541891 0 5509
0.07250000 0.07249820 28838.09143666 0 -231.88326975 0 9843.89466932 0 160.47673976 0 -1045.26843048 0 5916
0.07350000 0.07351270 28830.00863954 0 -368.29320428 0 9459.59641951 0 -156.38773020 0 -1898.94799570 0 5721
0.07450000 0.07449140 28970.62716474 0 759.64563223 0 10826.78494347 0 503.70330788 0 -3179.99383256 0 6028
0.07550000 0.07549160 28174.19484053 0 1023.02523715 0 10213.09026807 0 1114.08625093 0 -2274.36624100 0 6183
0.07650000 0.07648840 27604.85589836 0 448.84436734 0 9463.00669556 0 2686.15707333 0 -1691.17582048 0 6330
0.07750000 0.07749960 27014.81170877 0 193.70367931 0 8676.03013675 0 1211.67772188 0 -1242.61379742 0 6583
0.07850000 0.07848650 26401.29419057 0 542.34018534 0 8097.84440704 0 1712.19109298 0 -1724.93533885 0 6549
0.07950000 0.07947320 26229.67315588 0 410.69799387 0 7855.12797469 0 688.19592017 0 -1251.63774215 0 6828
0.08050000 0.08048110 25485.83437457 0 707.03437362 0 6593.04903024 0 606.24853696 0 -388.45480054 0 7147
0.08150000 0.08149960 25266.93451290 0 418.60916995 0 6600.82180226 0 303.29533590 0 -1187.00858218 0 7386
0.08250000 0.08250610 24079.98129234 0 863.77088205 0 6730.79982331 0 997.76151362 0 345.51853936 0 7227
0.08350000 0.08350160 23727.88136311 0 1023.83905303 0 6316.20769280 0 336.60421065 0 391.52072728 0 7798
0.08450000 0.08449610 22661.72720632 0 660.76644990 0 5434.99457746 0 928.95365826 0 985.38819063 0 7371
0.08550000 0.08548940 22211.41575595 0 239.67375749 0 5023.85701229 0 1058.89735510 0 1583.24279814 0 8256
0.08650000 0.08650700 21855.77268277 0 435.89860516 0 5121.45955557 0 744.23184885 0 1441.14058142 0 8037
0.08750000 0.08749060 21811.70483000 0 202.84277621 0 4919.47820622 0 212.31182840 0 1492.49402393 0 8155
0.08850000 0.08849210 21093.66456551 0 457.43870586 0 5283.99021158 0 140.30960733 0 1719.32167016 0 8718
0.08950000 0.08949900 20828.81455584 0 451.59473282 0 4630.73411960 0 -459.77718086 0 2293.91996663 0 8571
0.09050000 0.09049190 20646.12119634 0 300.99561403 0 5335.58724523 0 -413.49264865 0 881.55746464 0 8932
0.09150000 0.09150830 20190.60575330 0 634.33902502 0 5761.19633894 0 -266.38463388 0 825.61897243 0 9285
0.09250000 0.09250820 19902.72530801 0 843.18410852 0 5619.49272591 0 -638.93293259 0 728.00757129 0 9204
0.09350000 0.09350330 19082.59820870 0 497.58252672 0 5438.12804538 0 -83.51278850 0 477.65787821 0 9349
0.09450000 0.09448040 19128.10546370 0 104.77619180 0 6106.97397070 0 551.51028475 0 452.11291762 0 9564
0.09550000 0.09549270 18625.75408668 0 440.52572970 0 5798.68723077 0 215.65567049 0 -173.04604289 0 10155
0.09650000 0.09649430 18480.92807805 0 466.56119428 0 5618.48514435 0 500.77910690 0 264.93969549 0 9913
0.09750000 0.09749140 18050.43608910 0 247.66022538 0 5222.97062950 0 555.66904995 0 659.67028974 0 10476
0.09850000 0.09850240 17764.65938553 0 111.19271476 0 4928.52429560 0 597.73945533 0 104.20508129 0 10575
0.09950000 0.09950330 17720.03791651 0 336.24657456 0 5305.48159405 0 23.26860133 0 747.92557641 0 10882
0.10050000 0.10051200 17420.64225342 0 254.65018404 0 5151.60949605 0 -5.33275273 0 125.65870713 0 10875
0.10150000 0.10150300 17191.33440642 0 136.57048324 0 5398.43376090 0 -316.71720804 0 805.65114185 0 11118
0.10250000 0.10250800 17233.85213373 0 593.56629611 0 6024.11976408 0 -705.86956505 0 504.26578198 0 11575
0.10350000 0.10349800 16920.72678786 0 176.21051333 0 6290.59740549 0 -118.96437955 0 1014.78299856 0 11364
0.10450000 0.10450100 16346.95891575 0 355.93538255 0 6353.21140234 0 178.03855415 0 480.74152067 0 12093
0.10550000 0.10551000 16765.60351715 0 -118.35318722 0 6606.63477279 0 393.93560133 0 608.03561018 0 12067
0.10650000 0.10649700 16266.46311432 0 206.41360097 0 6269.74821786 0 693.14967830 0 102.68031144 0 12054
0.10750000 0.10749900 16122.96578467 0 429.66267182 0 5926.12968944 0 260.00586755 0 796.89846908 0 12807
0.10850000 0.10850100 15929.20010035 0 399.23149429 0 5944.58725491 0 -435.92960767 0 422.46898239 0 12736
0.10950000 0.10950300 15295.97384397 0 672.87514432 0 5995.12134538 0 -3.64559616 0 14.78077857 0 12933
0.11050000 0.11050200 15122.02762107 0 349.73266619 0 6318.17856661 0 185.05840809 0 563.10522330 0 13428
0.11150000 0.11150900 14601.18546160 0 534.45669007 0 5933.94675076 0 136.42100686 0 569.72647354 0 13453
0.11250000 0.11250000 14568.74354988 0 -50.82130658 0 6029.79986671 0 1009.59339992 0 464.93688423 0 13668
0.11350000 0.11349100 14479.94350483 0 -237.24670389 0 5176.59973316 0 749.98613606 0 1191.30464421 0 13791
0.11450000 0.11448600 14550.03132093 0 -68.80165485 0 4708.34004426 0 1212.30884439 0 1237.71982985 0 14205
0.11550000 0.11549300 14814.21699111 0 -208.53505840 0 4196.72113136 0 940.44894589 0 748.64749199 0 14776
0.11650000 0.11649800 14537.29814739 0 -77.89734824 0 3693.66112555 0 515.22406186 0 775.05387945 0 14553
0.11750000 0.11747300 14526.44726907 0 186.21878773 0 3121.53195752 0 3.24426868 0 159.73046507 0 14568
0.11850000 0.11849100 14479.61133509 0 462.69252399 0 3486.15468613 0 -712.05788739 0 329.33744387 0 16015
0.11950000 0.11950300 14042.25450475 0 207.70020511 0 3219.22307940 0 -340.66996832 0 467.23439163 0 15270
0.12050000 0.12050700 13831.76960995 0 364.38578085 0 3329.49236227 0 349.80242183 0 452.32439903 0 15999
0.12150000 0.12150000 13852.91775035 0 -176.24815923 0 3622.22248582 0 186.39815939 0 721.55019146 0 15670
0.12250000 0.12250700 13792.35213359 0 70.26895934 0 3508.36576971 0 261.13081576 0 -102.15769771 0 16887
0.12350000 0.12352200 13775.52219987 0 221.95028715 0 3510.63559630 0 238.67060486 0 572.92526818 0 16407
0.12450000 0.12449800 13582.19940854 0 -3.94242305 0 3638.85311770 0 -358.00369283 0 507.51440208 0 16306
0.12550000 0.12549900 13680.41092968 0 57.73099088 0 3994.25259973 0 33.62908639 0 530.74856848 0 17523
0.12650000 0.12650100 13596.15053781 0 240.15761808 0 4230.72424088 0 -496.65909483 0 106.59836430 0 17154
0.12750000 0.12750600 13493.84225648 0 468.51213791 0 4338.90085436 0 -196.99769594 0 -31.09684570 0 18007
0.12850000 0.12850300 12985.17965432 0 348.11278507 0 4315.90363571 0 -653.84292519 0 456.79761825 0 17496
0.12950000 0.12949900 12920.62800062 0 228.35119813 0 4931.58025725 0 -328.20585227 0 364.79434964 0 18405
0.13050000 0.13049000 12887.96464241 0 -121.21538318 0 5104.09815025 0 250.28104467 0 188.79642495 0 18100
0.13150000 0.13148800 12896.49033252 0 -79.17454091 0 5095.78283431 0 477.35892544 0 254.70997459 0 19059
0.13250000 0.13249300 13109.85403177 0 118.45394537 0 4729.53247396 0 762.39046155 0 141.65932373 0 18957
0.13350000 0.13349100 13006.32779472 0 151.46608182 0 4440.63337479 0 289.56122419 0 132.88561354 0 19468
0.13450000 0.13450700 12697.18848578 0 372.39660786 0 4400.52941430 0 371.31705619 0 149.71222557 0 19953
0.13550000 0.13551000 12448.72551685 0 193.06259170 0 3876.22161716 0 207.51972622 0 573.56857026 0 19956
0.13650000 0.13649900 12270.46108727 0 89.20994251 0 3810.70667121 0 741.07955797 0 662.44058541 0 19723
0.13750000 0.13749600 12175.90343332 0 -48.23326137 0 3351.89167537 0 724.71466189 0 262.62779407 0 20946
0.13850000 0.13851100 12001.07142443 0 292.95378452 0 3261.76295135 0 527.10355915 0 -169.71105866 0 20955
0.13950000 0.13949800 11772.87080992 0 344.73351153 0 2984.02475560 0 102.71995036 0 54.59198680 0 20506
0.14050000 0.14048300 11587.74153895 0 216.09856349 0 2941.29665412 0 -635.82160932 0 152.44819703 0 21447
0.14150000 0.14148400 11393.97585463 0 237.19577119 0 3564.75712001 0 -629.04202483 0 290.40272088 0 21771
0.14250000 0.14249400 11360.98032667 0 207.06797536 0 3861.25183401 0 -711.53305919 0 -282.33763948 0 22470
0.14350000 0.14350900 11084.83654569 0 141.01823612 0 4120.43281336 0 -92.24796699 0 85.31060188 0 22519
0.14450000 0.14449900 11281.59175772 0 129.91601603 0 4310.46712422 0 56.92570070 0 -539.45473749 0 22218
0.14550000 0.14550500 11035.11073493 0 93.42429078 0 4212.86458095 0 552.89321812 0 -203.46614810 0 23559
0.14650000 0.14650700 11026.88399759 0 157.87474343 0 3810.91704538 0 412.60354097 0 -158.61326749 0 23044
0.14750000 0.14750500 10834.00409925 0 1.59365078 0 3438.96443775 0 584.60214194 0 -319.89496527 0 23649
0.14850000 0.14849900 10724.99706141 0 177.59344670 0 3561.09218050 0 202.97564411 0 8.31092023 0 23640
0.14950000 0.14949500 10569.09872796 0 378.30812208 0 3222.86587426 0 247.58936250 0 -117.24816920 0 24457
0.15050000 0.15050000 10325.91725797 0 244.67401938 0 3211.98177897 0 -6.71009458 0 4.73901038 0 24591
0.15150000 0.15149900 10089.93279911 0 205.82344605 0 3324.41016517 0 -82.40909916 0 -88.01977832 0 25020
0.15250000 0.15250500 9945.12893513 0 214.76545558 0 3218.25978714 0 -359.62578841 0 67.56775497 0 25297
0.15350000 0.15350100 9860.65816909 0 258.11914340 0 3683.07598302 0 -64.08517665 0 -53.13741548 0 25452
0.15450000 0.15450400 9593.71549004 0 231.82569366 0 3647.41202478 0 -204.64313623 0 -307.06103357 0 26061
0.15550000 0.15549900 9473.81328458 0 221.35459608 0 3741.31641157 0 70.30250848 0 62.12448937 0 26128
0.15650000 0.15649500 9222.10612448 0 118.21146146 0 3606.46656760 0 147.24309714 0 10.32263985 0 26331
0.15750000 0.15749700 9349.30499199 0 -155.96587463 0 3520.24637424 0 692.46208693 0 381.77818868 0 27345
0.15850000 0.15849900 9467.09238341 0 -260.14427161 0 3215.48063361 0 442.08360580 0 -50.34187491 0 26980
0.15950000 0.15949700 9604.05704142 0 -82.11114290 0 2872.84754210 0 673.76646647 0 264.76585999 0 27777
0.16050000 0.16050000 9572.08016734 0 87.96906707 0 2618.85948308 0 305.13112735 0 414.80914808 0 28224
0.16150000 0.16150500 9522.31006728 0 69.98395770 0 2540.17954292 0 259.24076991 0 315.27448412 0 28075
0.16250000 0.16249700 9238.80319030 0 311.10686106 0 2467.30150096 0 -224.41055773 0 416.44120875 0 28590
0.16350000 0.16349900 9061.56848693 0 448.62402807 0 2673.11387469 0 -132.44493502 0 -200.23635095 0 29163
0.16450000 0.16449100 8751.87556175 0 202.32126971 0 2674.80794039 0 -433.82254425 0 478.21370892 0 28996
0.16550000 0.16550500 8792.37812594 0 -7.35770378 0 2696.48755238 0 45.95490910 0 336.68282416 0 30777
0.16650000 0.16650700 8686.77029182 0 7.77974759 0 2908.61115126 0 148.90394586 0 229.70755792 0 29211
0.16750000 0.16749900 8797.64855255 0 142.64586787 0 2689.22410730 0 512.84129756 0 323.87768050 0 30922
0.16850000 0.16850800 8536.88423075 0 174.97594911 0 2568.35860958 0 211.53344396 0 438.14407263 0 30867
0.16950000 0.16949900 8396.02211441 0 239.22200664 0 2514.80177444 0 304.42914196 0 678.20868319 0 30852
0.17050000 0.17049200 8202.03498358 0 184.90228831 0 2460.72454002 0 309.43604724 0 946.01057465 0 31257
0.17150000 0.17149500 8053.06792547 0 74.67065134 0 2228.39394835 0 133.37722477 0 899.72161351 0 32608
0.17250000 0.17250900 8195.36944404 0 -164.72629802 0 2258.62139511 0 94.11332156 0 856.27602539 0 32361
0.17350000 0.17350400 8197.14101601 0 -17.60001392 0 2331.03439942 0 20.65918654 0 647.92919651 0 32508
0.17450000 0.17449800 8131.07245382 0 290.89101040 0 2388.00151061 0 -206.63726193 0 640.98906331 0 32791
0.17550000 0.17549800 7922.64701143 0 291.49223764 0 2438.69061363 0 -214.60269240 0 550.26021928 0 33633
0.17650000 0.17650100 7691.01397623 0 118.32993534 0 2416.82277211 0 98.28326981 0 719.93031034 0 33984
0.17750000 0.17750300 7665.55870147 0 41.57026847 0 2393.50445605 0 227.50084358 0 577.28665693 0 34069
