### header ###
fiducial parameters:
Omega_m = 0.31
Omega_nu = 0
Omega_de = 0.69
Omega_k = 0
H_0 = 100
w_de = -1
zeff = 0
beta = 0
fgrowth = 0
b_1 = 2
gamma = 0.55
Lx = 3500 Ly = 3500 Lz = 3500
nx = 700 ny = 700 nz = 700
xoffset = -685.467585 yoffset = -31.7331281 zoffset = 572.489161
bins = 400 dk = 0.001
kx_ny = 0.628318531 ky_ny = 0.628318531 kz_ny = 0.628318531
############################
A(data) = 8.00300423 (not used)
A(ran) = 7.99807238 (used)
Ngal = 475734
weighted Ngal = 0
Nran = 23820508
weighted Nran = 0
SN(data) = 3493.53525
SN(ran) = 69.666111
SN(data+ran) = 3563.20136
############################
13 columns: k_central k_mean P_0(k) sigma^{lin}_{P_0(k)} P^img_1(k) sigma^{lin}_{P_1(k)} P_2(k) sigma^{lin}_{P_2(k)} P^img_3(k) sigma^{lin}_{P_3(k)} P_4(k) sigma^{lin}_{P_4(k)} N_modes
### header ###
0.00050000 0 0 0 0 0 0 0 0 0 0 0 0
0.00150000 0.00179520 39793.49250522 0 -51847.15747255 0 13550.42183631 0 -44657.12190506 0 -12127.40665062 0 3
0.00250000 0.00253879 51159.89827105 0 -24411.04380442 0 -6890.46274719 0 34793.45206362 0 47069.89220629 0 6
0.00350000 0.00331552 63422.05511471 0 -4737.99173012 0 21078.49548051 0 -53578.75835093 0 15679.74062218 0 7
0.00450000 0.00420575 59252.21758801 0 4822.06389247 0 -15166.98125983 0 952.06049293 0 8129.45589440 0 24
0.00550000 0.00557378 63115.01954749 0 -8604.35897819 0 -21607.75260684 0 1484.68803493 0 -16561.09767775 0 45
0.00650000 0.00659388 69600.30164027 0 -19178.48454163 0 -65536.31553883 0 7084.37237174 0 -15423.85919562 0 40
0.00750000 0.00754703 87992.20822678 0 -15154.35880954 0 -14869.13572221 0 -39393.67085602 0 -27790.42806232 0 57
0.00850000 0.00846663 81557.08376543 0 -2856.70409251 0 -24952.92338105 0 -18169.79575065 0 -3885.34521281 0 75
0.00950000 0.00948925 86179.66865396 0 6426.42161404 0 -2401.90835058 0 -22504.05730091 0 -24558.52717101 0 112
0.01050000 0.01054430 76672.19550194 0 15820.69131712 0 1141.51239950 0 -13644.31515077 0 18898.24400047 0 105
0.01150000 0.01145670 71082.33231724 0 8247.48687696 0 13018.83952176 0 944.89891323 0 -10648.04440392 0 144
0.01250000 0.01249090 64448.45962540 0 -3171.54564873 0 8905.54835791 0 2489.53472920 0 -2284.47527356 0 169
0.01350000 0.01339930 80303.80731920 0 -11850.15563716 0 10972.57424436 0 3738.63690896 0 -17000.33680330 0 180
0.01450000 0.01448870 81344.05223592 0 -5605.67446453 0 8843.85336402 0 -10446.00769295 0 -18245.19828266 0 267
0.01550000 0.01550050 85977.15583303 0 6989.27217387 0 12314.75038655 0 -22947.39318664 0 -21380.88067130 0 238
0.01650000 0.01653350 83671.78708254 0 6793.85671315 0 17879.25794741 0 -28890.68497955 0 -25632.21050867 0 315
0.01750000 0.01747870 79404.40237418 0 -1758.50662770 0 21729.21601010 0 -209.95674491 0 -21058.56529583 0 297
0.01850000 0.01844180 77275.74792780 0 792.03439679 0 19299.28360540 0 349.17129932 0 -18761.05789596 0 388
0.01950000 0.01947590 83589.96260213 0 -6942.30337199 0 28392.09819297 0 15479.33154296 0 -26283.26320801 0 399
0.02050000 0.02045430 87991.98678028 0 -1633.68831002 0 18555.33410083 0 12608.83133373 0 -23348.76496132 0 462
0.02150000 0.02154770 82855.97818990 0 10580.59180113 0 25576.29526834 0 -2110.97194365 0 -7820.05084967 0 571
0.02250000 0.02255340 76701.64788595 0 4979.87773811 0 27138.04668401 0 -6585.23196892 0 -1617.62236670 0 510
0.02350000 0.02348930 72635.00442656 0 5284.08986250 0 39335.98404372 0 -8987.72715271 0 10240.70464617 0 555
0.02450000 0.02439640 73445.83077303 0 6137.40071930 0 42099.30414871 0 -3094.31618312 0 3329.90203828 0 592
0.02550000 0.02547300 67608.05823565 0 2784.20250960 0 39866.56984903 0 3593.89947894 0 371.09339523 0 837
0.02650000 0.02652900 66456.53645451 0 851.29458645 0 40612.18020231 0 12029.41657597 0 -1589.49866167 0 723
0.02750000 0.02749970 65482.94693320 0 -2378.74504706 0 36421.96959794 0 14878.87936805 0 6554.58377382 0 826
0.02850000 0.02848090 64341.39024440 0 1753.33585201 0 25919.53733771 0 13502.14650010 0 214.80753041 0 831
0.02950000 0.02946900 66843.29276042 0 1839.14636935 0 23720.02001249 0 10819.03431609 0 2601.45378847 0 996
0.03050000 0.03053250 63477.19529231 0 362.45808910 0 24402.96100730 0 6623.26540467 0 15693.02741196 0 1041
0.03150000 0.03150510 63636.30459995 0 4366.55952176 0 23175.15090816 0 445.00669955 0 15897.53325136 0 1036
0.03250000 0.03246190 60769.12608816 0 3556.49716570 0 30379.58049791 0 -622.24251016 0 18457.78691918 0 1059
0.03350000 0.03345080 58767.36048420 0 1545.80726793 0 30308.05327958 0 2807.48760869 0 29622.78709656 0 1302
0.03450000 0.03451200 57868.39843217 0 1760.17854875 0 31849.54234084 0 3406.94327437 0 18221.61423080 0 1339
0.03550000 0.03553350 57529.47456947 0 77.95636373 0 31951.29700592 0 7738.74676852 0 20981.16974535 0 1365
0.03650000 0.03647120 54940.87575012 0 501.58849384 0 29366.35205376 0 5954.39733470 0 11320.89851082 0 1308
0.03750000 0.03744890 55810.05324839 0 -1740.30372570 0 22683.53968622 0 9726.20692882 0 10594.49864110 0 1579
0.03850000 0.03847530 55456.95680992 0 1115.00525389 0 19639.75759357 0 1699.56864269 0 5803.53690904 0 1662
0.03950000 0.03950240 55035.65485057 0 3607.90596983 0 16307.98433239 0 -1447.39644494 0 4086.31898060 0 1683
0.04050000 0.04050350 50219.08283121 0 5158.15324001 0 18445.82880838 0 -4372.13997346 0 3287.87149327 0 1822
0.04150000 0.04152450 44742.26808292 0 5059.35488566 0 16270.55987450 0 -1139.24257292 0 2220.32222356 0 1887
0.04250000 0.04250150 44186.65882352 0 2287.85233263 0 20340.85720109 0 1869.36274378 0 3318.43110977 0 1920
0.04350000 0.04349210 41336.97458494 0 963.35869317 0 17839.17613156 0 6781.11246728 0 4070.81772585 0 2005
0.04450000 0.04448520 41658.62562092 0 -950.50815299 0 17392.73999487 0 6751.98118068 0 4961.82984866 0 2151
0.04550000 0.04548030 41653.97524450 0 596.70087127 0 16694.96208480 0 262.43181392 0 3836.18409062 0 2274
0.04650000 0.04648670 39347.94215452 0 2608.76152285 0 14600.52112211 0 2716.35130311 0 2072.10808354 0 2311
0.04750000 0.04749250 37113.65772937 0 1713.45333801 0 15557.61287943 0 -1833.61020694 0 4332.24638714 0 2568
0.04850000 0.04851840 37283.50719208 0 113.74710009 0 14152.09196695 0 1120.45283770 0 2715.47658945 0 2493
0.04950000 0.04949480 37344.95859483 0 -2012.02964907 0 13028.47244436 0 -994.22722753 0 384.34143187 0 2644
0.05050000 0.05050630 38434.91824997 0 -647.07662749 0 13834.31624466 0 1504.97253400 0 -2804.92990166 0 2829
0.05150000 0.05149060 39832.90998158 0 -1049.01198350 0 12861.05889310 0 234.39447302 0 1240.07823504 0 2784
0.05250000 0.05249300 39627.40763294 0 176.46960573 0 13309.26660176 0 2442.76522916 0 283.22785440 0 3055
0.05350000 0.05348950 40157.66126851 0 716.12143060 0 12506.08015941 0 1544.34572106 0 602.47065973 0 3009
0.05450000 0.05448610 39317.27181477 0 792.43632218 0 12463.23026236 0 1280.27077413 0 869.63367805 0 3336
0.05550000 0.05550870 37668.27047953 0 2028.48312375 0 13558.28318693 0 1436.43484337 0 539.32297682 0 3349
0.05650000 0.05647670 36502.46539938 0 2461.01242047 0 12706.15706889 0 -615.08203770 0 4718.28299194 0 3324
0.05750000 0.05747970 34246.14704783 0 1956.49086778 0 12179.33585401 0 2081.05452199 0 4491.87609405 0 3639
0.05850000 0.05849280 33698.50986230 0 -294.41976032 0 11204.19620724 0 1285.08723543 0 3228.19166250 0 3846
0.05950000 0.05951020 33467.20899684 0 -404.50302813 0 11250.92141797 0 2724.05764118 0 2534.63230819 0 3787
0.06050000 0.06049470 35224.82983855 0 -2.24376234 0 12055.54726254 0 -346.90590166 0 1531.71219844 0 3930
0.06150000 0.06148310 33671.38266650 0 1281.22299406 0 12195.83361799 0 -1787.02893643 0 1042.33537164 0 4083
0.06250000 0.06249100 32707.97968403 0 2223.43354683 0 13428.73698655 0 -2150.85445765 0 2364.35102480 0 4303
0.06350000 0.06350600 31010.92445907 0 1436.10267363 0 13320.44964982 0 -17.00753381 0 1586.65307419 0 4470
0.06450000 0.06451750 31556.90079588 0 -285.88078342 0 14068.16374483 0 -96.64567297 0 1373.16757936 0 4479
0.06550000 0.06550280 30472.92019613 0 -679.09668364 0 13599.02934226 0 1858.94368613 0 -325.36247926 0 4636
0.06650000 0.06648880 31555.68284015 0 32.39939399 0 10025.86832771 0 3451.85262384 0 -1515.69054442 0 4653
0.06750000 0.06749660 30473.25236588 0 634.38220709 0 9714.23774569 0 1951.17615187 0 -1023.05291797 0 5220
0.06850000 0.06852730 30394.97102941 0 712.40555839 0 8782.46839523 0 194.52635304 0 -1462.32193880 0 5029
0.06950000 0.06949320 29173.80432516 0 584.59439131 0 9496.34546558 0 454.35174170 0 172.12814717 0 5040
0.07050000 0.07048030 29226.50859130 0 1093.45297363 0 9457.11621875 0 408.13253621 0 -184.88014366 0 5475
0.07150000 0.07148790 27883.54631405 0 449.31051221 0 10056.50545048 0 828.40144765 0 3037.63695237 0 5509
0.07250000 0.07249820 28461.30022308 0 -643.96087529 0 10260.56839689 0 709.22558670 0 1262.69899464 0 5916
0.07350000 0.07351270 29168.60033250 0 -328.68417671 0 10578.25554059 0 -705.94485686 0 797.28046429 0 5721
0.07450000 0.07449140 28694.15121402 0 1148.79798923 0 11253.35732943 0 -11.18791989 0 276.97641980 0 6028
0.07550000 0.07549160 27523.69575744 0 1285.51905609 0 10659.59283871 0 -349.44700021 0 511.39414470 0 6183
0.07650000 0.07648840 26754.61207554 0 568.79750549 0 10657.90984533 0 376.98719373 0 525.79591759 0 6330
0.07750000 0.07749960 26688.95318936 0 674.66996817 0 10916.72543797 0 750.75676986 0 -964.51464388 0 6583
0.07850000 0.07848650 26381.47472915 0 318.71354821 0 10032.75531375 0 263.01421821 0 542.24164165 0 6549
0.07950000 0.07947320 25843.13829647 0 485.88793725 0 11544.33802567 0 673.02572794 0 1535.66501840 0 6828
0.08050000 0.08048110 25597.00051575 0 525.61100977 0 11486.54049011 0 1087.19157394 0 2036.22267880 0 7147
0.08150000 0.08149960 25203.71153819 0 550.06423913 0 11015.03661003 0 761.36294981 0 2997.92052325 0 7386
0.08250000 0.08250610 24772.66593300 0 214.18748022 0 11121.15377110 0 1345.69714148 0 2446.49660263 0 7227
0.08350000 0.08350160 24525.75308954 0 565.83233690 0 11813.28479551 0 197.82147691 0 3098.78940234 0 7798
0.08450000 0.08449610 24304.52803967 0 557.46608827 0 10406.82273542 0 1391.71372343 0 2791.98635395 0 7371
0.08550000 0.08548940 23339.57493172 0 355.65635996 0 10126.63755589 0 639.65041924 0 1773.35461528 0 8256
0.08650000 0.08650700 22757.05992301 0 494.47784684 0 9442.40109907 0 257.25328760 0 596.09078617 0 8037
0.08750000 0.08749060 22292.46517362 0 710.40921822 0 9162.88025902 0 571.38400057 0 845.04425909 0 8155
0.08850000 0.08849210 21498.24731438 0 872.39511586 0 8939.20822536 0 -204.97752044 0 -406.20484446 0 8718
0.08950000 0.08949900 20879.08291052 0 651.24867949 0 7913.65628368 0 15.99308741 0 40.01338888 0 8571
0.09050000 0.09049190 20543.37002202 0 401.21233320 0 9563.54340491 0 431.47521139 0 1806.66016833 0 8932
0.09150000 0.09150830 20320.26267692 0 251.78688084 0 8580.05522522 0 1440.50945891 0 1090.31396954 0 9285
0.09250000 0.09250820 19909.47942615 0 323.09375991 0 8210.13992535 0 1606.09607657 0 2465.45242272 0 9204
0.09350000 0.09350330 19940.81410539 0 129.33250451 0 7398.05133385 0 1566.00318840 0 1095.67961815 0 9349
0.09450000 0.09448040 19237.50003291 0 422.78675811 0 7169.16423520 0 1052.99026981 0 2448.92144176 0 9564
0.09550000 0.09549270 18710.78954129 0 687.30238356 0 6810.38769410 0 996.70632106 0 2485.86978968 0 10155
0.09650000 0.09649430 18381.49860118 0 431.75534121 0 5668.99709017 0 671.24972704 0 2423.77619210 0 9913
0.09750000 0.09749140 17611.30768679 0 283.31754023 0 5191.73560119 0 722.92094527 0 1801.88799634 0 10476
0.09850000 0.09850240 17651.61094913 0 123.35012741 0 4665.11368817 0 420.58557993 0 1466.16403551 0 10575
0.09950000 0.09950330 17631.90221096 0 232.40699071 0 4667.39458708 0 -237.15037466 0 1346.29504702 0 10882
0.10050000 0.10051200 17294.52847373 0 250.18692990 0 4444.02150619 0 -448.84658180 0 605.63845186 0 10875
0.10150000 0.10150300 17088.14033911 0 431.49292711 0 4808.00203995 0 -433.27889311 0 960.49096104 0 11118
0.10250000 0.10250800 16969.22357056 0 147.47783042 0 5235.20554843 0 -746.81170053 0 -424.01689340 0 11575
0.10350000 0.10349800 16511.38293931 0 464.75529810 0 5841.22710273 0 -26.03169999 0 -83.59915263 0 11364
0.10450000 0.10450100 16037.81960682 0 779.23257483 0 5489.91330856 0 188.71338251 0 -180.72802185 0 12093
0.10550000 0.10551000 15611.53510130 0 524.82266024 0 5522.64310072 0 452.87026464 0 575.69224216 0 12067
0.10650000 0.10649700 15403.48611796 0 -75.89724349 0 4750.03841952 0 830.89936413 0 852.54243746 0 12054
0.10750000 0.10749900 15537.68269476 0 -355.50799081 0 4566.45927403 0 1138.56716110 0 162.34242649 0 12807
0.10850000 0.10850100 15840.17860880 0 -278.72473989 0 4372.97039783 0 630.71505311 0 -12.52601034 0 12736
0.10950000 0.10950300 15642.53761079 0 241.81403788 0 4032.91715799 0 36.79776430 0 109.92393706 0 12933
0.11050000 0.11050200 15371.59782248 0 840.58764835 0 4680.73673848 0 -279.94380285 0 529.51843320 0 13428
0.11150000 0.11150900 14709.91569132 0 751.62705459 0 4130.34254407 0 -560.22752608 0 435.14236537 0 13453
0.11250000 0.11250000 14336.22472869 0 252.67820299 0 4769.27104773 0 121.53980230 0 459.56237776 0 13668
0.11350000 0.11349100 14212.32541397 0 -47.24693868 0 4815.55336548 0 -205.87216428 0 85.16954046 0 13791
0.11450000 0.11448600 14296.14291284 0 72.25987406 0 4769.08281821 0 -132.82360852 0 413.97097309 0 14205
0.11550000 0.11549300 14331.02073602 0 -302.01316068 0 4935.00160562 0 -93.94779030 0 -333.27144088 0 14776
0.11650000 0.11649800 14469.86768925 0 67.21643011 0 4624.05750774 0 125.72957001 0 -740.97879982 0 14553
0.11750000 0.11747300 14554.46025086 0 237.88004087 0 4892.94891596 0 -586.04265140 0 -1331.75708454 0 14568
0.11850000 0.11849100 14181.21218123 0 267.64244998 0 4712.87969743 0 -71.58700888 0 -1668.27825275 0 16015
0.11950000 0.11950300 13699.23388187 0 402.95068820 0 4553.96969164 0 -255.16172545 0 -1150.90173095 0 15270
0.12050000 0.12050700 13618.18446420 0 411.27375476 0 4803.71705024 0 340.50166899 0 -1928.57753691 0 15999
0.12150000 0.12150000 13250.58328022 0 89.29752460 0 4110.53415497 0 539.62192959 0 -903.76079760 0 15670
0.12250000 0.12250700 13337.27958355 0 -135.64040796 0 4207.46128644 0 1099.37888187 0 -1180.49805519 0 16887
0.12350000 0.12352200 13531.48816087 0 -308.22916384 0 3476.38889564 0 739.93800128 0 -1023.62646439 0 16407
0.12450000 0.12449800 13589.39641967 0 -20.48202934 0 3713.96776927 0 305.75228477 0 -911.27115553 0 16306
0.12550000 0.12549900 13391.86614490 0 336.37833522 0 3590.83244496 0 -307.57257497 0 -65.94953470 0 17523
0.12650000 0.12650100 13281.03217347 0 531.60667366 0 3304.07030448 0 62.91151022 0 -9.47272820 0 17154
0.12750000 0.12750600 12922.06740285 0 47.83321828 0 3454.74250061 0 555.73659114 0 140.48012114 0 18007
0.12850000 0.12850300 12786.43142382 0 92.45424441 0 3166.34165606 0 572.64846006 0 -184.11172432 0 17496
0.12950000 0.12949900 12708.15008735 0 191.53239641 0 2747.33166795 0 314.18939629 0 -564.26228125 0 18405
0.13050000 0.13049000 12597.42683917 0 76.85765694 0 2803.57907803 0 83.05206906 0 18.13591444 0 18100
0.13150000 0.13148800 12424.47712550 0 182.12092031 0 2739.01635201 0 -308.30334841 0 -432.99101266 0 19059
0.13250000 0.13249300 12367.34392944 0 102.44845696 0 2890.78470830 0 -53.57986558 0 -232.40588348 0 18957
0.13350000 0.13349100 12351.73195144 0 249.38750805 0 3389.57079673 0 -592.54542776 0 -630.34855916 0 19468
0.13450000 0.13450700 12089.20712999 0 415.98835067 0 3858.33981258 0 -642.49157779 0 -227.65917783 0 19953
0.13550000 0.13551000 11943.16316563 0 356.20333281 0 4555.56410641 0 -715.72947030 0 -33.13160683 0 19956
0.13650000 0.13649900 11729.02440364 0 237.06290330 0 4849.23537757 0 -95.41243743 0 663.03406202 0 19723
0.13750000 0.13749600 11777.96407934 0 -94.52543349 0 4801.43615133 0 583.64881477 0 1072.60821492 0 20946
0.13850000 0.13851100 11896.99157114 0 -214.62594428 0 4873.81593867 0 859.09282482 0 801.20892513 0 20955
0.13950000 0.13949800 11943.82750512 0 45.72737282 0 4425.14319237 0 726.08873740 0 974.80415534 0 20506
0.14050000 0.14048300 11724.70619696 0 198.72054968 0 4178.03104707 0 798.98449508 0 1199.79711735 0 21447
0.14150000 0.14148400 11723.59896448 0 9.51193530 0 3675.04854753 0 385.33019048 0 1213.31642595 0 21771
0.14250000 0.14249400 11400.72997277 0 278.40032078 0 3691.91169823 0 -4.49161036 0 932.04837305 0 22470
0.14350000 0.14350900 11228.66604509 0 351.08127535 0 3526.87869681 0 -341.63547505 0 671.76348291 0 22519
0.14450000 0.14449900 10871.90466710 0 191.14597227 0 3478.52585433 0 134.60403836 0 706.75092210 0 22218
0.14550000 0.14550500 10904.52373602 0 167.79333200 0 3241.43416298 0 -277.00742231 0 236.04646388 0 23559
0.14650000 0.14650700 10786.11629441 0 115.49652742 0 3396.76780786 0 168.00481340 0 255.77181054 0 23044
0.14750000 0.14750500 10560.03049394 0 195.63247829 0 3194.79753085 0 61.77006425 0 -79.22336986 0 23649
0.14850000 0.14849900 10464.98565769 0 74.66987628 0 3393.94436504 0 168.05463886 0 75.54115752 0 23640
0.14950000 0.14949500 10269.95772834 0 181.66916946 0 3206.16880844 0 359.82509026 0 -355.10274372 0 24457
0.15050000 0.15050000 10217.77386147 0 237.29320765 0 3279.66690058 0 -209.51274468 0 -554.76333378 0 24591
0.15150000 0.15149900 10071.61917386 0 110.08470721 0 3152.47910539 0 -101.34067086 0 -522.41996576 0 25020
0.15250000 0.15250500 10097.56163091 0 147.52654865 0 3182.46296100 0 -50.35615821 0 -484.11747251 0 25297
0.15350000 0.15350100 9831.31650832 0 183.31562416 0 3148.79202123 0 -214.44767986 0 -335.37850429 0 25452
0.15450000 0.15450400 9794.50102830 0 150.86264012 0 2940.59909766 0 481.01611433 0 -750.01824580 0 26061
0.15550000 0.15549900 9674.91992026 0 46.41319262 0 2838.62298608 0 407.68964322 0 -261.78297569 0 26128
0.15650000 0.15649500 9629.20229108 0 118.39304759 0 2626.16721746 0 473.47364666 0 -662.56127375 0 26331
0.15750000 0.15749700 9433.26643109 0 138.50814009 0 2729.29485082 0 328.02426615 0 -124.49500580 0 27345
0.15850000 0.15849900 9432.76817648 0 143.39767873 0 2655.33172103 0 106.86177491 0 217.27665885 0 26980
0.15950000 0.15949700 9223.82233482 0 134.63614810 0 2489.60116315 0 -66.59051158 0 526.43921966 0 27777
0.16050000 0.16050000 9298.75982920 0 48.99415154 0 2647.99076968 0 240.15872532 0 683.29198751 0 28224
0.16150000 0.16150500 9114.49419956 0 71.57272558 0 2528.15499817 0 230.07405187 0 672.77438617 0 28075
0.16250000 0.16249700 9106.09030503 0 108.62238528 0 2583.54983923 0 169.81624574 0 478.70199844 0 28590
0.16350000 0.16349900 8960.35636576 0 108.07884485 0 2256.62837664 0 12.48316045 0 401.49135578 0 29163
0.16450000 0.16449100 8774.33023649 0 137.62346133 0 2405.05289083 0 -57.23639013 0 512.98523778 0 28996
0.16550000 0.16550500 8756.60344445 0 245.50444374 0 2359.44598490 0 -108.16476609 0 314.46398994 0 30777
0.16650000 0.16650700 8552.49620874 0 118.54806014 0 2401.56510851 0 109.37818217 0 517.85706070 0 29211
0.16750000 0.16749900 8451.42802780 0 86.38494956 0 2231.49419930 0 22.33852604 0 317.15013594 0 30922
0.16850000 0.16850800 8488.23243550 0 136.15194936 0 2344.19939363 0 170.91462037 0 259.86303456 0 30867
0.16950000 0.16949900 8417.33633968 0 51.93097497 0 2325.21035657 0 78.29429109 0 435.99936331 0 30852
0.17050000 0.17049200 8294.99822276 0 112.50035632 0 2442.88702474 0 23.49436603 0 442.20318691 0 31257
0.17150000 0.17149500 8311.44062512 0 138.39963130 0 2403.36989746 0 -37.76559621 0 683.89764368 0 32608
0.17250000 0.17250900 8166.50389324 0 145.44273712 0 2466.28284708 0 107.39833977 0 800.52133376 0 32361
0.17350000 0.17350400 8105.84969788 0 114.15899058 0 2542.48258648 0 129.08226997 0 925.91209063 0 32508
0.17450000 0.17449800 8052.02712694 0 -17.17727255 0 2380.92629505 0 227.84851458 0 599.07588494 0 32791
0.17550000 0.17549800 7921.55085128 0 150.06432550 0 2425.24881130 0 4.85200346 0 782.24313995 0 33633
0.17650000 0.17650100 7873.23122577 0 192.43036195 0 2313.98301920 0 -52.79926668 0 357.24634581 0 33984
0.17750000 0.17750300 7665.91301586 0 151.34982241 0 2175.91112871 0 127.77462841 0 482.77107781 0 34069
0.17850000 0.17849800 7530.18845824 0 197.83808539 0 2034.63933635 0 -4.38790696 0 409.03935961 0 34536
