### header ###
fiducial parameters:
Omega_m = 0.31
Omega_nu = 0
Omega_de = 0.69
Omega_k = 0
H_0 = 100
w_de = -1
zeff = 0
beta = 0
fgrowth = 0
b_1 = 2
gamma = 0.55
Lx = 3500 Ly = 3500 Lz = 3500
nx = 700 ny = 700 nz = 700
xoffset = -685.467585 yoffset = -31.7331281 zoffset = 572.489161
bins = 400 dk = 0.001
kx_ny = 0.628318531 ky_ny = 0.628318531 kz_ny = 0.628318531
############################
A(data) = 8.05111631 (not used)
A(ran) = 8.04719674 (used)
Ngal = 478391
weighted Ngal = 0
Nran = 23820508
weighted Nran = 0
SN(data) = 3489.69083
SN(ran) = 70.094002
SN(data+ran) = 3559.78483
############################
13 columns: k_central k_mean P_0(k) sigma^{lin}_{P_0(k)} P^img_1(k) sigma^{lin}_{P_1(k)} P_2(k) sigma^{lin}_{P_2(k)} P^img_3(k) sigma^{lin}_{P_3(k)} P_4(k) sigma^{lin}_{P_4(k)} N_modes
### header ###
0.00050000 0 0 0 0 0 0 0 0 0 0 0 0
0.00150000 0.00179520 18335.88062293 0 -15040.75675690 0 9495.33788403 0 16637.71816549 0 -96915.39479812 0 3
0.00250000 0.00253879 39262.68525342 0 -18356.14297734 0 16595.53260793 0 5024.73172595 0 71989.82005938 0 6
0.00350000 0.00331552 52395.56972081 0 -16728.84339875 0 -14725.85983906 0 -20227.58731819 0 -54947.96203801 0 7
0.00450000 0.00420575 58670.25619554 0 -4969.07114909 0 -12471.75595248 0 -20024.41015777 0 8278.84370085 0 24
0.00550000 0.00557378 59542.75539125 0 -5111.91521157 0 -9268.01198317 0 1265.16812308 0 4956.40440949 0 45
0.00650000 0.00659388 59459.93440161 0 -12349.07459348 0 -14830.38258534 0 14558.22484130 0 32786.48246699 0 40
0.00750000 0.00754703 77554.43834349 0 -17104.41665660 0 21350.65322455 0 -36254.99893968 0 -64015.19955524 0 57
0.00850000 0.00846663 78030.32686419 0 5246.00106513 0 22721.29631385 0 -20317.16242598 0 15060.35477183 0 75
0.00950000 0.00948925 73938.32778096 0 13862.66139619 0 48419.16570869 0 -18738.91324633 0 20568.06130637 0 112
0.01050000 0.01054430 77456.55899209 0 -9332.75186639 0 51071.87328874 0 -12478.73151711 0 5415.93910644 0 105
0.01150000 0.01145670 95780.81367396 0 -13252.35485219 0 65786.32863324 0 415.62407118 0 10257.61208617 0 144
0.01250000 0.01249090 95971.58983058 0 6274.27679871 0 79922.80862219 0 3014.01968353 0 -10334.60903295 0 169
0.01350000 0.01339930 99012.71456527 0 10914.68813020 0 66414.12945045 0 14600.41039886 0 14255.61820401 0 180
0.01450000 0.01448870 90928.69949193 0 9652.34344995 0 44416.29884026 0 23896.62359335 0 9626.29026966 0 267
0.01550000 0.01550050 87473.13763928 0 -1910.67358768 0 37566.62653770 0 25416.07872821 0 -437.06452096 0 238
0.01650000 0.01653350 89181.59735879 0 -9094.05468795 0 26899.77025391 0 30089.37486442 0 -29343.32161814 0 315
0.01750000 0.01747870 86896.82313247 0 8216.98262209 0 10458.01009306 0 -6046.81802996 0 -28603.80104350 0 297
0.01850000 0.01844180 84361.92508849 0 5835.12625175 0 1286.24982953 0 4074.85912441 0 -26327.77395378 0 388
0.01950000 0.01947590 77137.34386757 0 2183.09706752 0 73.27631348 0 -11273.95185359 0 -17300.50752913 0 399
0.02050000 0.02045430 78051.91789759 0 2190.26086168 0 6982.45162178 0 -6712.22046226 0 -30236.30461476 0 462
0.02150000 0.02154770 77314.39034142 0 2000.17118919 0 12694.08823483 0 -7789.83447524 0 -23386.07869596 0 571
0.02250000 0.02255340 78300.15942002 0 6263.58093293 0 17586.28423270 0 -1372.21535942 0 -16436.31257704 0 510
0.02350000 0.02348930 71809.89478108 0 -495.03589201 0 21182.24316406 0 -1001.96124642 0 -6493.97386776 0 555
0.02450000 0.02439640 74678.95558808 0 1948.09804557 0 25324.95349495 0 5374.06357398 0 -15537.35052501 0 592
0.02550000 0.02547300 67544.72453768 0 7877.58264942 0 26777.97468090 0 5129.83023313 0 -4753.31582767 0 837
0.02650000 0.02652900 59942.68776370 0 10153.49901590 0 27085.45314112 0 7572.69511322 0 11895.66289216 0 723
0.02750000 0.02749970 55886.67373613 0 3454.79786224 0 19753.80253920 0 12013.36170498 0 12903.68734365 0 826
0.02850000 0.02848090 52588.56034240 0 -3414.78248034 0 20526.20791855 0 15607.54906436 0 18534.85029992 0 831
0.02950000 0.02946900 53429.50341238 0 894.91733177 0 12920.18510763 0 15337.82723178 0 13930.86691708 0 996
0.03050000 0.03053250 55270.72030647 0 -2057.90229079 0 8739.90637862 0 3466.04734425 0 10772.77414300 0 1041
0.03150000 0.03150510 52378.18617085 0 251.88763900 0 4810.63725326 0 2443.57350888 0 18720.09029413 0 1036
0.03250000 0.03246190 52742.02276439 0 1037.93522975 0 6538.39603493 0 79.72959655 0 12780.45236842 0 1059
0.03350000 0.03345080 51891.55749507 0 463.24171130 0 3655.07407356 0 618.50006437 0 11371.83120499 0 1302
0.03450000 0.03451200 52211.54768233 0 -1663.33999588 0 4572.28331689 0 -5410.43616101 0 2412.01738314 0 1339
0.03550000 0.03553350 52138.91323152 0 -84.83947446 0 6613.22280606 0 -3496.76197330 0 2356.67790370 0 1365
0.03650000 0.03647120 52251.40805167 0 2614.39733618 0 7180.42478954 0 -3063.83407289 0 2910.24985533 0 1308
0.03750000 0.03744890 51487.52836244 0 2203.12690311 0 8075.55581718 0 -3440.27097208 0 5366.31294661 0 1579
0.03850000 0.03847530 50847.88015766 0 32.24460289 0 11276.71993480 0 2703.68456352 0 4088.25663744 0 1662
0.03950000 0.03950240 50117.88178237 0 1847.37310669 0 12215.76380267 0 1451.50427745 0 5491.70702518 0 1683
0.04050000 0.04050350 48168.59899805 0 2586.74974111 0 10846.33866910 0 2443.85031700 0 7832.48507044 0 1822
0.04150000 0.04152450 46698.63715512 0 948.87719954 0 15544.65825939 0 -162.64248649 0 9606.03898756 0 1887
0.04250000 0.04250150 45869.76291920 0 2606.62456416 0 17551.84930252 0 -309.39397241 0 8597.12875009 0 1920
0.04350000 0.04349210 44754.11547047 0 1297.01212926 0 17868.29634584 0 662.47823132 0 7245.09823881 0 2005
0.04450000 0.04448520 43734.13290818 0 628.85158084 0 14873.89682188 0 671.06814091 0 8997.05005021 0 2151
0.04550000 0.04548030 43979.38490291 0 -581.60375638 0 16237.45362330 0 443.96811549 0 6264.73245471 0 2274
0.04650000 0.04648670 43080.31212764 0 -1101.39072329 0 14668.28375000 0 468.61068160 0 -2117.89214666 0 2311
0.04750000 0.04749250 44219.98652122 0 1471.93271674 0 13781.50125527 0 -1126.27688055 0 899.19789254 0 2568
0.04850000 0.04851840 42408.99707388 0 2948.07291691 0 16182.53489220 0 -1854.80263665 0 -3727.69745204 0 2493
0.04950000 0.04949480 39906.43021837 0 2147.76527902 0 12748.45334969 0 -454.05943233 0 1913.71847701 0 2644
0.05050000 0.05050630 38040.52203993 0 353.94125685 0 13090.58818659 0 1644.78277949 0 -200.68256564 0 2829
0.05150000 0.05149060 37642.69340920 0 42.48927143 0 9813.80009046 0 5607.30209628 0 -2015.20740629 0 2784
0.05250000 0.05249300 38933.72648305 0 -374.91224006 0 11799.00149649 0 4631.23237422 0 -4847.05412959 0 3055
0.05350000 0.05348950 36746.83160812 0 1457.81550260 0 8955.89421886 0 -258.43359743 0 -259.19980231 0 3009
0.05450000 0.05448610 35744.23259579 0 2695.78999592 0 8885.49637766 0 1079.36897646 0 1439.66796222 0 3336
0.05550000 0.05550870 34187.46372629 0 1023.50688328 0 9165.19437491 0 73.87798361 0 2089.50270583 0 3349
0.05650000 0.05647670 32858.67402481 0 1286.58199928 0 8362.73870600 0 183.35548453 0 4185.59344492 0 3324
0.05750000 0.05747970 33165.82031528 0 446.71183758 0 9933.65800662 0 1043.96300339 0 1532.75299697 0 3639
0.05850000 0.05849280 32580.75867186 0 -17.88003301 0 10745.19298188 0 -904.22583524 0 1714.33912400 0 3846
0.05950000 0.05951020 32676.75572804 0 1049.47037775 0 12919.85293789 0 -2604.11114642 0 922.79412397 0 3787
0.06050000 0.06049470 31746.01610378 0 1531.88935563 0 12249.64511661 0 -1474.87795514 0 666.23285666 0 3930
0.06150000 0.06148310 31885.19522675 0 327.44961249 0 14813.22048187 0 -1126.74191820 0 1650.89470278 0 4083
0.06250000 0.06249100 30732.45548988 0 111.76847565 0 13281.58578971 0 170.88029616 0 945.20561663 0 4303
0.06350000 0.06350600 31821.08646605 0 -182.56713500 0 15402.48960872 0 1867.54688251 0 -709.14586596 0 4470
0.06450000 0.06451750 31362.80294181 0 77.14365509 0 12919.41004489 0 2129.79489584 0 -2667.88773738 0 4479
0.06550000 0.06550280 31432.00497192 0 345.82413553 0 13498.16046316 0 1298.29651894 0 1020.63361499 0 4636
0.06650000 0.06648880 30685.28738616 0 934.85188569 0 12580.48618219 0 170.42965254 0 -896.50288868 0 4653
0.06750000 0.06749660 30264.20687330 0 470.52508656 0 12580.70762869 0 -804.42764996 0 -870.95903533 0 5220
0.06850000 0.06852730 29330.14555160 0 512.34193571 0 10676.56671265 0 1863.11795258 0 -437.38672561 0 5029
0.06950000 0.06949320 29722.88091292 0 -163.54709543 0 10151.15168303 0 2826.72023690 0 -1763.28987202 0 5040
0.07050000 0.07048030 29401.67276993 0 -410.34367948 0 8361.35466540 0 1814.63224220 0 -2601.84131983 0 5475
0.07150000 0.07148790 29615.03646919 0 571.23452418 0 8466.16529213 0 1338.00187573 0 -3379.71642764 0 5509
0.07250000 0.07249820 28598.59705083 0 548.29488162 0 8250.63141721 0 -690.60525805 0 -1503.21203435 0 5916
0.07350000 0.07351270 28882.60218243 0 555.36345379 0 7295.89806508 0 -517.59575383 0 -1840.75185645 0 5721
0.07450000 0.07449140 28426.42239990 0 -424.74545237 0 9087.55523328 0 501.33050867 0 -580.01044884 0 6028
0.07550000 0.07549160 28869.42611590 0 100.89999233 0 9348.03167464 0 -154.26073661 0 -1452.22397856 0 6183
0.07650000 0.07648840 28739.54774577 0 468.88748972 0 9556.40175540 0 -59.93759449 0 -1580.80688668 0 6330
0.07750000 0.07749960 27982.75434442 0 935.14862400 0 8897.39912684 0 -253.66474713 0 -1853.80612741 0 6583
0.07850000 0.07848650 27101.84018185 0 1255.75664698 0 9732.98319161 0 -34.08736991 0 -1005.08142755 0 6549
0.07950000 0.07947320 26236.09510428 0 1009.44945969 0 9415.11889071 0 943.99873323 0 -1112.46969150 0 6828
0.08050000 0.08048110 25485.05931183 0 673.04122919 0 8902.29309441 0 644.89648674 0 -645.94725036 0 7147
0.08150000 0.08149960 24486.99995268 0 918.19357300 0 9400.45913265 0 699.24167141 0 -687.50279264 0 7386
0.08250000 0.08250610 23913.67497357 0 779.85262502 0 8731.10388039 0 390.58733030 0 292.58064717 0 7227
0.08350000 0.08350160 22795.92378313 0 1011.62295706 0 9109.65559362 0 712.51849610 0 1285.66299632 0 7798
0.08450000 0.08449610 22427.21536666 0 609.57134164 0 8017.32646096 0 660.25380126 0 799.65769242 0 7371
0.08550000 0.08548940 21568.22440723 0 361.85796910 0 8328.48093301 0 1174.59650606 0 847.91199122 0 8256
0.08650000 0.08650700 21442.88569029 0 572.99059490 0 7726.95474259 0 -473.75931264 0 -1222.29608138 0 8037
0.08750000 0.08749060 20294.46416010 0 1138.87718620 0 7431.87728617 0 433.07405510 0 -0.47438379 0 8155
0.08850000 0.08849210 20020.20267434 0 571.60655430 0 6958.69041272 0 -934.81091809 0 -242.32779375 0 8718
0.08950000 0.08949900 19383.10110427 0 8.46567811 0 7178.27675853 0 900.84324001 0 -136.74431874 0 8571
0.09050000 0.09049190 19854.11780206 0 -305.16102263 0 8141.52472845 0 267.60369684 0 -1353.70243233 0 8932
0.09150000 0.09150830 19731.87933606 0 304.70262838 0 7425.95359240 0 491.89688793 0 -646.31928048 0 9285
0.09250000 0.09250820 19641.19699580 0 441.98063318 0 8189.93293256 0 812.46394331 0 441.41262292 0 9204
0.09350000 0.09350330 19208.26909539 0 317.74693425 0 7369.41830187 0 749.97395650 0 1768.87032373 0 9349
0.09450000 0.09448040 19499.02834513 0 -161.61165305 0 7611.66969658 0 1248.79215467 0 1893.04644657 0 9564
0.09550000 0.09549270 19070.08648165 0 36.45917261 0 6644.16995393 0 838.06205106 0 1378.12798088 0 10155
0.09650000 0.09649430 19119.13688060 0 205.65403948 0 6509.54155646 0 -309.03522908 0 416.97157311 0 9913
0.09750000 0.09749140 18764.82248640 0 846.58331224 0 6619.31258471 0 -290.61641675 0 1082.52458903 0 10476
0.09850000 0.09850240 17867.96417609 0 615.06100028 0 6132.06385874 0 -369.61081093 0 560.68149140 0 10575
0.09950000 0.09950330 17894.98064865 0 -23.91389642 0 6832.23339097 0 372.70441849 0 713.01342902 0 10882
0.10050000 0.10051200 17743.84341487 0 369.08819720 0 6849.31798816 0 -24.33896297 0 334.24469823 0 10875
0.10150000 0.10150300 17390.52552991 0 600.85299307 0 7330.62087571 0 -249.17602665 0 -520.07041843 0 11118
0.10250000 0.10250800 17135.86205908 0 585.08046637 0 7495.48779226 0 -278.81885465 0 915.99460929 0 11575
0.10350000 0.10349800 16451.03876905 0 215.85940127 0 7285.74474322 0 -42.95464124 0 1091.30604985 0 11364
0.10450000 0.10450100 16748.99502992 0 -19.44898144 0 7821.22451610 0 414.27214032 0 874.88638894 0 12093
0.10550000 0.10551000 16945.75024195 0 -186.64285777 0 7517.77638212 0 965.16791105 0 1016.73504942 0 12067
0.10650000 0.10649700 16770.58606331 0 62.71863032 0 6868.36238685 0 1248.26068308 0 -104.55585254 0 12054
0.10750000 0.10749900 16384.82626663 0 284.29079758 0 6102.96578911 0 482.07573581 0 -136.79635867 0 12807
0.10850000 0.10850100 16308.64867188 0 248.98890436 0 5607.71177230 0 604.64083539 0 -379.86710541 0 12736
0.10950000 0.10950300 15832.98159767 0 300.30691543 0 5187.76063658 0 -57.29983455 0 -464.48070444 0 12933
0.11050000 0.11050200 15856.67637278 0 -112.81813204 0 5139.49637270 0 -358.27496478 0 -576.28682600 0 13428
0.11150000 0.11150900 15479.44226621 0 277.36284394 0 5757.83035219 0 59.07439605 0 -1046.26051079 0 13453
0.11250000 0.11250000 15536.79690877 0 226.12676807 0 5362.68122406 0 -25.80361010 0 -542.39997589 0 13668
0.11350000 0.11349100 15128.67101596 0 536.76526979 0 5956.92182476 0 306.05013031 0 -521.76891306 0 13791
0.11450000 0.11448600 15138.30393855 0 424.97243503 0 5129.02195342 0 -80.05047253 0 -129.40336739 0 14205
0.11550000 0.11549300 14751.10473964 0 112.92996252 0 5789.22039305 0 415.19114328 0 -93.09223176 0 14776
0.11650000 0.11649800 14639.16353573 0 209.46624092 0 5726.97178292 0 571.32974618 0 383.26077297 0 14553
0.11750000 0.11747300 14588.12011831 0 181.93269079 0 5685.91560250 0 94.75972388 0 7.20861493 0 14568
0.11850000 0.11849100 14245.21021868 0 344.24190031 0 5197.85859681 0 265.93399026 0 92.43929677 0 16015
0.11950000 0.11950300 13967.95920522 0 218.17130269 0 5134.95671952 0 -30.92112790 0 -43.32157809 0 15270
0.12050000 0.12050700 13663.69171920 0 279.28057060 0 5408.75316763 0 77.46641336 0 -113.83124976 0 15999
0.12150000 0.12150000 13700.56256085 0 283.22896163 0 5219.62678741 0 -292.87184931 0 -378.40777300 0 15670
0.12250000 0.12250700 13401.49906750 0 125.30439274 0 5289.10562564 0 329.20568321 0 -152.17138891 0 16887
0.12350000 0.12352200 13378.02573888 0 129.30814539 0 5400.60393657 0 109.87012556 0 -583.18709883 0 16407
0.12450000 0.12449800 13311.59178997 0 125.57787916 0 5186.31016203 0 567.65041264 0 -371.94485701 0 16306
0.12550000 0.12549900 13180.93835711 0 155.48201403 0 4934.85766540 0 1034.04109312 0 -243.91667236 0 17523
0.12650000 0.12650100 12967.35321136 0 10.08125210 0 4689.70532159 0 479.45934546 0 -285.10793515 0 17154
0.12750000 0.12750600 12894.49731405 0 109.00648422 0 4443.15786485 0 316.01411542 0 -371.14432792 0 18007
0.12850000 0.12850300 12878.11027332 0 203.02879127 0 4514.55221528 0 216.94116740 0 3.85639108 0 17496
0.12950000 0.12949900 12584.36149588 0 341.71076686 0 4142.66604160 0 -508.01265670 0 -138.97317773 0 18405
0.13050000 0.13049000 12253.40970705 0 322.10167960 0 4243.51277605 0 -286.01032962 0 -82.70096564 0 18100
0.13150000 0.13148800 12367.89754568 0 35.26059345 0 4275.61144569 0 -91.80164158 0 -610.36633456 0 19059
0.13250000 0.13249300 12263.92841563 0 -7.44365824 0 4149.02155604 0 74.28489155 0 7.30217607 0 18957
0.13350000 0.13349100 12370.22273389 0 14.97277268 0 4126.09077134 0 514.94393204 0 -601.03125750 0 19468
0.13450000 0.13450700 12322.16884418 0 -20.96799368 0 3553.03152803 0 623.10947319 0 205.21557542 0 19953
0.13550000 0.13551000 12373.98732433 0 11.86266736 0 3309.20786320 0 831.80175861 0 -303.32855287 0 19956
0.13650000 0.13649900 12271.12542676 0 -99.30956359 0 3149.62244559 0 647.34568499 0 238.56652501 0 19723
0.13750000 0.13749600 12184.76129318 0 229.97661541 0 3202.08312058 0 -59.43933988 0 28.53293816 0 20946
0.13850000 0.13851100 11958.55369713 0 511.99869364 0 3128.17535241 0 -256.87793579 0 10.48398577 0 20955
0.13950000 0.13949800 11633.58096370 0 351.28279166 0 3405.40422122 0 -686.03128067 0 236.66983577 0 20506
0.14050000 0.14048300 11534.81582632 0 118.47498279 0 3806.41060918 0 -464.89038046 0 -408.12367835 0 21447
0.14150000 0.14148400 11428.85367781 0 6.83365065 0 3834.24643377 0 -254.03788448 0 -59.76929516 0 21771
0.14250000 0.14249400 11647.42136973 0 -46.85674995 0 4004.49450019 0 223.54802362 0 -609.87029441 0 22470
0.14350000 0.14350900 11526.62230596 0 -106.19245287 0 3627.95795008 0 535.49859583 0 -317.67496414 0 22519
0.14450000 0.14449900 11517.98589260 0 254.80298212 0 3663.05721975 0 274.29359550 0 -527.25857170 0 22218
0.14550000 0.14550500 11092.80861956 0 398.59594284 0 3641.78728378 0 513.13914309 0 -264.39050818 0 23559
0.14650000 0.14650700 10870.75314532 0 330.36163392 0 3538.96967551 0 306.16638972 0 452.99648914 0 23044
0.14750000 0.14750500 10456.49318456 0 316.03626007 0 3256.43716311 0 291.41251690 0 382.95074788 0 23649
0.14850000 0.14849900 10341.71746549 0 226.95608520 0 3521.54183625 0 -51.90639441 0 567.55297618 0 23640
0.14950000 0.14949500 10301.39205850 0 108.38510535 0 3300.20606312 0 124.53929510 0 322.27219340 0 24457
0.15050000 0.15050000 10098.02666855 0 15.48675000 0 3144.25236805 0 162.47418716 0 701.98760797 0 24591
0.15150000 0.15149900 10040.30663927 0 178.76046973 0 3060.25771198 0 233.26177419 0 552.49572166 0 25020
0.15250000 0.15250500 9815.70453033 0 184.48043273 0 2858.24314566 0 363.07592483 0 357.27070492 0 25297
0.15350000 0.15350100 9765.70191145 0 125.09844750 0 2680.56554929 0 350.56309055 0 152.91434191 0 25452
0.15450000 0.15450400 9574.74859763 0 87.81549392 0 2283.73342779 0 91.82323261 0 430.38458740 0 26061
0.15550000 0.15549900 9634.53915165 0 5.40991576 0 2394.65597783 0 -103.25596161 0 30.15614098 0 26128
0.15650000 0.15649500 9633.09974942 0 75.34827762 0 2333.62532343 0 -89.59492724 0 129.63367174 0 26331
0.15750000 0.15749700 9559.19198125 0 187.27508752 0 2518.25633978 0 -394.99522281 0 110.58949450 0 27345
0.15850000 0.15849900 9449.34344673 0 215.43533123 0 2545.74892230 0 311.45674652 0 273.55728590 0 26980
0.15950000 0.15949700 9277.39024230 0 -44.91189610 0 2584.32490197 0 178.93209077 0 29.83238621 0 27777
0.16050000 0.16050000 9302.72372148 0 -25.82221160 0 2449.66328753 0 415.70600639 0 -385.17517793 0 28224
0.16150000 0.16150500 9280.65657812 0 179.56653498 0 2441.40333321 0 -44.10195554 0 54.63505814 0 28075
0.16250000 0.16249700 9195.65434048 0 102.90031853 0 2436.86368004 0 -94.48524095 0 385.26375653 0 28590
0.16350000 0.16349900 9105.91314783 0 39.08652457 0 2415.88162451 0 49.01175653 0 447.22448621 0 29163
0.16450000 0.16449100 9073.80340586 0 107.17800050 0 2271.02239890 0 217.22461892 0 479.09174428 0 28996
0.16550000 0.16550500 9097.50925329 0 100.16445779 0 2441.52512879 0 270.31752366 0 460.64635836 0 30777
0.16650000 0.16650700 8912.62357347 0 103.49213429 0 2328.98601933 0 90.51658756 0 725.80417865 0 29211
0.16750000 0.16749900 8834.66333442 0 286.63813044 0 2553.24488621 0 -9.39068227 0 659.15985557 0 30922
0.16850000 0.16850800 8636.13655042 0 246.00602005 0 2392.48580216 0 -142.10443119 0 890.13851638 0 30867
0.16950000 0.16949900 8545.17740204 0 34.98046363 0 2404.33318972 0 -99.24523339 0 522.39117771 0 30852
0.17050000 0.17049200 8576.77781707 0 -8.79768177 0 2300.51907222 0 94.50649981 0 228.50288898 0 31257
0.17150000 0.17149500 8381.20734380 0 107.70869703 0 2348.05256267 0 -71.38206015 0 -15.04142110 0 32608
0.17250000 0.17250900 8393.65263690 0 154.41574915 0 2235.35844066 0 17.56037499 0 -283.62867255 0 32361
0.17350000 0.17350400 8067.68339423 0 300.56047167 0 2056.01999557 0 132.21573789 0 -167.35597517 0 32508
0.17450000 0.17449800 7912.84800397 0 162.32581800 0 1862.44254077 0 164.27786887 0 -218.09711812 0 32791
0.17550000 0.17549800 7819.77404154 0 89.62327240 0 1917.08446375 0 188.84735764 0 -292.48653241 0 33633
0.17650000 0.17650100 7728.16162600 0 21.62458254 0 1800.55931736 0 162.64137926 0 -84.66552824 0 33984
0.17750000 0.17750300 7674.50513992 0 112.98753861 0 1953.08059174 0 147.49222444 0 -189.57480938 0 34069
0.17850000 0.17849800 7650.53355669 0 44.87923274 0 1683.08195103 0 71.61380391 0 -6.52768910 0 34536
