### header ###
fiducial parameters:
Omega_m = 0.31
Omega_nu = 0
Omega_de = 0.69
Omega_k = 0
H_0 = 100
w_de = -1
zeff = 0
beta = 0
fgrowth = 0
b_1 = 2
gamma = 0.55
Lx = 3500 Ly = 3500 Lz = 3500
nx = 700 ny = 700 nz = 700
xoffset = -685.467585 yoffset = -31.7331281 zoffset = 572.489161
bins = 400 dk = 0.001
kx_ny = 0.628318531 ky_ny = 0.628318531 kz_ny = 0.628318531
############################
A(data) = 8.0260315 (not used)
A(ran) = 8.02914187 (used)
Ngal = 477365
weighted Ngal = 0
Nran = 23820508
weighted Nran = 0
SN(data) = 3486.38582
SN(ran) = 69.9367376
SN(data+ran) = 3556.32256
############################
13 columns: k_central k_mean P_0(k) sigma^{lin}_{P_0(k)} P^img_1(k) sigma^{lin}_{P_1(k)} P_2(k) sigma^{lin}_{P_2(k)} P^img_3(k) sigma^{lin}_{P_3(k)} P_4(k) sigma^{lin}_{P_4(k)} N_modes
### header ###
0.00050000 0 0 0 0 0 0 0 0 0 0 0 0
0.00150000 0.00179520 31678.03202940 0 -53796.66170336 0 -39694.61664459 0 -26286.14201246 0 -18506.50514838 0 3
0.00250000 0.00253879 39971.53548831 0 -29751.33678770 0 -22439.28420072 0 -15728.56957463 0 34055.81378420 0 6
0.00350000 0.00331552 81616.54214970 0 -37625.19913599 0 -21729.99107283 0 -37895.14241507 0 -56587.99479014 0 7
0.00450000 0.00420575 80698.64642224 0 -9742.27287213 0 -7918.87134867 0 -49518.64756318 0 11669.56601936 0 24
0.00550000 0.00557378 87351.12061978 0 16794.39156167 0 -4303.83480166 0 -46613.15880752 0 -19199.18978904 0 45
0.00650000 0.00659388 50107.25235054 0 -3344.01925243 0 186.00952079 0 -32577.87986741 0 19361.84224062 0 40
0.00750000 0.00754703 74909.48139081 0 -400.79158486 0 -5218.22060216 0 -3831.09082120 0 -43777.86859121 0 57
0.00850000 0.00846663 73749.21247306 0 -11360.75888017 0 15212.04562184 0 -37540.60657437 0 -30557.29131125 0 75
0.00950000 0.00948925 73604.05429469 0 -4336.05526688 0 6124.60111181 0 -11946.15269333 0 -43665.26304781 0 112
0.01050000 0.01054430 87007.54638065 0 11189.80218497 0 18981.39715985 0 -31919.96232668 0 -13722.26431749 0 105
0.01150000 0.01145670 75416.26169776 0 2392.45258519 0 40101.74602817 0 -26818.49938974 0 5339.34076335 0 144
0.01250000 0.01249090 82093.64862614 0 2433.03265565 0 56461.10594772 0 -10378.87618758 0 -9731.14518569 0 169
0.01350000 0.01339930 80122.77480842 0 -2075.95018025 0 52333.23253208 0 1887.23347604 0 9198.69922981 0 180
0.01450000 0.01448870 92026.40977445 0 -2265.49730882 0 89108.07712200 0 2156.53456028 0 262.36537997 0 267
0.01550000 0.01550050 84754.43900331 0 9323.90507886 0 87749.39214350 0 13161.56178868 0 20332.88512722 0 238
0.01650000 0.01653350 94370.19949206 0 1200.69397566 0 84769.16519532 0 23520.93961225 0 -10777.23628990 0 315
0.01750000 0.01747870 73990.47843086 0 5936.11692642 0 70432.60829688 0 10823.44110137 0 13080.06947801 0 297
0.01850000 0.01844180 87714.51432032 0 9471.79812146 0 56380.05653005 0 11765.45235229 0 -34609.09785539 0 388
0.01950000 0.01947590 72501.80435899 0 220.12335356 0 50765.05916802 0 8902.62526416 0 -10594.57614737 0 399
0.02050000 0.02045430 72321.32546445 0 -172.35070089 0 34455.96760315 0 4840.10070960 0 -31597.42550472 0 462
0.02150000 0.02154770 74508.44178588 0 2186.02016127 0 27437.33162385 0 2253.72742754 0 -37210.87274127 0 571
0.02250000 0.02255340 69437.20629569 0 62.47526062 0 30370.94408455 0 -68.15790989 0 -30468.26981971 0 510
0.02350000 0.02348930 71846.43345298 0 -909.26485027 0 23641.96012252 0 6695.45696249 0 -27939.12938463 0 555
0.02450000 0.02439640 74827.43546390 0 -1346.50542120 0 27842.57871222 0 -6516.90465246 0 -18742.34566702 0 592
0.02550000 0.02547300 79476.15103901 0 -6.14851733 0 33692.42008365 0 1006.12665502 0 -25099.96385464 0 837
0.02650000 0.02652900 77314.16889492 0 2253.17381130 0 43719.18526967 0 -1219.62765110 0 -3225.99934219 0 723
0.02750000 0.02749970 73893.70631194 0 6073.88986414 0 40868.94741486 0 -1188.24868256 0 -2403.67992256 0 826
0.02850000 0.02848090 72922.44197885 0 4885.37544578 0 49091.58799493 0 9748.36265078 0 4363.04959479 0 831
0.02950000 0.02946900 69098.61460273 0 956.69536810 0 44586.48047272 0 7818.36785629 0 3628.55585562 0 996
0.03050000 0.03053250 68927.10429129 0 3115.02143053 0 43267.76658682 0 3199.79114934 0 -4170.31363667 0 1041
0.03150000 0.03150510 63148.45796844 0 4809.16463406 0 39204.88771786 0 2930.53435440 0 5740.97827382 0 1036
0.03250000 0.03246190 60711.88216885 0 2277.94260191 0 34624.70983338 0 4254.23078647 0 -1096.62519469 0 1059
0.03350000 0.03345080 59636.09508947 0 -1097.60177374 0 32046.18682962 0 7492.49826456 0 6646.16297239 0 1302
0.03450000 0.03451200 59955.53166049 0 1805.76331002 0 27564.44191277 0 9718.20163798 0 -3076.17971507 0 1339
0.03550000 0.03553350 57696.55595099 0 4217.20493228 0 24552.21594586 0 4523.83082348 0 480.16686702 0 1365
0.03650000 0.03647120 53503.79871191 0 1030.36951021 0 20827.15370712 0 4036.72603773 0 4111.39779631 0 1308
0.03750000 0.03744890 53783.70708333 0 -829.87517409 0 24927.12486422 0 -3721.18692505 0 567.72459722 0 1579
0.03850000 0.03847530 53863.75999177 0 3266.07008571 0 30921.79224428 0 2154.15401044 0 8247.56438324 0 1662
0.03950000 0.03950240 51398.94976389 0 3151.12828176 0 26183.61228464 0 849.77435625 0 3173.92619856 0 1683
0.04050000 0.04050350 48025.10166840 0 1053.24825498 0 26178.96190821 0 4553.44929237 0 3787.63194629 0 1822
0.04150000 0.04152450 47078.52861965 0 322.99300175 0 20585.99847257 0 5941.97418625 0 -1396.06514708 0 1887
0.04250000 0.04250150 46033.41188002 0 880.74254154 0 19951.55426046 0 4573.50127262 0 -4145.72200325 0 1920
0.04350000 0.04349210 45567.59917490 0 728.50804037 0 14108.02411417 0 5482.51699558 0 -3045.77511111 0 2005
0.04450000 0.04448520 44275.12669882 0 288.68097437 0 13862.21850320 0 1575.06035010 0 -612.54979701 0 2151
0.04550000 0.04548030 41152.73109996 0 4293.81434770 0 9332.84044499 0 1578.44848150 0 -3224.19455324 0 2274
0.04650000 0.04648670 39362.77906978 0 1207.75811889 0 8945.36443796 0 -174.68585420 0 -2834.47086427 0 2311
0.04750000 0.04749250 38561.14275291 0 924.21248877 0 9868.32021787 0 -1935.46452295 0 -3642.45162327 0 2568
0.04850000 0.04851840 37963.90155219 0 -284.54656828 0 10607.77435856 0 -822.74459690 0 -1063.14691337 0 2493
0.04950000 0.04949480 37784.97278312 0 -619.93171597 0 11939.28785195 0 -502.12328713 0 -316.64966686 0 2644
0.05050000 0.05050630 40323.74614079 0 -838.63227579 0 11333.85313086 0 2081.03237734 0 -3771.08989301 0 2829
0.05150000 0.05149060 40688.80069006 0 -851.50938955 0 13276.49252029 0 223.85694149 0 561.12106269 0 2784
0.05250000 0.05249300 41023.95996232 0 371.46985427 0 12694.97402082 0 -307.91249535 0 -2740.33395867 0 3055
0.05350000 0.05348950 41247.62092365 0 970.07848710 0 13873.29082802 0 2298.54819840 0 1424.21099677 0 3009
0.05450000 0.05448610 40475.65843730 0 180.24969742 0 11834.43293591 0 2544.18772450 0 2184.54754207 0 3336
0.05550000 0.05550870 39787.84561956 0 901.21305566 0 10504.03774733 0 2163.37725702 0 1784.83661612 0 3349
0.05650000 0.05647670 38345.34314219 0 1503.55527642 0 11267.52990520 0 861.20320993 0 1506.96555247 0 3324
0.05750000 0.05747970 37539.49934189 0 1961.79451137 0 11277.60572078 0 -2699.54351403 0 47.55187051 0 3639
0.05850000 0.05849280 34898.63914939 0 2382.73108400 0 12844.89329886 0 -1296.72424881 0 1645.40282967 0 3846
0.05950000 0.05951020 33641.04449649 0 1843.11026164 0 13127.90192123 0 -2049.14408186 0 -846.82358169 0 3787
0.06050000 0.06049470 31903.57528595 0 873.05724088 0 12023.10535082 0 823.47094141 0 2213.53488844 0 3930
0.06150000 0.06148310 32975.15488190 0 -271.34060647 0 14228.60173145 0 888.69579245 0 -437.39226178 0 4083
0.06250000 0.06249100 32731.01011965 0 -1032.02593000 0 14740.25386132 0 1830.77569179 0 -195.32134596 0 4303
0.06350000 0.06350600 33145.00434462 0 344.57849898 0 14455.03077399 0 973.62384551 0 954.66027479 0 4470
0.06450000 0.06451750 33388.48476738 0 740.60898417 0 14934.79460838 0 -769.67272958 0 3636.87117156 0 4479
0.06550000 0.06550280 33665.73578084 0 -199.07486408 0 13578.43481810 0 2242.95405549 0 3605.31504582 0 4636
0.06650000 0.06648880 33117.21280932 0 -4.27401703 0 13565.48019806 0 1002.00885742 0 1919.44286894 0 4653
0.06750000 0.06749660 33287.83733478 0 1010.93979461 0 12368.89405491 0 1309.76744745 0 2993.95663096 0 5220
0.06850000 0.06852730 31428.35110473 0 1594.28190599 0 12282.97281432 0 883.16627344 0 2380.79342715 0 5029
0.06950000 0.06949320 30328.42635725 0 1621.28730622 0 9504.99295127 0 2134.95459921 0 207.72677869 0 5040
0.07050000 0.07048030 28982.58527554 0 472.97871374 0 10867.98506412 0 463.47201565 0 345.23619508 0 5475
0.07150000 0.07148790 28292.66871609 0 958.61973815 0 10593.77893998 0 366.95013128 0 777.48425474 0 5509
0.07250000 0.07249820 28247.49363083 0 -203.46061194 0 9824.73954738 0 823.52741027 0 -1081.22026917 0 5916
0.07350000 0.07351270 28210.51206594 0 277.28865936 0 9986.71658715 0 125.56902130 0 1768.50493701 0 5721
0.07450000 0.07449140 27662.09981767 0 712.66575802 0 10656.03862244 0 295.33876328 0 677.67721160 0 6028
0.07550000 0.07549160 27669.40755205 0 471.94345137 0 10733.35666665 0 452.85476339 0 -157.94892800 0 6183
0.07650000 0.07648840 26687.18161739 0 769.37266958 0 10801.23001779 0 296.64419038 0 590.10619460 0 6330
0.07750000 0.07749960 26438.27575547 0 687.42307190 0 10885.37968641 0 1176.04698061 0 1171.39660419 0 6583
0.07850000 0.07848650 26010.44112447 0 437.18520930 0 10873.63194978 0 478.92012324 0 1617.72201763 0 6549
0.07950000 0.07947320 25524.91968118 0 816.77661383 0 9642.15691112 0 944.46155640 0 2377.96998433 0 6828
0.08050000 0.08048110 24378.38044621 0 719.39883874 0 9517.25001484 0 497.78847196 0 3066.71287735 0 7147
0.08150000 0.08149960 24140.87907885 0 681.85479975 0 9847.96928485 0 763.01604790 0 2221.88342136 0 7386
0.08250000 0.08250610 23687.68882402 0 447.47361352 0 9885.92521433 0 568.11987921 0 3460.54439882 0 7227
0.08350000 0.08350160 23222.20828864 0 668.86917720 0 9539.88184677 0 483.25493841 0 2926.95799348 0 7798
0.08450000 0.08449610 23208.92149886 0 73.95238963 0 9778.40186801 0 293.92482740 0 2204.43343744 0 7371
0.08550000 0.08548940 22739.78709629 0 184.48707613 0 9636.66503801 0 214.56726096 0 3279.45652641 0 8256
0.08650000 0.08650700 22491.87774361 0 464.98449522 0 9199.56287115 0 736.33174509 0 2287.17692081 0 8037
0.08750000 0.08749060 21918.44204125 0 517.46731486 0 8409.15389164 0 792.56586838 0 866.45481359 0 8155
0.08850000 0.08849210 21628.67930074 0 339.32025193 0 7444.75439994 0 1020.92149544 0 596.47831754 0 8718
0.08950000 0.08949900 21419.85525466 0 -24.95558074 0 7057.31160988 0 236.74734204 0 1215.13228722 0 8571
0.09050000 0.09049190 20332.33151098 0 524.87359294 0 7211.06191231 0 1140.05085263 0 -328.89565811 0 8932
0.09150000 0.09150830 20369.86669211 0 547.31387365 0 6104.23910647 0 827.15802558 0 158.26448926 0 9285
0.09250000 0.09250820 19229.08506605 0 377.19313897 0 5702.10334138 0 1501.91657235 0 20.91573231 0 9204
0.09350000 0.09350330 19527.81638965 0 397.25619154 0 5570.08801257 0 407.89005230 0 930.87359939 0 9349
0.09450000 0.09448040 19183.13491805 0 450.53843303 0 6034.81562986 0 354.33543161 0 1046.87170312 0 9564
0.09550000 0.09549270 19026.01862887 0 329.93756388 0 5614.11157605 0 -675.56682648 0 1017.91868095 0 10155
0.09650000 0.09649430 18624.20396120 0 87.50170424 0 6718.70884460 0 -801.97513001 0 1468.69959789 0 9913
0.09750000 0.09749140 18786.41351980 0 573.17550272 0 7402.96744607 0 -454.44032030 0 926.60189647 0 10476
0.09850000 0.09850240 18118.97377973 0 399.37875621 0 7263.41186406 0 -372.09654786 0 835.30061325 0 10575
0.09950000 0.09950330 17824.33921631 0 637.78030358 0 7614.80316450 0 249.05312384 0 347.79833104 0 10882
0.10050000 0.10051200 17517.41437233 0 311.60511567 0 7202.03796759 0 537.69313061 0 934.90060392 0 10875
0.10150000 0.10150300 17119.69646485 0 -142.17750853 0 6307.94773848 0 740.36096409 0 488.65601845 0 11118
0.10250000 0.10250800 17122.02165306 0 -24.45898697 0 6228.02769794 0 1159.17275759 0 329.15696498 0 11575
0.10350000 0.10349800 17053.70540893 0 281.50942958 0 6239.58720505 0 786.79054375 0 -129.20185108 0 11364
0.10450000 0.10450100 16703.70922141 0 377.29832606 0 5141.61118674 0 -2.69525852 0 -303.37394940 0 12093
0.10550000 0.10551000 16489.23828967 0 199.13576186 0 5781.59156125 0 42.63741913 0 114.99605833 0 12067
0.10650000 0.10649700 16214.31246443 0 265.31394007 0 5365.98077686 0 -422.76461346 0 -184.75945532 0 12054
0.10750000 0.10749900 16194.49300300 0 556.72202804 0 5983.75006779 0 163.30682598 0 325.58946192 0 12807
0.10850000 0.10850100 15755.91821693 0 555.49299999 0 5928.62096252 0 -27.07759179 0 350.57859180 0 12736
0.10950000 0.10950300 15294.20227200 0 599.92402502 0 5541.22246177 0 68.08239663 0 672.85078521 0 12933
0.11050000 0.11050200 14899.03099922 0 344.55856880 0 5808.07656222 0 200.97155332 0 645.50103567 0 13428
0.11150000 0.11150900 14573.17247981 0 125.80264736 0 5942.11812647 0 362.51677242 0 149.64136269 0 13453
0.11250000 0.11250000 14458.24174819 0 -8.15338319 0 5566.98776162 0 351.04695114 0 578.60979975 0 13668
0.11350000 0.11349100 14452.04124629 0 56.37972436 0 5448.79069418 0 239.86420148 0 223.14388377 0 13791
0.11450000 0.11448600 14275.43766543 0 71.76316957 0 5149.56111596 0 518.14604838 0 883.10205396 0 14205
0.11550000 0.11549300 14383.06066267 0 -20.87243952 0 5262.07808076 0 792.12297539 0 722.20678032 0 14776
0.11650000 0.11649800 14124.52187815 0 267.28924282 0 4872.90800804 0 570.57572086 0 601.28038481 0 14553
0.11750000 0.11747300 13851.25690163 0 253.35582927 0 4511.46303666 0 510.63901215 0 876.94141243 0 14568
0.11850000 0.11849100 13644.64732051 0 294.08648335 0 4400.08652131 0 242.43740976 0 1088.77602362 0 16015
0.11950000 0.11950300 13505.02530455 0 100.98779587 0 4277.90341693 0 -129.98909337 0 1420.67892516 0 15270
0.12050000 0.12050700 13586.07472222 0 -179.57650007 0 3983.26885351 0 295.65100284 0 1593.69507277 0 15999
0.12150000 0.12150000 13716.72815508 0 -45.88183175 0 4634.04474472 0 -409.90189372 0 1852.69889493 0 15670
0.12250000 0.12250700 13945.26093934 0 -5.61923806 0 4848.83677388 0 125.05969436 0 1297.89791524 0 16887
0.12350000 0.12352200 13739.42642096 0 145.95317129 0 5044.59547667 0 -12.55812009 0 1824.89628731 0 16407
0.12450000 0.12449800 13549.75749682 0 314.42523681 0 5017.82259526 0 -18.61966431 0 1251.11734288 0 16306
0.12550000 0.12549900 13613.42336453 0 213.37255712 0 5009.65121955 0 447.85450150 0 1240.88651475 0 17523
0.12650000 0.12650100 13145.50691769 0 500.18673752 0 5150.20331079 0 -211.50576315 0 1606.21787214 0 17154
0.12750000 0.12750600 12971.33924829 0 212.50227238 0 4679.97274807 0 112.63654592 0 1242.04910886 0 18007
0.12850000 0.12850300 12905.90180861 0 -304.79231421 0 4243.16953398 0 409.90964434 0 1531.23608847 0 17496
0.12950000 0.12949900 13071.65451115 0 -152.89219726 0 4520.22124559 0 553.15231052 0 339.36454123 0 18405
0.13050000 0.13049000 13178.39172240 0 164.41295123 0 4083.47339312 0 -176.06546587 0 -47.92489713 0 18100
0.13150000 0.13148800 12823.08081897 0 586.84982388 0 4271.29323902 0 -79.99477873 0 279.56512935 0 19059
0.13250000 0.13249300 12445.73598915 0 320.58809280 0 4275.22391433 0 -15.06500515 0 861.69592838 0 18957
0.13350000 0.13349100 12428.79533218 0 123.75094557 0 4139.13396998 0 552.19344719 0 811.69995290 0 19468
0.13450000 0.13450700 12135.60017098 0 12.65677450 0 4426.18399090 0 289.28220161 0 909.30249617 0 19953
0.13550000 0.13551000 12408.20080802 0 -64.33541119 0 4246.40265282 0 474.96176712 0 909.19841632 0 19956
0.13650000 0.13649900 12265.47854110 0 87.98135735 0 4073.25363731 0 116.23837318 0 1315.94580470 0 19723
0.13750000 0.13749600 12235.91543384 0 208.88715833 0 4153.93766826 0 167.10684786 0 1392.98704078 0 20946
0.13850000 0.13851100 11993.76369005 0 380.54694616 0 3958.87652193 0 190.26904415 0 1414.86595463 0 20955
0.13950000 0.13949800 11691.04632951 0 259.43564283 0 3919.93515555 0 -13.51786920 0 1379.46773218 0 20506
0.14050000 0.14048300 11526.73302920 0 283.92983979 0 4103.40357779 0 -26.91427500 0 1027.84391291 0 21447
0.14150000 0.14148400 11229.88400082 0 362.47469759 0 3911.55340566 0 -64.80011666 0 1270.90358733 0 21771
0.14250000 0.14249400 10936.07986175 0 366.74086434 0 4055.84794269 0 -386.46842547 0 867.30848983 0 22470
0.14350000 0.14350900 10750.05373247 0 243.22354483 0 4326.93167123 0 -55.38875129 0 917.88133344 0 22519
0.14450000 0.14449900 10478.21708585 0 187.48213999 0 4202.11335355 0 212.91194840 0 630.83795592 0 22218
0.14550000 0.14550500 10357.36266046 0 157.71087302 0 3849.52624202 0 533.71484430 0 506.04399735 0 23559
0.14650000 0.14650700 10257.97747288 0 -32.26586175 0 3553.65157822 0 448.16452659 0 715.45487664 0 23044
0.14750000 0.14750500 10193.95729078 0 -90.17888166 0 3302.03299672 0 811.88264626 0 226.13341147 0 23649
0.14850000 0.14849900 10323.55885279 0 -110.85722332 0 2914.55698969 0 681.64442558 0 390.42124543 0 23640
0.14950000 0.14949500 10190.19270034 0 137.63231919 0 2673.80035883 0 -4.39450607 0 238.07380655 0 24457
0.15050000 0.15050000 10189.71659038 0 254.36230359 0 2707.31628606 0 -395.17680894 0 414.87115309 0 24591
0.15150000 0.15149900 10114.85660228 0 247.69233512 0 2914.49055574 0 -288.71197688 0 987.85178290 0 25020
0.15250000 0.15250500 9886.57848149 0 114.18334969 0 3067.94190540 0 24.18616489 0 1177.30922564 0 25297
0.15350000 0.15350100 9934.79845608 0 52.85927868 0 3328.19690026 0 268.49280453 0 1330.86022623 0 25452
0.15450000 0.15450400 9905.30178276 0 18.27586862 0 3268.22918904 0 654.44304520 0 1242.87953322 0 26061
0.15550000 0.15549900 9780.92635807 0 107.76394793 0 2999.54815500 0 174.47658726 0 1473.90359056 0 26128
0.15650000 0.15649500 9691.10765914 0 194.37355496 0 2937.16667697 0 342.91765026 0 1309.51278398 0 26331
0.15750000 0.15749700 9550.20125350 0 175.68125620 0 2933.00348284 0 -392.02673253 0 1579.71072653 0 27345
0.15850000 0.15849900 9457.76948592 0 56.50650248 0 2872.64824025 0 -368.79478059 0 1457.06258451 0 26980
0.15950000 0.15949700 9534.33461204 0 -41.05706621 0 3169.72978746 0 -132.92879561 0 1375.51491222 0 27777
0.16050000 0.16050000 9534.20174414 0 -74.97547245 0 3222.22367942 0 11.72393113 0 1012.96935175 0 28224
0.16150000 0.16150500 9528.47735221 0 238.07712825 0 3341.95980001 0 164.56464208 0 1042.89120234 0 28075
0.16250000 0.16249700 9315.95514964 0 353.49282770 0 3297.98052583 0 187.64268870 0 1038.84758932 0 28590
0.16350000 0.16349900 9074.58954092 0 182.14749389 0 3042.81880039 0 603.73179753 0 1335.23379453 0 29163
0.16450000 0.16449100 8948.89650958 0 -30.58641153 0 3044.19176866 0 437.66574820 0 1146.16277593 0 28996
0.16550000 0.16550500 8880.02664920 0 106.45586348 0 2980.02764634 0 241.83064636 0 1011.26753543 0 30777
0.16650000 0.16650700 8903.13459110 0 279.10230617 0 2915.16596755 0 -195.63469276 0 1124.51638091 0 29211
0.16750000 0.16749900 8597.94810212 0 179.51228059 0 2732.16258295 0 -340.27911526 0 955.35229509 0 30922
0.16850000 0.16850800 8523.44242842 0 116.96471769 0 3033.55126451 0 -341.71630302 0 1028.70423255 0 30867
0.16950000 0.16949900 8450.71939901 0 202.73648189 0 3063.12544410 0 -132.22570298 0 770.79657055 0 30852
0.17050000 0.17049200 8289.76101312 0 63.01902249 0 2975.78694593 0 104.34724994 0 460.46255777 0 31257
0.17150000 0.17149500 8307.22206936 0 30.27860090 0 2878.92624842 0 169.31356220 0 360.98104097 0 32608
0.17250000 0.17250900 8126.24492020 0 99.80704315 0 2773.70594567 0 440.57223346 0 -65.56532503 0 32361
0.17350000 0.17350400 8199.41084260 0 7.23635110 0 2527.31350148 0 287.06220048 0 207.70463404 0 32508
0.17450000 0.17449800 8048.94902064 0 -25.13539529 0 2056.07535720 0 454.97732805 0 -155.18638296 0 32791
0.17550000 0.17549800 8126.24492020 0 63.52480629 0 1904.87168948 0 203.30449216 0 -104.80918733 0 33633
0.17650000 0.17650100 8055.90244063 0 63.53111751 0 1807.84490709 0 -103.25872969 0 -339.16966831 0 33984
0.17750000 0.17750300 7940.56203299 0 149.46199103 0 1915.26860248 0 26.39188271 0 -38.12987570 0 34069
0.17850000 0.17849800 7873.69626341 0 103.56853334 0 1885.16295130 0 81.59550473 0 307.21493888 0 34536
