### header ###
fiducial parameters:
Omega_m = 0.31
Omega_nu = 0
Omega_de = 0.69
Omega_k = 0
H_0 = 100
w_de = -1
zeff = 0
beta = 0
fgrowth = 0
b_1 = 2
gamma = 0.55
Lx = 3500 Ly = 3500 Lz = 3500
nx = 700 ny = 700 nz = 700
xoffset = -685.467585 yoffset = -31.7331281 zoffset = 572.489161
bins = 400 dk = 0.001
kx_ny = 0.628318531 ky_ny = 0.628318531 kz_ny = 0.628318531
############################
A(data) = 8.01665352 (not used)
A(ran) = 8.00777484 (used)
Ngal = 476025
weighted Ngal = 0
Nran = 23820508
weighted Nran = 0
SN(data) = 3498.69391
SN(ran) = 69.750623
SN(data+ran) = 3568.44453
############################
13 columns: k_central k_mean P_0(k) sigma^{lin}_{P_0(k)} P^img_1(k) sigma^{lin}_{P_1(k)} P_2(k) sigma^{lin}_{P_2(k)} P^img_3(k) sigma^{lin}_{P_3(k)} P_4(k) sigma^{lin}_{P_4(k)} N_modes
### header ###
0.00050000 0 0 0 0 0 0 0 0 0 0 0 0
0.00150000 0.00179520 11976.82303308 0 -26432.85031631 0 -10660.67792654 0 -72214.47752995 0 1987.21656915 0 3
0.00250000 0.00253879 16611.03386268 0 -20999.99269754 0 -28947.48600587 0 -2376.78524557 0 -3449.33920610 0 6
0.00350000 0.00331552 37571.38763737 0 -22365.43179418 0 -4428.69740864 0 -36188.01137453 0 -24611.23143714 0 7
0.00450000 0.00420575 49693.81174181 0 -15244.37681031 0 -1643.37659423 0 -44692.33189798 0 7146.17808888 0 24
0.00550000 0.00557378 55852.57097569 0 11468.93549365 0 13260.54837256 0 -33780.77723570 0 7861.87102051 0 45
0.00650000 0.00659388 32693.36421527 0 13774.19352089 0 21514.30218537 0 -36837.51394839 0 19411.99987205 0 40
0.00750000 0.00754703 47265.20801609 0 682.02199185 0 23306.69012701 0 15744.40299912 0 3455.93831170 0 57
0.00850000 0.00846663 49014.19244445 0 -14490.57293666 0 28276.72456836 0 18437.85673451 0 -1695.32794228 0 75
0.00950000 0.00948925 59092.55466412 0 -7065.79301069 0 30184.15396486 0 15248.36284725 0 -21088.46057284 0 112
0.01050000 0.01054430 71881.20055291 0 -5186.38766830 0 3899.06382326 0 13693.58699621 0 -4146.90674200 0 105
0.01150000 0.01145670 71034.16770428 0 -2584.49098684 0 12117.88445127 0 -5518.94494423 0 -9919.80652827 0 144
0.01250000 0.01249090 70679.96403333 0 5671.44407396 0 18699.05287698 0 -22356.02031808 0 -8264.11750884 0 169
0.01350000 0.01339930 70518.19736773 0 8246.24677658 0 31698.18366057 0 6132.40710081 0 -32019.83469655 0 180
0.01450000 0.01448870 67618.79839072 0 -3892.35399442 0 28056.71747421 0 -11651.62885316 0 -8036.35978732 0 267
0.01550000 0.01550050 63982.86836677 0 -6469.78083803 0 33742.35626858 0 7071.70563215 0 -18794.82848666 0 238
0.01650000 0.01653350 79298.10805593 0 -3208.00681436 0 41215.62190493 0 5663.35020451 0 -11849.38057442 0 315
0.01750000 0.01747870 74591.92711501 0 -259.27177242 0 31988.05712432 0 15447.44324749 0 -6113.91631836 0 297
0.01850000 0.01844180 71316.29054066 0 8019.71808312 0 14053.43755282 0 12463.45170886 0 -5521.94554426 0 388
0.01950000 0.01947590 68167.98570173 0 1164.37675025 0 16127.06254485 0 10265.01947147 0 15034.55625500 0 399
0.02050000 0.02045430 67546.38538641 0 4374.28800448 0 18866.46642824 0 12627.65428592 0 10078.67224477 0 462
0.02150000 0.02154770 61706.61983056 0 4679.45234881 0 6713.77058774 0 2011.78605792 0 13246.70796653 0 571
0.02250000 0.02255340 57814.80838005 0 1843.77460113 0 8444.13136574 0 5847.57154485 0 4245.28434802 0 510
0.02350000 0.02348930 61336.25056537 0 -1415.22026902 0 7459.10413290 0 -987.26716415 0 5830.07727163 0 555
0.02450000 0.02439640 61455.16733393 0 -4519.81156957 0 8275.96489640 0 -2912.55289890 0 2619.64561814 0 592
0.02550000 0.02547300 63262.17074433 0 -1404.03722095 0 5269.06471772 0 -2103.55348602 0 -4468.96745400 0 837
0.02650000 0.02652900 66190.91138211 0 -279.62934883 0 8683.71433017 0 -6122.54165939 0 -6109.38773751 0 723
0.02750000 0.02749970 65326.60570677 0 2044.29440359 0 12303.23516874 0 -8049.30333504 0 -8612.70751111 0 826
0.02850000 0.02848090 64547.44620928 0 2341.12128733 0 11968.29734297 0 -4538.21377342 0 -2677.50958765 0 831
0.02950000 0.02946900 63220.09591002 0 2670.26828721 0 17230.41971303 0 -2212.88162128 0 -266.44220997 0 996
0.03050000 0.03053250 63107.49036661 0 1390.27432120 0 19484.85576936 0 790.95595235 0 -6624.26191390 0 1041
0.03150000 0.03150510 60776.87671554 0 772.33783817 0 21424.94852408 0 -1378.42693365 0 -981.41876218 0 1036
0.03250000 0.03246190 59578.29755392 0 3626.90607922 0 23875.47545294 0 -3300.40536497 0 -14551.24927666 0 1059
0.03350000 0.03345080 56698.71803833 0 5633.80924190 0 28042.65562169 0 -3070.26709361 0 -5015.41990078 0 1302
0.03450000 0.03451200 53964.29670112 0 1753.44657526 0 26677.99158779 0 -3144.89456289 0 -4831.96255086 0 1339
0.03550000 0.03553350 53071.53515099 0 1519.70979833 0 30858.23709982 0 -1820.13518764 0 -8822.47270480 0 1365
0.03650000 0.03647120 54317.06096984 0 -148.19199537 0 34904.83965129 0 -2665.16394547 0 -20257.59331845 0 1308
0.03750000 0.03744890 53368.27345613 0 2233.87474914 0 34592.71081466 0 -6.30106075 0 -10373.58361632 0 1579
0.03850000 0.03847530 52741.91204114 0 3480.36386025 0 37713.44556479 0 404.31701308 0 25.55791521 0 1662
0.03950000 0.03950240 52485.14482860 0 -527.54423768 0 37760.72439177 0 8011.10381441 0 -3231.42478135 0 1683
0.04050000 0.04050350 50618.35086417 0 19.64429725 0 35171.46123293 0 10802.92408348 0 2283.25731783 0 1822
0.04150000 0.04152450 50010.25878513 0 1863.23974816 0 31319.73159826 0 11409.80927912 0 -5160.02446291 0 1887
0.04250000 0.04250150 46658.11244629 0 2176.61975750 0 24661.94268481 0 6515.35452698 0 5250.11996996 0 1920
0.04350000 0.04349210 43014.98541121 0 4626.78129964 0 24439.05678621 0 5285.27460126 0 2687.30859511 0 2005
0.04450000 0.04448520 41482.79710280 0 3104.59130055 0 21699.54217958 0 2761.20529095 0 11083.50786671 0 2151
0.04550000 0.04548030 37632.28542387 0 1237.83055310 0 20468.96399924 0 5407.46877796 0 8773.46659515 0 2274
0.04650000 0.04648670 38292.97104580 0 -442.84981068 0 18315.06465227 0 2913.08437049 0 8441.68438196 0 2311
0.04750000 0.04749250 39009.46118481 0 -1882.07377267 0 18608.37053671 0 4134.67182308 0 8168.12045266 0 2568
0.04850000 0.04851840 40409.33521164 0 223.64103115 0 17315.89806063 0 1613.83563162 0 9367.80684676 0 2493
0.04950000 0.04949480 40826.87258055 0 -529.10432825 0 16420.36842930 0 -119.42941719 0 4235.48534055 0 2644
0.05050000 0.05050630 39645.89841539 0 1283.06099998 0 17093.67650152 0 634.50953882 0 5156.20451085 0 2829
0.05150000 0.05149060 38242.37052138 0 1478.76434115 0 15961.42056557 0 -1722.55478901 0 3494.90182273 0 2784
0.05250000 0.05249300 37541.04946736 0 1660.52762538 0 14235.90946583 0 1813.99004736 0 -59.07428533 0 3055
0.05350000 0.05348950 35552.01703694 0 733.77957422 0 14468.42828702 0 -980.23623789 0 -2399.40600518 0 3009
0.05450000 0.05448610 34885.46308286 0 1285.56334539 0 12883.97860547 0 246.82869379 0 -3742.83332007 0 3336
0.05550000 0.05550870 33373.31568238 0 1502.03836792 0 13014.18914534 0 -44.45903801 0 -2224.45220072 0 3349
0.05650000 0.05647670 33233.47221992 0 168.98028522 0 14482.60086279 0 -1911.98012201 0 -6076.76866859 0 3324
0.05750000 0.05747970 33263.03532718 0 479.96424347 0 14986.83453503 0 -1154.84347858 0 -321.98209849 0 3639
0.05850000 0.05849280 33518.47386075 0 36.11493403 0 17150.69897434 0 574.70237632 0 -692.14431120 0 3846
0.05950000 0.05951020 33436.42793384 0 -976.05532804 0 15148.82264713 0 3804.79404976 0 -335.53462407 0 3787
0.06050000 0.06049470 34021.37885401 0 -380.53919553 0 15098.33284595 0 2970.22863888 0 -2703.18630890 0 3930
0.06150000 0.06148310 34101.21031596 0 714.26792342 0 12608.05627099 0 2629.18996214 0 176.48178528 0 4083
0.06250000 0.06249100 32468.04240521 0 1758.45126607 0 11978.37315856 0 -821.04610228 0 674.98331497 0 4303
0.06350000 0.06350600 31691.65098892 0 1127.74949975 0 11914.81801410 0 -130.42534297 0 -854.02391452 0 4470
0.06450000 0.06451750 31117.44022383 0 -537.91125541 0 12445.73598915 0 204.30210862 0 758.70448462 0 4479
0.06550000 0.06550280 32907.50297726 0 -1348.07769132 0 12805.36509926 0 517.94453206 0 -2699.47708009 0 4636
0.06650000 0.06648880 32502.36661214 0 -123.79634210 0 13083.05900571 0 1804.55642662 0 399.03662137 0 4653
0.06750000 0.06749660 33700.50288077 0 380.17380881 0 13353.88807078 0 1321.33802688 0 1909.34490870 0 5220
0.06850000 0.06852730 32877.49697700 0 274.62576524 0 12511.83776832 0 2225.19404648 0 4371.59742955 0 5029
0.06950000 0.06949320 32422.75659670 0 1459.26597715 0 12528.99987179 0 2409.44860379 0 4718.23870264 0 5040
0.07050000 0.07048030 30467.05186398 0 1495.68285348 0 11517.10010661 0 1767.51950010 0 3907.10233108 0 5475
0.07150000 0.07148790 29888.74433870 0 1423.35842776 0 11988.78114389 0 842.02594334 0 3632.45331395 0 5509
0.07250000 0.07249820 28274.51010339 0 942.18287196 0 10751.11667566 0 -189.29910849 0 4694.68786776 0 5916
0.07350000 0.07351270 27814.78717692 0 283.62313639 0 10142.89172872 0 -235.88923687 0 3375.81896931 0 5721
0.07450000 0.07449140 27469.55208908 0 268.12520334 0 10738.54958699 0 -384.99580627 0 2386.97178440 0 6028
0.07550000 0.07549160 27711.15021662 0 328.54245095 0 10220.40907477 0 -628.65781516 0 -677.88758577 0 6183
0.07650000 0.07648840 26790.37568470 0 930.19154418 0 10826.96210067 0 -314.93899268 0 951.01083653 0 6330
0.07750000 0.07749960 26381.14255940 0 715.38512100 0 11559.72855716 0 -15.15723761 0 -226.37368092 0 6583
0.07850000 0.07848650 26345.60039674 0 210.75727399 0 10847.53448018 0 1128.43598389 0 1958.01884860 0 6549
0.07950000 0.07947320 26200.33149511 0 101.34587485 0 10320.86827785 0 1124.15099419 0 452.84701276 0 6828
0.08050000 0.08048110 25650.36912137 0 668.13286760 0 9838.83461687 0 763.26296075 0 1026.93708951 0 7147
0.08150000 0.08149960 25043.16282832 0 510.64676278 0 9478.70725215 0 313.68560551 0 -76.22520575 0 7386
0.08250000 0.08250610 24309.28913934 0 942.53497188 0 8699.27094654 0 626.16764931 0 531.89123241 0 7227
0.08350000 0.08350160 23842.47992498 0 52.54061718 0 8224.70003249 0 347.80718890 0 -754.43388894 0 7798
0.08450000 0.08449610 23391.83630486 0 176.54711200 0 8179.36993468 0 1755.05206235 0 -1273.70488551 0 7371
0.08550000 0.08548940 23099.85909940 0 332.63478220 0 6771.54597864 0 892.56335551 0 -971.57214372 0 8256
0.08650000 0.08650700 22867.78317120 0 560.68370586 0 6888.85726009 0 1310.29891904 0 -278.32613620 0 8037
0.08750000 0.08749060 22445.70614911 0 292.73898142 0 5985.52163976 0 922.61696677 0 505.55902952 0 8155
0.08850000 0.08849210 22325.79287133 0 164.34430282 0 7072.96787718 0 18.29934195 0 986.17211123 0 8718
0.08950000 0.08949900 22449.02784656 0 342.85896694 0 7107.33637341 0 725.21955990 0 1497.55407637 0 8571
0.09050000 0.09049190 22054.07802028 0 532.08499809 0 7189.79197634 0 50.19129130 0 3396.50207207 0 8932
0.09150000 0.09150830 21614.06383198 0 675.24794353 0 6748.09479467 0 1000.26164456 0 3214.05230371 0 9285
0.09250000 0.09250820 20968.65801830 0 332.52405895 0 6904.75711853 0 1595.36699382 0 3140.65386248 0 9204
0.09350000 0.09350330 20469.40689223 0 836.17089798 0 6020.04514855 0 772.98556917 0 2841.33570566 0 9349
0.09450000 0.09448040 19435.47320067 0 834.63184483 0 6214.17621959 0 -381.08616838 0 2428.17190505 0 9564
0.09550000 0.09549270 19070.52937464 0 882.54179432 0 5853.52845560 0 -1838.51524684 0 1688.64025809 0 10155
0.09650000 0.09649430 18344.62775953 0 474.47790652 0 7287.18414544 0 -1050.59421872 0 1780.85057918 0 9913
0.09750000 0.09749140 17927.42256037 0 436.85193232 0 7032.71997646 0 -331.92947511 0 643.79368319 0 10476
0.09850000 0.09850240 17752.59055148 0 199.78902903 0 7952.02188918 0 250.33308459 0 225.37495722 0 10575
0.09950000 0.09950330 17411.56294707 0 304.34831399 0 7310.84570358 0 608.84499713 0 -534.16438069 0 10882
0.10050000 0.10051200 17078.50741652 0 375.94639519 0 7485.52269992 0 967.35026627 0 225.76138135 0 10875
0.10150000 0.10150300 16865.58661026 0 109.38914377 0 6242.63209438 0 933.97827926 0 588.14971481 0 11118
0.10250000 0.10250800 16881.53075800 0 234.04790925 0 6635.92107194 0 635.68431249 0 870.13082543 0 11575
0.10350000 0.10349800 16365.89259119 0 364.00710734 0 6217.84115911 0 604.77591776 0 805.43523152 0 11364
0.10450000 0.10450100 16130.60568880 0 376.38928819 0 5965.75753996 0 -153.32955409 0 1217.43533078 0 12093
0.10550000 0.10551000 15603.56302743 0 409.34384855 0 5236.02490046 0 758.57604565 0 1049.11827782 0 12067
0.10650000 0.10649700 15850.03297789 0 -134.57967924 0 5876.45924030 0 -492.84467893 0 18.46775201 0 12054
0.10750000 0.10749900 15722.47979598 0 -22.57181993 0 5292.31659984 0 33.63351532 0 -28.99941521 0 12807
0.10850000 0.10850100 15601.90217871 0 423.90617015 0 5747.99812775 0 -50.68899230 0 136.09326604 0 12736
0.10950000 0.10950300 15619.06428218 0 223.34761454 0 5681.75240836 0 -141.60728380 0 799.91567759 0 12933
0.11050000 0.11050200 15416.99435423 0 73.16093986 0 5701.87082256 0 1375.12738085 0 877.82276948 0 13428
0.11150000 0.11150900 15099.21863194 0 268.94898431 0 5700.63072218 0 863.24494663 0 1188.06045304 0 13453
0.11250000 0.11250000 15307.04616879 0 24.83909988 0 4912.15939952 0 1231.94007630 0 1637.23145396 0 13668
0.11350000 0.11349100 14752.54414187 0 13.04031983 0 4756.24999375 0 777.17201518 0 1469.19785251 0 13791
0.11450000 0.11448600 14745.45785398 0 180.09468487 0 4048.82808876 0 616.94772443 0 1800.75861921 0 14205
0.11550000 0.11549300 14611.48272368 0 240.07457565 0 3914.00038944 0 -35.13005074 0 1448.34866488 0 14776
0.11650000 0.11649800 14490.01932042 0 56.97873713 0 3861.83866722 0 -397.76330402 0 896.95353230 0 14553
0.11750000 0.11747300 14386.16091362 0 381.41169473 0 4366.55952176 0 -532.99403596 0 1142.28746224 0 14568
0.11850000 0.11849100 14201.47453564 0 219.17999148 0 4463.16555580 0 -607.72558509 0 766.25359568 0 16015
0.11950000 0.11950300 14205.23912608 0 145.10613845 0 4995.41220983 0 -185.98516168 0 1262.20074003 0 15270
0.12050000 0.12050700 14090.08694797 0 137.11081269 0 5350.96670441 0 60.31372137 0 323.64294722 0 15999
0.12150000 0.12150000 14144.34133958 0 145.36744531 0 5782.80951698 0 -434.13589105 0 629.20368077 0 15670
0.12250000 0.12250700 13841.95614878 0 184.64983930 0 5368.22845880 0 454.32738259 0 1132.21164666 0 16887
0.12350000 0.12352200 13739.64786746 0 16.25815887 0 5238.70440307 0 519.80911156 0 1305.28315590 0 16407
0.12450000 0.12449800 13824.68332207 0 -138.08407005 0 4857.53962119 0 717.06147098 0 254.60810920 0 16306
0.12550000 0.12549900 13840.84891630 0 163.77739979 0 4602.88722268 0 400.62549998 0 282.14940996 0 17523
0.12650000 0.12650100 13672.21740931 0 203.94668700 0 3817.77081444 0 160.16228573 0 215.41429381 0 17154
0.12750000 0.12750600 13316.35288964 0 -26.12371101 0 3869.05782300 0 497.23485572 0 802.27408278 0 18007
0.12850000 0.12850300 13496.94250743 0 59.89474460 0 3907.46771780 0 673.05340875 0 700.99442043 0 17496
0.12950000 0.12949900 13379.13297136 0 16.10724308 0 3683.57423764 0 347.81383230 0 47.63092690 0 18405
0.13050000 0.13049000 13239.51095540 0 281.41420759 0 3701.40068060 0 -144.20485121 0 168.22847436 0 18100
0.13150000 0.13148800 13043.08791312 0 544.40849561 0 3512.90542289 0 -484.63233561 0 41.94285220 0 19059
0.13250000 0.13249300 12683.90169600 0 436.26952804 0 3786.22576104 0 -650.01965143 0 87.43881343 0 18957
0.13350000 0.13349100 12369.22622465 0 406.21702402 0 3903.78063363 0 -317.85655027 0 -571.29320751 0 19468
0.13450000 0.13450700 12075.14527747 0 162.00582782 0 3860.35497570 0 -228.80959238 0 -688.03758593 0 19953
0.13550000 0.13551000 12063.63005966 0 86.85043009 0 3644.72144985 0 338.95043628 0 -1262.20074003 0 19956
0.13650000 0.13649900 11904.52075202 0 -82.58116309 0 3684.71468710 0 264.61416914 0 -1209.09787020 0 19723
0.13750000 0.13749600 12022.99462758 0 -68.18703010 0 3160.00828627 0 576.23035714 0 -973.89843917 0 20946
0.13850000 0.13851100 12103.04753601 0 52.60494738 0 3311.41125584 0 220.98588766 0 -985.17228030 0 20955
0.13950000 0.13949800 11909.94619118 0 259.53086482 0 3192.32840241 0 -78.89485399 0 -823.35246754 0 20506
0.14050000 0.14048300 11581.54103706 0 465.78502431 0 3667.25363086 0 -104.17308227 0 -545.50354854 0 21447
0.14150000 0.14148400 11185.04108530 0 415.03723797 0 3496.67339470 0 -160.54760264 0 -476.23729894 0 21771
0.14250000 0.14249400 10920.93292140 0 314.96667349 0 3827.62518353 0 244.35181473 0 -134.27961924 0 22470
0.14350000 0.14350900 10908.95266595 0 71.53375100 0 3783.45767983 0 85.64376813 0 -218.92975694 0 22519
0.14450000 0.14449900 10981.22173004 0 -114.43579870 0 3673.35448183 0 305.85636463 0 -374.90227496 0 22218
0.14550000 0.14550500 10861.58526037 0 -2.86538480 0 3618.90078838 0 22.04510944 0 -74.53313307 0 23559
0.14650000 0.14650700 10976.90352336 0 154.02378885 0 3697.61394551 0 31.04225914 0 -563.98547312 0 23044
0.14750000 0.14750500 10792.16178376 0 175.68900683 0 3649.12823513 0 -100.43761205 0 -260.98909000 0 23649
0.14850000 0.14849900 10590.23579604 0 242.39312046 0 3573.24959315 0 386.09528812 0 169.17294367 0 23640
0.14950000 0.14949500 10383.06152636 0 226.40689789 0 3460.30080767 0 439.91896630 0 150.33116853 0 24457
0.15050000 0.15050000 10215.23829908 0 103.79651250 0 3302.96307200 0 471.38651343 0 -471.11524148 0 24591
0.15150000 0.15149900 9959.62260832 0 260.80861110 0 3114.94392426 0 107.58280470 0 -181.79871566 0 25020
0.15250000 0.15250500 9775.65593146 0 265.41026930 0 2876.19138419 0 -63.21323107 0 -121.52208658 0 25297
0.15350000 0.15350100 9618.42891903 0 132.62762838 0 2892.77772677 0 -167.89187569 0 -279.43115422 0 25452
0.15450000 0.15450400 9534.87715595 0 237.80474906 0 3220.81749417 0 -364.63933709 0 -353.29352585 0 26061
0.15550000 0.15549900 9418.16378004 0 213.70472686 0 3155.82294749 0 -76.56257949 0 -162.29260103 0 26128
0.15650000 0.15649500 9337.77870186 0 42.95464124 0 3336.91081989 0 -48.86947716 0 173.99383390 0 26331
0.15750000 0.15749700 9398.56576511 0 -56.67756990 0 3587.72112169 0 273.78094686 0 132.01754328 0 27345
0.15850000 0.15849900 9384.22710447 0 29.32815253 0 3626.91715154 0 333.87377535 0 101.13062886 0 26980
0.15950000 0.15949700 9265.56499939 0 183.84931022 0 3483.86271489 0 293.20291183 0 75.36034646 0 27777
0.16050000 0.16050000 9184.24984592 0 165.39617368 0 3200.22297001 0 145.57339055 0 215.04779986 0 28224
0.16150000 0.16150500 9046.01187056 0 22.07899075 0 3166.81776603 0 569.49174026 0 364.10232934 0 28075
0.16250000 0.16249700 9136.80493407 0 -73.44151257 0 2767.71581794 0 438.96785360 0 504.72306900 0 28590
0.16350000 0.16349900 9091.34196837 0 -0.55807507 0 2427.27504674 0 552.74817067 0 138.83809537 0 29163
0.16450000 0.16449100 8928.68951678 0 160.63950293 0 2174.36100324 0 94.64667544 0 325.35805033 0 28996
0.16550000 0.16550500 8840.94134259 0 242.27575382 0 2372.99851048 0 18.54603335 0 328.73953833 0 30777
0.16650000 0.16650700 8522.83345055 0 260.44322438 0 2365.75721005 0 -45.91792753 0 469.37799371 0 29211
0.16750000 0.16749900 8482.95093656 0 84.06264015 0 2420.05589096 0 -80.39902931 0 281.64894088 0 30922
0.16850000 0.16850800 8365.11925584 0 40.36471374 0 2822.84492321 0 -66.76833312 0 600.15765108 0 30867
0.16950000 0.16949900 8538.02468021 0 -33.52079905 0 2594.05747549 0 10.04730435 0 250.58442637 0 30852
0.17050000 0.17049200 8483.75921627 0 -30.28325127 0 2572.55502069 0 213.74237276 0 712.81966334 0 31257
0.17150000 0.17149500 8482.46375427 0 152.51905991 0 2371.08299829 0 -76.57885580 0 467.78690064 0 32608
0.17250000 0.17250900 8439.83530371 0 152.06509459 0 2608.66187192 0 245.40700728 0 348.01534861 0 32361
0.17350000 0.17350400 8309.38117270 0 96.52742054 0 2435.11425272 0 103.48327643 0 537.88246737 0 32508
0.17450000 0.17449800 8200.58450903 0 85.27350959 0 2025.73718720 0 284.13689226 0 625.00173350 0 32791
0.17550000 0.17549800 8283.07332893 0 4.39832602 0 2054.80203984 0 250.66303987 0 332.49194921 0 33633
0.17650000 0.17650100 8122.62426998 0 43.53283804 0 1891.65133364 0 26.72117365 0 146.36063285 0 33984
0.17750000 0.17750300 8079.03252717 0 242.44848209 0 1943.40337984 0 -221.08886028 0 334.91125218 0 34069
0.17850000 0.17849800 7941.89071197 0 129.10552185 0 1863.43905000 0 39.16956700 0 113.55665611 0 34536
