### header ###
fiducial parameters:
Omega_m = 0.31
Omega_nu = 0
Omega_de = 0.69
Omega_k = 0
H_0 = 100
w_de = -1
zeff = 0
beta = 0
fgrowth = 0
b_1 = 2
gamma = 0.55
Lx = 3500 Ly = 3500 Lz = 3500
nx = 700 ny = 700 nz = 700
xoffset = -685.467585 yoffset = -31.7331281 zoffset = 572.489161
bins = 400 dk = 0.001
kx_ny = 0.628318531 ky_ny = 0.628318531 kz_ny = 0.628318531
############################
A(data) = 7.98983169 (not used)
A(ran) = 7.98471574 (used)
Ngal = 474468
weighted Ngal = 0
Nran = 23820508
weighted Nran = 0
SN(data) = 3493.59076
SN(ran) = 69.5497699
SN(data+ran) = 3563.14053
############################
13 columns: k_central k_mean P_0(k) sigma^{lin}_{P_0(k)} P^img_1(k) sigma^{lin}_{P_1(k)} P_2(k) sigma^{lin}_{P_2(k)} P^img_3(k) sigma^{lin}_{P_3(k)} P_4(k) sigma^{lin}_{P_4(k)} N_modes
### header ###
0.00050000 0 0 0 0 0 0 0 0 0 0 0 0
0.00150000 0.00179520 30069.44467974 0 -40214.68374132 0 -22860.47543682 0 70414.33896093 0 -9437.79501194 0 3
0.00250000 0.00253879 42050.36447301 0 -22927.13083223 0 9489.76850464 0 -31860.72538890 0 26695.48586100 0 6
0.00350000 0.00331552 47443.36172242 0 105.45071783 0 2188.68859155 0 -42806.16136513 0 18002.60364589 0 7
0.00450000 0.00420575 40827.97981303 0 12571.07470610 0 -7422.80905215 0 -6896.37536864 0 30597.04095735 0 24
0.00550000 0.00557378 31938.01021614 0 964.74605547 0 -19931.62407579 0 1662.32134200 0 29305.89716025 0 45
0.00650000 0.00659388 36365.05784838 0 -16328.35741006 0 -2724.54482347 0 35899.24514326 0 15267.73941568 0 40
0.00750000 0.00754703 54471.29845456 0 -16058.63557748 0 -1976.29925688 0 3021.96961275 0 33329.24782960 0 57
0.00850000 0.00846663 65813.45582904 0 -18363.45071172 0 -18892.48639156 0 24557.53066177 0 28461.85383932 0 75
0.00950000 0.00948925 76740.29029957 0 -6554.51733987 0 6941.59474320 0 -4190.79743758 0 29339.22485795 0 112
0.01050000 0.01054430 84807.14326944 0 -2146.53625097 0 -4773.35673559 0 -3988.61678640 0 16795.38807091 0 105
0.01150000 0.01145670 88972.44114297 0 4788.88013499 0 8271.71312367 0 -15773.52321340 0 21537.88623723 0 144
0.01250000 0.01249090 83059.70896656 0 11370.83469576 0 12021.11233236 0 -15842.50379702 0 5666.56117871 0 169
0.01350000 0.01339930 74128.10742836 0 1658.85570433 0 26726.37764725 0 -5409.99326801 0 3031.75754789 0 180
0.01450000 0.01448870 77989.24853911 0 -302.92884195 0 21687.25189903 0 6869.24817284 0 -3842.61711134 0 267
0.01550000 0.01550050 75648.33762596 0 3215.36991036 0 27917.31690474 0 5601.74378922 0 4420.89141964 0 238
0.01650000 0.01653350 77630.39449174 0 1815.21907542 0 33610.92777299 0 10387.14721422 0 8399.42131813 0 315
0.01750000 0.01747870 80066.19522860 0 3790.30037657 0 38563.68938762 0 25969.14135290 0 18457.89764243 0 297
0.01850000 0.01844180 73230.69550180 0 4404.17220916 0 35031.28560072 0 2093.92056343 0 19861.20408994 0 388
0.01950000 0.01947590 79436.40139291 0 -726.30243327 0 48980.20040725 0 23428.48570001 0 41826.59278842 0 399
0.02050000 0.02045430 75976.41061033 0 3195.98226960 0 40010.17790192 0 19861.31481319 0 32011.19828319 0 462
0.02150000 0.02154770 73634.50318794 0 6349.33608865 0 40452.51727843 0 7059.34891765 0 38510.76367498 0 571
0.02250000 0.02255340 65990.61302614 0 2780.51542543 0 34335.94360211 0 10653.59163865 0 27525.35660616 0 510
0.02350000 0.02348930 60109.43697547 0 4140.56229988 0 29057.76636106 0 7704.07931951 0 32576.88335817 0 555
0.02450000 0.02439640 56755.29761815 0 3461.00943646 0 21690.68431973 0 6083.73316090 0 15203.51993173 0 592
0.02550000 0.02547300 52800.81680918 0 2091.59537522 0 21074.39872032 0 3552.07930810 0 10387.86691533 0 837
0.02650000 0.02652900 49291.88635090 0 3403.00152674 0 11679.30966520 0 5906.95242285 0 10099.65430030 0 723
0.02750000 0.02749970 54055.42193438 0 -3029.28841946 0 16831.70529631 0 2682.73572496 0 10949.70989360 0 826
0.02850000 0.02848090 54876.65626617 0 -2101.79298637 0 16016.56074316 0 -3830.62578356 0 11479.23275573 0 831
0.02950000 0.02946900 60351.69944250 0 -1031.76351590 0 23420.51362615 0 28.43040844 0 9942.63766205 0 996
0.03050000 0.03053250 59435.79673350 0 -217.08953656 0 29773.59216059 0 -2165.72458988 0 8314.40800817 0 1041
0.03150000 0.03150510 58850.29219709 0 5767.56292571 0 29049.68356395 0 3731.62812735 0 12784.54912860 0 1036
0.03250000 0.03246190 55154.35017263 0 2580.70425176 0 28526.73766276 0 7171.67765294 0 8006.09912359 0 1059
0.03350000 0.03345080 50397.12581430 0 3712.53943937 0 21205.82721592 0 11114.51037621 0 11918.80405103 0 1302
0.03450000 0.03451200 49036.33709408 0 464.28029537 0 17712.95162863 0 9640.18603730 0 8167.91007849 0 1339
0.03550000 0.03553350 48014.36151332 0 323.69498714 0 12480.72453558 0 4381.41858166 0 4062.93423058 0 1365
0.03650000 0.03647120 44701.85409733 0 2280.47816430 0 12155.97324865 0 2689.30161358 0 2229.24651736 0 1308
0.03750000 0.03744890 45673.33987692 0 207.60055419 0 13497.05323068 0 -3388.98396352 0 6554.06337455 0 1579
0.03850000 0.03847530 44269.14764342 0 5.57477161 0 16814.65391609 0 -3924.10942200 0 2717.15958282 0 1662
0.03950000 0.03950240 44982.53753148 0 2834.49300892 0 18999.88794230 0 -3500.69264861 0 2548.06303819 0 1683
0.04050000 0.04050350 44089.44381161 0 1155.36387785 0 19769.08234745 0 -3827.62518353 0 -91.68527145 0 1822
0.04150000 0.04152450 42176.81042244 0 114.98387878 0 15906.94472746 0 3148.81416588 0 1038.01495049 0 1887
0.04250000 0.04250150 43987.24625353 0 -951.95419861 0 16517.02982497 0 2346.90104089 0 -8342.83066598 0 1920
0.04350000 0.04349210 45244.73018319 0 -2039.74367809 0 15633.45830444 0 -440.08615840 0 -10147.81891326 0 2005
0.04450000 0.04448520 45319.13620597 0 -323.37056803 0 12736.16306914 0 1925.78731106 0 -10123.19406287 0 2151
0.04550000 0.04548030 43602.04007309 0 1467.22697869 0 8712.55773632 0 -1656.63016704 0 -6524.20131452 0 2274
0.04650000 0.04648670 44214.00746582 0 1036.30649077 0 10611.38393645 0 1838.58168079 0 -7422.07827871 0 2311
0.04750000 0.04749250 43815.73594209 0 625.38040701 0 12059.97619247 0 -890.51829712 0 -8177.28833761 0 2568
0.04850000 0.04851840 41601.16025511 0 2452.01062039 0 12905.79108537 0 1681.84185065 0 -5824.12036088 0 2493
0.04950000 0.04949480 40643.95777454 0 1584.43860922 0 11865.10327566 0 1870.33710837 0 379.86156925 0 2644
0.05050000 0.05050630 38651.82509317 0 906.41372663 0 11250.69997147 0 1707.93932025 0 -2862.22918259 0 2829
0.05150000 0.05149060 38014.50207661 0 1635.74776243 0 11407.48409091 0 1775.90124999 0 -1083.74365199 0 2784
0.05250000 0.05249300 37027.07214928 0 777.92382604 0 12411.41178221 0 -377.93609196 0 -1217.96680238 0 3055
0.05350000 0.05348950 34948.13244133 0 1484.17870799 0 9281.73059362 0 -976.56244052 0 -864.43079261 0 3009
0.05450000 0.05448610 35766.59869193 0 -387.23573758 0 11318.68404586 0 -1269.61919765 0 -2602.26206818 0 3336
0.05550000 0.05550870 35521.01452745 0 -651.91080451 0 8880.59133777 0 1197.02903614 0 -4240.80005646 0 3349
0.05650000 0.05647670 36041.96741017 0 8.32931136 0 9355.56085552 0 2088.91587261 0 -4282.40985313 0 3324
0.05750000 0.05747970 35451.14815785 0 928.38564800 0 8720.98377551 0 1440.11085521 0 -5090.09165935 0 3639
0.05850000 0.05849280 34815.48599001 0 1226.60321573 0 8493.35892189 0 1504.64036426 0 -3511.04527232 0 3846
0.05950000 0.05951020 33308.32113569 0 983.71516235 0 8834.37545398 0 748.00640438 0 -3186.99154185 0 3787
0.06050000 0.06049470 33312.97151212 0 537.93340006 0 9658.66574743 0 1158.12088673 0 -431.62690224 0 3930
0.06150000 0.06148310 32356.65481753 0 876.40994084 0 8648.55969887 0 422.96059361 0 -292.10342997 0 4083
0.06250000 0.06249100 32077.63223210 0 790.18531854 0 9592.32037711 0 60.40418226 0 2725.17594599 0 4303
0.06350000 0.06350600 32143.84473452 0 562.93138780 0 10012.40438073 0 -94.19127072 0 897.38978190 0 4470
0.06450000 0.06451750 31114.33997288 0 67.49279533 0 10117.42538164 0 2204.22306327 0 3604.56212774 0 4479
0.06550000 0.06550280 30467.49475697 0 538.46708612 0 9485.91533561 0 1145.03339880 0 1229.88062388 0 4636
0.06650000 0.06648880 30246.93404659 0 447.79249648 0 8030.66861237 0 454.58979668 0 545.97965850 0 4653
0.06750000 0.06749660 30185.48264384 0 354.82482837 0 9039.49027124 0 -471.42415934 0 180.69591211 0 5220
0.06850000 0.06852730 28610.00154540 0 1231.04321799 0 8177.53192876 0 -737.89737182 0 -472.57678835 0 5029
0.06950000 0.06949320 28953.13289153 0 1227.35613382 0 9711.59146006 0 -710.43136287 0 -2172.34584012 0 5040
0.07050000 0.07048030 27649.92026037 0 409.33056176 0 8763.34649027 0 -877.44631044 0 -1037.79571846 0 5475
0.07150000 0.07148790 27184.77189474 0 169.42982161 0 8632.36088766 0 961.73991928 0 -1727.83628795 0 5509
0.07250000 0.07249820 27914.99171653 0 -832.52145972 0 8633.12487807 0 1550.22512553 0 -2475.11856229 0 5916
0.07350000 0.07351270 27869.48446153 0 -99.89495741 0 7823.81544010 0 1240.95294870 0 -2383.59472533 0 5721
0.07450000 0.07449140 28546.11423119 0 1036.59990738 0 8105.26286467 0 526.13362350 0 -680.25927774 0 6028
0.07550000 0.07549160 27431.02039871 0 627.60151537 0 7844.17744545 0 -35.03394296 0 -84.34133056 0 6183
0.07650000 0.07648840 26879.84006923 0 717.56304729 0 7521.18665816 0 184.70852262 0 1526.20925300 0 6330
0.07750000 0.07749960 26868.98919091 0 -21.71980453 0 7504.00241004 0 558.13042776 0 -1025.59069481 0 6583
0.07850000 0.07848650 26260.01132589 0 533.64508866 0 8692.67184095 0 -831.48509012 0 493.90097872 0 6549
0.07950000 0.07947320 25515.06531209 0 1511.91488166 0 8213.53912907 0 78.87071632 0 -252.33606815 0 6828
0.08050000 0.08048110 25191.97487388 0 676.96858281 0 8476.00858890 0 1053.89044982 0 1861.32423596 0 7147
0.08150000 0.08149960 24078.87405986 0 40.88599880 0 8410.11718390 0 158.78599576 0 1458.43555279 0 7386
0.08250000 0.08250610 24273.08263718 0 571.59326751 0 8821.73085903 0 2147.39989230 0 2055.24493284 0 7227
0.08350000 0.08350160 23868.94278130 0 -68.16898221 0 7911.45289104 0 1269.10987071 0 2376.27591863 0 7798
0.08450000 0.08449610 23774.60657385 0 391.64695179 0 8067.37336914 0 1273.02947370 0 901.03700570 0 7371
0.08550000 0.08548940 23699.09331858 0 187.84863394 0 6960.70557584 0 -115.92059746 0 2906.48526489 0 8256
0.08650000 0.08650700 23063.98476698 0 747.50704253 0 6827.88196732 0 -82.00008748 0 1664.81261508 0 8037
0.08750000 0.08749060 22617.21646055 0 667.28583475 0 7228.78870435 0 -723.18225213 0 1751.35390586 0 8155
0.08850000 0.08849210 21837.94623982 0 766.31338623 0 7585.74938418 0 -407.16481502 0 598.64849320 0 8718
0.08950000 0.08949900 21155.66958449 0 997.21011184 0 7326.18087345 0 1115.71388268 0 399.73417784 0 8571
0.09050000 0.09049190 20627.29824415 0 356.58864971 0 6963.37400612 0 755.50458275 0 977.89222673 0 8932
0.09150000 0.09150830 20186.84116286 0 338.92496993 0 6364.70447550 0 958.58430671 0 807.01303780 0 9285
0.09250000 0.09250820 19999.16525718 0 183.30012291 0 6137.84361229 0 630.42717266 0 584.98524438 0 9204
0.09350000 0.09350330 19381.44025555 0 521.18540154 0 5552.60481168 0 -85.83487646 0 -80.30391804 0 9349
0.09450000 0.09448040 19117.80820162 0 586.70256196 0 5842.21253964 0 347.15724343 0 586.76567421 0 9564
0.09550000 0.09549270 19111.05408348 0 -193.66381894 0 5354.98595832 0 108.38942356 0 -148.92387604 0 10155
0.09650000 0.09649430 19037.20167694 0 -123.46970852 0 4650.86360612 0 435.82442058 0 183.98217812 0 9913
0.09750000 0.09749140 18977.52184617 0 422.32725663 0 4645.33851604 0 205.71825897 0 -1333.42900558 0 10476
0.09850000 0.09850240 18618.22490580 0 512.54677371 0 4853.57572890 0 -226.68702771 0 -400.61553489 0 10575
0.09950000 0.09950330 17634.00595267 0 1056.93423191 0 5156.11593225 0 117.38989496 0 -397.66697479 0 10882
0.10050000 0.10051200 17106.18822857 0 535.99242152 0 4864.85842789 0 197.88126746 0 724.87853230 0 10875
0.10150000 0.10150300 16585.67823884 0 88.38095755 0 5010.38199298 0 1049.42608845 0 254.72326138 0 11118
0.10250000 0.10250800 17001.22258929 0 131.91567789 0 5288.35270756 0 890.13298022 0 967.66693476 0 11575
0.10350000 0.10349800 16267.12745381 0 217.00649412 0 4850.46440563 0 203.12069157 0 490.87159065 0 11364
0.10450000 0.10450100 16300.23370502 0 189.44637041 0 4667.30600848 0 34.69114378 0 1442.28103088 0 12093
0.10550000 0.10551000 16030.40114919 0 186.72811467 0 4683.20586692 0 -112.33205698 0 551.74612527 0 12067
0.10650000 0.10649700 15944.03701560 0 381.95202418 0 5117.18563819 0 -747.07854356 0 -201.59935414 0 12054
0.10750000 0.10749900 15813.38358274 0 510.55929141 0 5266.35199814 0 -885.76384084 0 -471.78400990 0 12807
0.10850000 0.10850100 15123.68846979 0 597.28438278 0 5083.00537147 0 -562.79962714 0 -627.86725117 0 12736
0.10950000 0.10950300 15172.62814549 0 146.49792968 0 5416.39307176 0 -186.02612928 0 -1025.11458485 0 12933
0.11050000 0.11050200 15154.13736304 0 -155.19191912 0 5519.81965789 0 356.71155252 0 -1455.22457859 0 13428
0.11150000 0.11150900 15207.06307567 0 -130.74533316 0 4975.85848420 0 543.37655494 0 -2587.09298318 0 13453
0.11250000 0.11250000 14820.52821625 0 260.02469051 0 4577.58696047 0 160.53210138 0 -1636.30137867 0 13668
0.11350000 0.11349100 15012.19015887 0 142.17529407 0 4705.02941914 0 223.08741491 0 -2157.33176767 0 13791
0.11450000 0.11448600 14647.68922584 0 256.38189564 0 4815.85231825 0 556.15401778 0 -1174.98403743 0 14205
0.11550000 0.11549300 14529.21535028 0 380.07526512 0 4488.90871100 0 570.14057849 0 -1210.90265914 0 14776
0.11650000 0.11649800 14232.03415214 0 -37.55511132 0 4747.76859294 0 462.74456391 0 40.53877069 0 14553
0.11750000 0.11747300 14200.36730316 0 134.08585355 0 4889.37255504 0 692.21074515 0 94.55599310 0 14568
0.11850000 0.11849100 14236.35235882 0 263.74609888 0 4818.26608506 0 302.20471190 0 630.38731229 0 16015
0.11950000 0.11950300 13999.73677745 0 139.25995094 0 4721.10643477 0 29.91266056 0 1191.99112835 0 15270
0.12050000 0.12050700 13783.71572024 0 122.50641626 0 4726.15541489 0 210.05418137 0 1765.92508533 0 15999
0.12150000 0.12150000 13812.72521126 0 -11.04444470 0 4595.28053553 0 497.88037226 0 1136.27518986 0 15670
0.12250000 0.12250700 13785.04439921 0 128.22859372 0 4662.04665419 0 300.97568385 0 390.10900587 0 16887
0.12350000 0.12352200 13460.18238904 0 128.42568111 0 3750.04140353 0 174.59395390 0 547.06806803 0 16407
0.12450000 0.12449800 13557.06523120 0 68.72104833 0 3849.28265088 0 172.50239174 0 144.75293128 0 16306
0.12550000 0.12549900 13392.86265414 0 98.03148514 0 3664.82879172 0 254.05781466 0 204.88340568 0 17523
0.12650000 0.12650100 13485.87018261 0 249.09962761 0 3666.50071277 0 407.06294963 0 446.49371278 0 17154
0.12750000 0.12750600 13054.16023794 0 191.28105464 0 3554.95811255 0 301.70535005 0 512.58331239 0 18007
0.12850000 0.12850300 13050.61709399 0 117.63348611 0 3542.77855525 0 -27.95706655 0 758.16304793 0 17496
0.12950000 0.12949900 13009.20659917 0 186.47012950 0 3890.96995382 0 -190.42294946 0 440.88447302 0 18405
0.13050000 0.13049000 12773.47680378 0 466.19912926 0 3744.39451787 0 -639.42897274 0 550.43405478 0 18100
0.13150000 0.13148800 12321.94739768 0 356.18340263 0 3678.65812542 0 -289.99968826 0 -20.32148063 0 19059
0.13250000 0.13249300 12395.79980422 0 -18.83457813 0 3952.74245398 0 226.30060357 0 382.63629385 0 18957
0.13350000 0.13349100 12225.28600201 0 -195.50846825 0 3523.80059051 0 539.64961041 0 -368.38289011 0 19468
0.13450000 0.13450700 12282.86209107 0 107.58391193 0 3036.83974498 0 909.67009736 0 -620.80310793 0 19953
0.13550000 0.13551000 11954.67838344 0 309.74496510 0 2829.36652253 0 793.45719053 0 -368.93650635 0 19956
0.13650000 0.13649900 11967.96517323 0 159.77143267 0 2687.38610138 0 173.12687086 0 -172.42599270 0 19723
0.13750000 0.13749600 11859.12422026 0 129.10552185 0 2741.07580443 0 -233.21748489 0 34.24492909 0 20946
0.13850000 0.13851100 11750.72616028 0 206.24751609 0 3099.60875438 0 -534.60838092 0 364.84196063 0 20955
0.13950000 0.13949800 11643.65677929 0 157.89910254 0 3300.39429264 0 -247.86838509 0 644.96845685 0 20506
0.14050000 0.14048300 11634.02385670 0 94.67956025 0 3105.56566513 0 -172.68951403 0 507.78456681 0 21447
0.14150000 0.14148400 11666.24432192 0 -102.98934002 0 3197.83134785 0 416.10461008 0 -30.07575590 0 21771
0.14250000 0.14249400 11400.72997277 0 251.64847678 0 3151.96977845 0 453.01863379 0 -143.33124478 0 22470
0.14350000 0.14350900 11207.62862793 0 440.07619331 0 2736.49186195 0 234.84179494 0 -58.83833409 0 22519
0.14450000 0.14449900 10758.70121816 0 238.49123320 0 2792.24101742 0 -23.48550817 0 38.10507369 0 22218
0.14550000 0.14550500 10583.90242625 0 165.31645294 0 2841.35785031 0 82.16473295 0 -24.51966331 0 23559
0.14650000 0.14650700 10636.73956028 0 236.41185060 0 3031.02677445 0 -112.83363330 0 -79.07765807 0 23044
0.14750000 0.14750500 10264.13368548 0 117.81064330 0 2763.29796034 0 -152.74825704 0 159.99509363 0 23649
0.14850000 0.14849900 10382.20895735 0 26.16556440 0 2970.09577098 0 164.83591404 0 476.15204204 0 23640
0.14950000 0.14949500 10278.31733358 0 -97.10063479 0 2885.86859608 0 314.76737164 0 208.98459479 0 24457
0.15050000 0.15050000 10452.71752179 0 125.18148993 0 2720.61414816 0 593.31716880 0 213.07471158 0 24591
0.15150000 0.15149900 10048.76589544 0 227.23289332 0 2381.05916295 0 267.65130784 0 256.06965608 0 25020
0.15250000 0.15250500 9976.07608300 0 197.72625491 0 2232.03674322 0 209.28244033 0 496.03350848 0 25297
0.15350000 0.15350100 9882.33778109 0 124.70095104 0 2407.25628347 0 -46.78134742 0 278.94397192 0 25452
0.15450000 0.15450400 9701.07275148 0 185.87776013 0 2485.78121109 0 -280.48966847 0 466.49808203 0 26061
0.15550000 0.15549900 9646.08758643 0 308.69198701 0 2651.87715569 0 -303.89213421 0 775.31629354 0 26128
0.15650000 0.15649500 9485.35064704 0 156.56599463 0 2777.65876563 0 -162.04568819 0 463.11105786 0 26331
0.15750000 0.15749700 9328.20114089 0 175.58049804 0 3191.91872639 0 -34.05570306 0 583.90015654 0 27345
0.15850000 0.15849900 9329.92842356 0 213.32051719 0 3215.44741663 0 -162.22616708 0 189.88483448 0 26980
0.15950000 0.15949700 9083.05986940 0 189.36222075 0 3197.82027552 0 270.64858617 0 776.45785023 0 27777
0.16050000 0.16050000 9029.64697448 0 -56.56551797 0 2757.38533889 0 391.65913135 0 473.96747235 0 28224
0.16150000 0.16150500 8984.61582944 0 -74.41997391 0 2642.37710100 0 351.37579919 0 242.64667670 0 28075
0.16250000 0.16249700 9036.44538192 0 172.11375314 0 2545.94822415 0 173.14680105 0 -324.31946626 0 28590
0.16350000 0.16349900 8735.35565312 0 284.86545124 0 2437.89340624 0 -98.47747838 0 -100.43927289 0 29163
0.16450000 0.16449100 8660.07491668 0 172.09382296 0 2561.09516450 0 -293.06672223 0 -36.42938806 0 28996
0.16550000 0.16550500 8458.16000129 0 128.04590037 0 2509.95209616 0 184.81481694 0 168.00924233 0 30777
0.16650000 0.16650700 8487.37986649 0 10.28872532 0 2546.70114224 0 298.74903933 0 287.28364698 0 29211
0.16750000 0.16749900 8464.02833344 0 64.72925378 0 2299.41183974 0 247.45981630 0 465.47610645 0 30922
0.16850000 0.16850800 8436.35859372 0 -29.91409996 0 2468.74090319 0 285.14225936 0 460.32304648 0 30867
0.16950000 0.16949900 8594.90321280 0 -75.18363215 0 2175.30215085 0 408.02070573 0 770.93829631 0 30852
0.17050000 0.17049200 8558.61920437 0 -111.58024613 0 2171.82544085 0 228.28919311 0 671.83323856 0 31257
0.17150000 0.17149500 8634.36497845 0 57.73032654 0 2007.14675382 0 98.63924505 0 711.12670487 0 32608
0.17250000 0.17250900 8456.15591050 0 221.31584294 0 2010.67882544 0 -110.05403687 0 286.56283863 0 32361
0.17350000 0.17350400 8210.20635930 0 432.13844365 0 2005.00979513 0 -133.23771347 0 806.72405012 0 32508
0.17450000 0.17449800 8058.23870116 0 189.03005100 0 2052.34398373 0 -90.98317533 0 885.64204527 0 32791
0.17550000 0.17549800 7909.12770283 0 10.38653824 0 2015.37349117 0 312.01036276 0 844.09978978 0 33633
0.17650000 0.17650100 8028.83060645 0 15.13918972 0 2128.34442129 0 33.93025362 0 531.95655912 0 33984
0.17750000 0.17750300 7961.53301620 0 85.55518953 0 2185.25617086 0 -195.77309682 0 324.12237888 0 34069
0.17850000 0.17849800 7851.23051635 0 184.34202867 0 2188.82145945 0 -275.91015492 0 576.09084585 0 34536
