### header ###
fiducial parameters:
Omega_m = 0.31
Omega_nu = 0
Omega_de = 0.69
Omega_k = 0
H_0 = 100
w_de = -1
zeff = 0
beta = 0
fgrowth = 0
b_1 = 2
gamma = 0.55
Lx = 3500 Ly = 3500 Lz = 3500
nx = 700 ny = 700 nz = 700
xoffset = -685.467585 yoffset = -31.7331281 zoffset = 572.489161
bins = 400 dk = 0.001
kx_ny = 0.628318531 ky_ny = 0.628318531 kz_ny = 0.628318531
############################
A(data) = 8.03704042 (not used)
A(ran) = 8.03047393 (used)
Ngal = 477492
weighted Ngal = 0
Nran = 23820508
weighted Nran = 0
SN(data) = 3493.47414
SN(ran) = 69.9483404
SN(data+ran) = 3563.42248
############################
13 columns: k_central k_mean P_0(k) sigma^{lin}_{P_0(k)} P^img_1(k) sigma^{lin}_{P_1(k)} P_2(k) sigma^{lin}_{P_2(k)} P^img_3(k) sigma^{lin}_{P_3(k)} P_4(k) sigma^{lin}_{P_4(k)} N_modes
### header ###
0.00050000 0 0 0 0 0 0 0 0 0 0 0 0
0.00150000 0.00179520 12521.80286066 0 -11992.98862732 0 542.02683854 0 -15741.41347142 0 -17445.77643076 0 3
0.00250000 0.00253879 19592.36804335 0 -8311.51813139 0 3881.14880171 0 -13963.19810555 0 -5793.21750231 0 6
0.00350000 0.00331552 26735.45695360 0 -5638.93572829 0 -2647.73610621 0 -9532.16443637 0 17568.45778975 0 7
0.00450000 0.00420575 30319.56849740 0 -3728.14034504 0 10109.89620076 0 -20048.54782587 0 -1033.81743215 0 24
0.00550000 0.00557378 34999.50802849 0 1545.98442513 0 21438.01386737 0 -11457.19882934 0 -2994.97528485 0 45
0.00650000 0.00659388 42337.69130205 0 -6023.07896555 0 19573.87726090 0 15321.44019105 0 16590.88223151 0 40
0.00750000 0.00754703 42010.39338041 0 -8680.93517664 0 12654.67075848 0 11191.02014070 0 -2257.84633237 0 57
0.00850000 0.00846663 55930.18797267 0 -12177.23211230 0 138.42731212 0 17879.47939390 0 -20055.41266726 0 75
0.00950000 0.00948925 67209.01164918 0 -8626.43719388 0 -2105.19219009 0 6828.87847655 0 -20004.03708010 0 112
0.01050000 0.01054430 68405.70851558 0 -3405.37100425 0 -8229.35040891 0 -26653.41102669 0 -16414.61082039 0 105
0.01150000 0.01145670 70844.16661039 0 -1639.85559494 0 -620.46872372 0 -14545.15949801 0 -12211.66704249 0 144
0.01250000 0.01249090 77896.79462688 0 -7287.21736242 0 2949.05835382 0 -12782.77755663 0 -8281.02494884 0 169
0.01350000 0.01339930 74252.00674308 0 -4549.46325543 0 7130.04571162 0 -5263.01922837 0 -14815.32422359 0 180
0.01450000 0.01448870 87316.46424309 0 -2242.21220972 0 6984.72144837 0 -9374.09592726 0 -15081.17074249 0 267
0.01550000 0.01550050 81362.32157187 0 9024.24367997 0 12846.11125459 0 3897.21474502 0 -7790.89741842 0 238
0.01650000 0.01653350 82057.66357048 0 9579.33254010 0 24310.06420208 0 -8885.78425811 0 -442.15114698 0 315
0.01750000 0.01747870 68885.14018023 0 10053.00659584 0 25405.44929638 0 -2897.89314084 0 7236.98222472 0 297
0.01850000 0.01844180 64781.18298620 0 6981.77620997 0 26117.84267522 0 8360.60174731 0 -285.15554615 0 388
0.01950000 0.01947590 66765.89720994 0 -6025.02769472 0 28789.92682370 0 11863.11025719 0 6963.52901867 0 399
0.02050000 0.02045430 67334.12891963 0 -5361.40790671 0 26780.29986912 0 18721.52969636 0 -13412.34994582 0 462
0.02150000 0.02154770 75365.99334308 0 -4633.76793660 0 19771.07536592 0 3705.05454779 0 -3847.12354754 0 571
0.02250000 0.02255340 75244.08704683 0 -3316.79240570 0 20755.95865854 0 -7105.75303096 0 8199.86480792 0 510
0.02350000 0.02348930 75057.73982013 0 9968.54690213 0 24847.95774177 0 -4731.22653966 0 -6965.68812201 0 555
0.02450000 0.02439640 67739.92962424 0 7845.09644841 0 32513.88182995 0 -9090.40082076 0 10779.77185229 0 592
0.02550000 0.02547300 63158.75523052 0 5321.71362224 0 32144.84124375 0 263.61323098 0 8233.15928865 0 837
0.02650000 0.02652900 60073.45191981 0 3105.33314631 0 36654.70986563 0 5283.89056066 0 9992.42990676 0 723
0.02750000 0.02749970 59059.00551992 0 -96.73923411 0 26984.47353877 0 14445.95146764 0 -3067.89761610 0 826
0.02850000 0.02848090 59741.50362174 0 -1202.88629597 0 31977.31696924 0 2865.45122912 0 1005.53317841 0 831
0.02950000 0.02946900 61453.39576195 0 687.54486747 0 26761.58764017 0 4109.77016456 0 -610.30875847 0 996
0.03050000 0.03053250 59744.71459594 0 863.70776980 0 26686.07438491 0 -4989.43315443 0 -1541.06831291 0 1041
0.03150000 0.03150510 58580.34891801 0 3032.98657595 0 25914.66551479 0 1401.13627185 0 7835.35280256 0 1036
0.03250000 0.03246190 58094.27385847 0 -1936.46103218 0 24539.59349557 0 6422.42450478 0 -2827.90497566 0 1059
0.03350000 0.03345080 58634.60330962 0 -962.51166032 0 24889.36823659 0 6330.92281248 0 2742.53735130 0 1302
0.03450000 0.03451200 57517.73790517 0 4235.61820845 0 21418.30512919 0 5038.63856592 0 -5335.52081128 0 1339
0.03550000 0.03553350 54943.97600107 0 2847.40333966 0 18871.44897440 0 1049.50802366 0 3925.21665448 0 1365
0.03650000 0.03647120 53229.53722615 0 2006.83672873 0 20546.13810322 0 -1243.27813691 0 2970.37257910 0 1308
0.03750000 0.03744890 52629.19577449 0 792.16283576 0 19243.03619532 0 355.96638506 0 3028.91196041 0 1579
0.03850000 0.03847530 50260.05043304 0 1727.69234773 0 19674.41397025 0 1994.59073748 0 58.28626797 0 1662
0.03950000 0.03950240 49893.11358855 0 664.01064107 0 19991.19318331 0 1687.55517026 0 1700.69801982 0 1683
0.04050000 0.04050350 49348.24448422 0 505.40290974 0 20007.80167054 0 2890.74041900 0 2210.24640797 0 1822
0.04150000 0.04152450 49117.94012800 0 1761.46293842 0 19854.11780206 0 2750.18832775 0 1120.96216464 0 1887
0.04250000 0.04250150 46782.01176101 0 2099.26849632 0 22669.92072669 0 -364.33263369 0 201.51631170 0 1920
0.04350000 0.04349210 45462.30136587 0 3751.38115483 0 18465.20537681 0 -1248.05030891 0 2946.99890141 0 2005
0.04450000 0.04448520 42100.74355093 0 3416.26617187 0 19532.90965907 0 -3202.08312058 0 843.49413361 0 2151
0.04550000 0.04548030 39957.14146604 0 1093.07540735 0 19267.28458667 0 -2067.64593663 0 1444.84981023 0 2274
0.04650000 0.04648670 40707.29147251 0 270.06839635 0 23019.25257472 0 3205.02835898 0 -2260.58119660 0 2311
0.04750000 0.04749250 38947.89905882 0 856.77649447 0 21690.90576622 0 2077.09062970 0 -3675.82361027 0 2568
0.04850000 0.04851840 39119.07720052 0 1531.25823312 0 22355.35597859 0 471.12188487 0 -1368.32897341 0 2493
0.04950000 0.04949480 36769.52987400 0 845.83593031 0 18262.24966288 0 3588.83942649 0 -10.28623405 0 2644
0.05050000 0.05050630 38640.30987536 0 -1493.32444829 0 19715.93518832 0 5226.59127972 0 732.01243118 0 2829
0.05150000 0.05149060 37625.42058248 0 -86.11445266 0 16391.35893828 0 2850.34857806 0 -771.52291506 0 2784
0.05250000 0.05249300 38287.32416014 0 685.29275661 0 16805.79605624 0 3587.56610914 0 2890.61862343 0 3055
0.05350000 0.05348950 36443.67135459 0 635.80942976 0 13848.71026692 0 1224.94236701 0 815.05043839 0 3009
0.05450000 0.05448610 36324.53313954 0 1280.27077413 0 14211.21818148 0 -261.42312513 0 1178.98114669 0 3336
0.05550000 0.05550870 34785.25854325 0 1422.86017314 0 14121.64307370 0 1269.39775116 0 1394.06105629 0 3349
0.05650000 0.05647670 34215.58743133 0 465.38309892 0 13517.53703160 0 681.74075480 0 2909.43050330 0 3324
0.05750000 0.05747970 33921.50648415 0 758.52843465 0 15506.90163176 0 804.09105128 0 2948.99191987 0 3639
0.05850000 0.05849280 33469.64490830 0 936.04216061 0 14013.57718347 0 1843.08811699 0 3811.04991328 0 3846
0.05950000 0.05951020 32513.43893696 0 1373.24508563 0 14368.44519391 0 882.28602362 0 3971.78685267 0 3787
0.06050000 0.06049470 32421.76008746 0 21.85389039 0 13350.12348034 0 516.09656105 0 3814.40482770 0 3930
0.06150000 0.06148310 31879.88051084 0 -473.27877375 0 13075.30837834 0 411.55499181 0 1562.00607914 0 4083
0.06250000 0.06249100 32713.29439994 0 -618.86102216 0 13804.42096765 0 611.00410047 0 1217.11423336 0 4303
0.06350000 0.06350600 33465.43742487 0 -850.84947899 0 12429.34894842 0 720.74412621 0 -834.62630867 0 4470
0.06450000 0.06451750 33772.14082235 0 590.63766620 0 13002.45248103 0 54.72861928 0 -944.92991574 0 4479
0.06550000 0.06550280 33534.52873174 0 859.11386224 0 12090.53580897 0 708.46048906 0 -431.83616918 0 4636
0.06650000 0.06648880 32752.15826005 0 901.93164954 0 12738.59898060 0 530.00893719 0 -726.71985991 0 4653
0.06750000 0.06749660 31154.20034223 0 410.90283188 0 11253.46805268 0 2939.84617957 0 1473.80393964 0 5220
0.06850000 0.06852730 30951.79824454 0 722.93423206 0 11254.90745491 0 1694.87397696 0 153.38159402 0 5029
0.06950000 0.06949320 30073.20927018 0 713.92357412 0 9820.21096653 0 3237.58099395 0 3624.55874636 0 5040
0.07050000 0.07048030 29426.25333103 0 232.22651182 0 8157.00383855 0 1942.94941453 0 3011.20731303 0 5475
0.07150000 0.07148790 28820.81860994 0 620.87286358 0 8327.62836400 0 1511.30590380 0 4195.54746493 0 5509
0.07250000 0.07249820 29210.01082732 0 577.91667221 0 7923.94247344 0 -1419.43882478 0 2536.96856872 0 5916
0.07350000 0.07351270 28342.27273128 0 990.04299598 0 8643.88717780 0 -319.34799242 0 3052.24134881 0 5721
0.07450000 0.07449140 27437.33162385 0 420.25119572 0 8731.74607523 0 -2623.63165508 0 3881.64705632 0 6028
0.07550000 0.07549160 27548.94065803 0 969.47283094 0 9951.07477356 0 182.48852150 0 655.74515059 0 6183
0.07650000 0.07648840 26910.51040898 0 189.27253491 0 9901.50397535 0 587.75000388 0 2392.39722356 0 6330
0.07750000 0.07749960 25728.09684160 0 1066.76202742 0 8318.87015507 0 1418.91842551 0 113.26877566 0 6583
0.07850000 0.07848650 25611.61598451 0 210.44392720 0 8717.94995851 0 501.17217443 0 22.60127231 0 6549
0.07950000 0.07947320 25631.10327619 0 20.99744606 0 8391.73712470 0 302.24900120 0 -1738.24427328 0 6828
0.08050000 0.08048110 25203.15792195 0 520.52659821 0 8824.97505021 0 -561.29489819 0 -468.96278153 0 7147
0.08150000 0.08149960 24958.79171320 0 541.33924717 0 9056.50843449 0 -446.49149831 0 -814.16465240 0 7386
0.08250000 0.08250610 24474.15605589 0 508.06801833 0 10757.49433475 0 -420.24012340 0 1105.30589735 0 7227
0.08350000 0.08350160 24479.36004855 0 496.29924428 0 10583.55918418 0 698.15547635 0 919.59200763 0 7798
0.08450000 0.08449610 23780.03201301 0 528.56178433 0 10879.41170333 0 1570.31032275 0 2863.41392135 0 7371
0.08550000 0.08548940 23141.38031747 0 730.34051013 0 11059.29269233 0 1294.31048200 0 2708.14671042 0 8256
0.08650000 0.08650700 22781.08686787 0 804.31471224 0 9983.29523878 0 1517.27388687 0 3324.57625005 0 8037
0.08750000 0.08749060 21837.06045383 0 369.72596311 0 9270.06036327 0 932.88765527 0 2662.82768494 0 8155
0.08850000 0.08849210 21573.64984640 0 296.93317806 0 7853.86572966 0 543.59357251 0 1463.79455800 0 8718
0.08950000 0.08949900 21239.04419038 0 259.73791729 0 7883.55063250 0 -218.55883406 0 892.04184901 0 8571
0.09050000 0.09049190 20853.06294720 0 696.25103648 0 7324.44251846 0 -846.88447947 0 -116.13982949 0 8932
0.09150000 0.09150830 20391.90061850 0 935.57380127 0 7380.55706064 0 -675.20365423 0 -446.22133359 0 9285
0.09250000 0.09250820 20075.56429843 0 350.34828745 0 8071.50334630 0 -942.46300177 0 -1076.47356352 0 9204
0.09350000 0.09350330 19655.59101806 0 171.55460074 0 8318.32761115 0 94.81419972 0 -1444.66158071 0 9349
0.09450000 0.09448040 19071.63660713 0 456.89173301 0 8803.15149799 0 558.71504651 0 -215.47962053 0 9564
0.09550000 0.09549270 19327.73948018 0 265.52652871 0 8265.33546457 0 1119.88814913 0 -892.27104614 0 10155
0.09650000 0.09649430 18985.27247354 0 351.49980923 0 9020.00297956 0 696.51234334 0 -735.41717106 0 9913
0.09750000 0.09749140 18297.79182555 0 838.66659999 0 7760.86927351 0 579.93958596 0 -640.98684884 0 10476
0.09850000 0.09850240 17556.16750920 0 531.11063351 0 7245.06502183 0 389.39705538 0 325.06795542 0 10575
0.09950000 0.09950330 17534.13358281 0 -0.25709606 0 6801.18659218 0 638.99715207 0 -174.92723088 0 10882
0.10050000 0.10051200 17437.80435689 0 -82.50111018 0 6461.85305346 0 690.93410610 0 -580.59506759 0 10875
0.10150000 0.10150300 17332.28510136 0 452.79940176 0 6037.46191549 0 342.89439838 0 -1541.94302657 0 11118
0.10250000 0.10250800 16773.13269802 0 476.71783783 0 5406.23974990 0 58.94263539 0 -1333.19648676 0 11575
0.10350000 0.10349800 16435.98040729 0 71.18740868 0 5568.85898451 0 667.91252834 0 -304.59965576 0 11364
0.10450000 0.10450100 16335.44369794 0 129.61374156 0 5009.93909999 0 862.99471209 0 -934.15432923 0 12093
0.10550000 0.10551000 16274.87808118 0 14.67802740 0 5349.98126750 0 1057.83773362 0 -848.72912879 0 12067
0.10650000 0.10649700 16155.85058938 0 -7.68680649 0 5075.86372196 0 737.34707728 0 -98.04012155 0 12054
0.10750000 0.10749900 16180.87404347 0 329.21786276 0 5137.45906493 0 -25.61604491 0 -222.57587350 0 12807
0.10850000 0.10850100 15787.58506592 0 655.51152454 0 5168.94875671 0 -377.94605706 0 425.67774212 0 12736
0.10950000 0.10950300 15279.36535674 0 542.85726291 0 5472.51868627 0 50.59897430 0 1170.34473333 0 12933
0.11050000 0.11050200 15104.75479435 0 97.59257818 0 5437.88445423 0 273.41888184 0 1322.95458631 0 13428
0.11150000 0.11150900 14861.27437159 0 -84.95263362 0 5224.88614170 0 544.55686477 0 1209.07572555 0 13453
0.11250000 0.11250000 15317.01126112 0 -301.35103566 0 5534.63442850 0 729.38164680 0 1423.07054732 0 13668
0.11350000 0.11349100 15164.10245538 0 -37.43807685 0 4614.11456005 0 759.17062949 0 1323.95109554 0 13791
0.11450000 0.11448600 15348.56738686 0 14.85407736 0 4293.43788865 0 754.97643285 0 1601.64500199 0 14205
0.11550000 0.11549300 15162.55232990 0 -134.40141481 0 3831.06867655 0 142.31148366 0 830.62919941 0 14776
0.11650000 0.11649800 15465.04824395 0 20.27519831 0 4004.22876439 0 509.34465738 0 1172.76957247 0 14553
0.11750000 0.11747300 15153.58374680 0 165.78370504 0 4058.25063718 0 -110.16918905 0 640.41551688 0 14568
0.11850000 0.11849100 15140.07551052 0 275.36761101 0 3733.27790375 0 -83.43140691 0 1306.37931605 0 16015
0.11950000 0.11950300 14808.90227519 0 206.44681794 0 3955.32230567 0 -198.27433499 0 1224.39982310 0 15270
0.12050000 0.12050700 14769.81696859 0 578.64523118 0 3855.11776606 0 150.69212632 0 1105.20735366 0 15999
0.12150000 0.12150000 14283.07756956 0 564.09619637 0 4275.51179477 0 -119.46152693 0 1494.43168077 0 15670
0.12250000 0.12250700 13689.37951278 0 425.36218086 0 4269.46630542 0 2.07201950 0 1810.77907317 0 16887
0.12350000 0.12352200 13684.95058285 0 146.52339602 0 4350.49357844 0 250.08727898 0 1776.39950460 0 16407
0.12450000 0.12449800 13514.21533415 0 -18.68499102 0 4505.51719823 0 803.73784412 0 1096.15351365 0 16306
0.12550000 0.12549900 13565.59092131 0 229.22037563 0 4305.25205923 0 149.75319317 0 1750.01415456 0 17523
0.12650000 0.12650100 13161.56178868 0 379.67001803 0 3977.12371323 0 10.65879563 0 1065.25840571 0 17154
0.12750000 0.12750600 12985.17965432 0 120.70716348 0 4161.62186169 0 -104.17352516 0 750.73462521 0 18007
0.12850000 0.12850300 12782.55611013 0 171.57453092 0 3706.28357584 0 -231.72161380 0 189.41315344 0 17496
0.12950000 0.12949900 12749.11768918 0 178.54788110 0 3623.48473085 0 -88.68965397 0 5.99998210 0 18405
0.13050000 0.13049000 12737.15957838 0 -86.75830835 0 3562.15512368 0 -207.82532238 0 -27.89749744 0 18100
0.13150000 0.13148800 12794.84639068 0 -157.46506741 0 3275.88016549 0 426.22139327 0 -392.88705217 0 19059
0.13250000 0.13249300 12829.39204412 0 153.17011261 0 3328.18582794 0 465.28455523 0 -91.33472164 0 18957
0.13350000 0.13349100 12626.32560694 0 197.86908790 0 2806.76790758 0 558.20793403 0 -254.17961023 0 19468
0.13450000 0.13450700 12691.20943038 0 -59.17338264 0 3040.98079447 0 626.58729042 0 7.80576755 0 19953
0.13550000 0.13551000 12536.30760617 0 244.67623384 0 3121.46552357 0 181.31153337 0 208.02573146 0 19956
0.13650000 0.13649900 12407.64719178 0 314.53485282 0 3147.36369132 0 -454.35174170 0 359.82509026 0 19723
0.13750000 0.13749600 12223.95732303 0 267.60591131 0 3692.28815727 0 -518.34867192 0 531.46273344 0 20946
0.13850000 0.13851100 11846.94466296 0 474.07819560 0 3913.66821970 0 -596.57243230 0 540.41138635 0 20955
0.13950000 0.13949800 11490.85869679 0 395.07051462 0 4039.67127613 0 -174.79104128 0 706.54165517 0 20506
0.14050000 0.14048300 11389.10403171 0 113.11597758 0 4080.38421449 0 28.62849233 0 270.77038174 0 21447
0.14150000 0.14148400 11294.32493126 0 -43.43307640 0 3967.38006739 0 722.62642143 0 368.18026657 0 21771
0.14250000 0.14249400 11224.56928490 0 123.09657117 0 3374.44600103 0 644.00184289 0 -41.18218348 0 22470
0.14350000 0.14350900 11173.19369774 0 33.37409075 0 3186.46007026 0 438.46959898 0 164.13503588 0 22519
0.14450000 0.14449900 11054.05548270 0 37.35636309 0 2738.65096529 0 466.53462070 0 102.06635103 0 22218
0.14550000 0.14550500 10755.54560558 0 331.61280662 0 2684.62909250 0 257.15806561 0 191.32755840 0 23559
0.14650000 0.14650700 10703.48353429 0 248.13412088 0 2486.50091220 0 239.83762790 0 367.50042582 0 23044
0.14750000 0.14750500 10322.65092215 0 246.75561644 0 2614.76272290 0 -78.99671937 0 654.26145907 0 23649
0.14850000 0.14849900 10328.95107497 0 149.98903369 0 2699.96426238 0 -46.46700412 0 251.25540925 0 23640
0.14950000 0.14949500 10128.48663413 0 84.75565696 0 2950.40917745 0 -91.72845351 0 740.05979686 0 24457
0.15050000 0.15050000 10341.25242785 0 -131.65769272 0 3064.83058213 0 -117.93465334 0 478.69203335 0 24591
0.15150000 0.15149900 10322.25231846 0 -91.92786608 0 3348.43711003 0 -22.36521035 0 642.68866517 0 25020
0.15250000 0.15250500 10372.25493734 0 222.22266634 0 3551.07172654 0 165.06400393 0 623.69741364 0 25297
0.15350000 0.15350100 10232.81007857 0 412.68436894 0 3272.49203410 0 95.19641637 0 970.49812821 0 25452
0.15450000 0.15450400 9889.06975458 0 346.59919826 0 3228.19166250 0 124.61237244 0 1087.63003801 0 26061
0.15550000 0.15549900 9596.33963102 0 298.49880479 0 3198.65069988 0 338.02257546 0 1113.51049004 0 26128
0.15650000 0.15649500 9264.45776691 0 258.66833072 0 3075.39358000 0 132.33310454 0 1000.03244744 0 26331
0.15750000 0.15749700 9149.95885596 0 177.38639422 0 2868.03108080 0 89.63888437 0 1090.57527641 0 27345
0.15850000 0.15849900 9065.22235412 0 -17.02624604 0 2912.32038007 0 241.01461602 0 998.97946935 0 26980
0.15950000 0.15949700 8976.14550095 0 0.06102169 0 2744.34214025 0 216.89798534 0 1327.13992509 0 27777
0.16050000 0.16050000 9069.11981246 0 114.91301590 0 2863.13711323 0 270.13261583 0 861.07034203 0 28224
0.16150000 0.16150500 8870.30514801 0 102.32799006 0 2666.78050490 0 -27.06995189 0 912.15804874 0 28075
0.16250000 0.16249700 8690.82276270 0 251.46578342 0 2787.98924469 0 -16.54238545 0 1010.31531549 0 28590
0.16350000 0.16349900 8671.95552121 0 119.36298324 0 2514.21494122 0 -5.26245454 0 776.87416965 0 29163
0.16450000 0.16449100 8541.05849721 0 -21.15544814 0 2657.93371737 0 -41.93133698 0 791.81184306 0 28996
0.16550000 0.16550500 8666.81796250 0 5.52766994 0 2629.41140863 0 -186.59081784 0 349.39606751 0 30777
0.16650000 0.16650700 8543.91515701 0 128.95272377 0 2567.07421990 0 98.25293164 0 405.83945774 0 29211
0.16750000 0.16749900 8561.69731067 0 141.33158292 0 2390.03881838 0 -11.49296244 0 21.33758788 0 30922
0.16850000 0.16850800 8379.48006113 0 65.57075047 0 2296.74340946 0 316.53672915 0 182.35233190 0 30867
0.16950000 0.16949900 8484.84430410 0 -0.03304668 0 2144.86432992 0 123.78416254 0 -493.71385643 0 30852
0.17050000 0.17049200 8361.99686024 0 -24.79171033 0 2126.25175190 0 456.92273552 0 -123.77309022 0 31257
0.17150000 0.17149500 8299.02854900 0 124.41528506 0 1937.93365138 0 -96.62430338 0 32.52240752 0 32608
0.17250000 0.17250900 8324.38417283 0 130.04002607 0 2002.33029253 0 122.12774275 0 23.54950621 0 32361
0.17350000 0.17350400 8164.32264525 0 118.62999534 0 2099.57852141 0 74.54796999 0 448.49116017 0 32508
0.17450000 0.17449800 8079.79651759 0 149.69118815 0 1895.52664733 0 158.65091340 0 172.83566872 0 32791
0.17550000 0.17549800 7985.46031013 0 103.64626106 0 2110.61762926 0 126.12374478 0 566.09696547 0 33633
0.17650000 0.17650100 7975.14090340 0 189.74975211 0 2124.21444413 0 -76.04306601 0 417.88061098 0 33984
0.17750000 0.17750300 7725.13888132 0 236.63440433 0 2214.19922793 0 -124.56033251 0 701.73958789 0 34069
0.17850000 0.17849800 7613.41912390 0 126.59653305 0 2211.48650835 0 26.21550058 0 1160.67859376 0 34536
