### header ###
fiducial parameters:
Omega_m = 0.31
Omega_nu = 0
Omega_de = 0.69
Omega_k = 0
H_0 = 100
w_de = -1
zeff = 0
beta = 0
fgrowth = 0
b_1 = 2
gamma = 0.55
Lx = 3500 Ly = 3500 Lz = 3500
nx = 700 ny = 700 nz = 700
xoffset = -685.467585 yoffset = -31.7331281 zoffset = 572.489161
bins = 400 dk = 0.001
kx_ny = 0.628318531 ky_ny = 0.628318531 kz_ny = 0.628318531
############################
A(data) = 7.97386335 (not used)
A(ran) = 7.96430275 (used)
Ngal = 473546
weighted Ngal = 0
Nran = 23820508
weighted Nran = 0
SN(data) = 3499.43406
SN(ran) = 69.3719654
SN(data+ran) = 3568.80602
############################
13 columns: k_central k_mean P_0(k) sigma^{lin}_{P_0(k)} P^img_1(k) sigma^{lin}_{P_1(k)} P_2(k) sigma^{lin}_{P_2(k)} P^img_3(k) sigma^{lin}_{P_3(k)} P_4(k) sigma^{lin}_{P_4(k)} N_modes
### header ###
0.00050000 0 0 0 0 0 0 0 0 0 0 0 0
0.00150000 0.00179520 2178.46883574 0 -27.60873121 0 -1137.13883120 0 1829.66845931 0 -7037.28177429 0 3
0.00250000 0.00253879 19566.79097302 0 -24755.72527603 0 -13509.67568097 0 -13185.25656379 0 -25220.20930217 0 6
0.00350000 0.00331552 35115.65671584 0 -32403.04785852 0 -24374.39440927 0 -996.04530327 0 33145.55796086 0 7
0.00450000 0.00420575 59595.34893414 0 -22098.69948930 0 -4088.63309648 0 -40852.33892763 0 -5712.12379534 0 24
0.00550000 0.00557378 60829.35953518 0 11641.44231432 0 27105.05115605 0 -33523.67785342 0 25888.20265848 0 45
0.00650000 0.00659388 69523.23825953 0 17727.01348115 0 48108.91916727 0 2623.00053256 0 74113.49195959 0 40
0.00750000 0.00754703 49344.92278678 0 1881.59766271 0 51990.87624869 0 46219.31621372 0 30796.89642033 0 57
0.00850000 0.00846663 60751.29964520 0 -3536.88807844 0 65295.93536702 0 62776.64930103 0 40316.99202265 0 75
0.00950000 0.00948925 59518.72844639 0 -10449.41796900 0 38856.10948608 0 57622.59282120 0 20580.90520316 0 112
0.01050000 0.01054430 83548.21993756 0 -5889.50243894 0 35327.80245937 0 39555.32679837 0 55754.24873130 0 105
0.01150000 0.01145670 78545.74358450 0 -3063.15866108 0 22729.71128071 0 29733.17817500 0 45178.73912727 0 144
0.01250000 0.01249090 81742.10231315 0 3188.15413596 0 21857.43353150 0 11629.92709651 0 54345.95973762 0 169
0.01350000 0.01339930 75842.21403353 0 179.45913343 0 4812.97351379 0 5271.56706313 0 33075.02725176 0 180
0.01450000 0.01448870 77675.45885375 0 3912.33954072 0 9435.66912558 0 -3120.52437596 0 27289.18391778 0 267
0.01550000 0.01550050 73039.25500569 0 2472.41691503 0 16365.78186794 0 -8159.25152048 0 14889.73024637 0 238
0.01650000 0.01653350 75059.62211535 0 322.08396388 0 19280.57137645 0 -12825.73817693 0 -4636.73531965 0 315
0.01750000 0.01747870 72158.45156637 0 -321.55802845 0 12360.36836480 0 -20377.50659624 0 -8552.71765524 0 297
0.01850000 0.01844180 72473.01631446 0 5874.72088530 0 27807.36871929 0 -1958.24029510 0 -14749.77606066 0 388
0.01950000 0.01947590 70609.98694048 0 883.49401425 0 19068.20418643 0 2131.26751504 0 -9974.85812727 0 399
0.02050000 0.02045430 73202.79324326 0 214.45100155 0 13355.99181249 0 10701.99984276 0 -24810.31183738 0 462
0.02150000 0.02154770 67963.14769258 0 -70.22777029 0 9294.95094946 0 -1006.52304424 0 -22573.81294726 0 571
0.02250000 0.02255340 71656.21091259 0 2550.05605666 0 13679.52514369 0 6484.46274074 0 -25599.32570396 0 510
0.02350000 0.02348930 69852.19702989 0 138.73733721 0 13965.08040077 0 -7542.54517274 0 -15756.91472617 0 555
0.02450000 0.02439640 71092.40813283 0 586.96940498 0 12600.63781336 0 -1266.69610390 0 -9827.40797766 0 592
0.02550000 0.02547300 71925.93274517 0 -1620.19114606 0 17162.87853164 0 -2710.90371930 0 -219.26192669 0 837
0.02650000 0.02652900 74261.86111216 0 -1052.29049888 0 25158.97934592 0 1804.42355872 0 12317.96136074 0 723
0.02750000 0.02749970 77221.82570593 0 -313.01462262 0 31770.59666488 0 -1370.05625608 0 12271.23615001 0 826
0.02850000 0.02848090 75232.35038252 0 3273.52176031 0 36090.24274638 0 9610.65614701 0 18344.18486654 0 831
0.02950000 0.02946900 74205.61370209 0 5037.08844045 0 40874.81574701 0 9408.78552092 0 19353.87016675 0 996
0.03050000 0.03053250 69812.44738379 0 4340.56170308 0 41753.51544462 0 4425.70788094 0 25191.31053439 0 1041
0.03150000 0.03150510 69088.20661740 0 711.86080001 0 38759.33736716 0 12903.79806690 0 26198.55992314 0 1036
0.03250000 0.03246190 65928.05439091 0 252.14230247 0 35377.18502806 0 8407.14980085 0 18614.79248511 0 1059
0.03350000 0.03345080 64224.68794081 0 4296.43848868 0 32681.84899745 0 8653.29865389 0 14555.23531360 0 1302
0.03450000 0.03451200 58607.36539057 0 2082.59357514 0 22987.47500249 0 5034.18749135 0 11270.29798640 0 1339
0.03550000 0.03553350 55619.16636851 0 3911.07729569 0 21367.59388152 0 -712.45095492 0 3615.75624813 0 1365
0.03650000 0.03647120 53361.51933799 0 3045.16613325 0 12840.24292244 0 4076.58640708 0 4556.56061564 0 1308
0.03750000 0.03744890 48474.74877928 0 3515.44098527 0 14127.73285235 0 -1349.11848985 0 -830.57494502 0 1579
0.03850000 0.03847530 48387.05596672 0 720.82495418 0 7959.08603241 0 3024.94806813 0 -2742.47091736 0 1662
0.03950000 0.03950240 46992.60737906 0 -2620.27674066 0 11831.66485471 0 6170.11943914 0 -3732.70214286 0 1683
0.04050000 0.04050350 48732.95539405 0 129.79089876 0 5594.86787551 0 1673.62618564 0 -2746.40159267 0 1822
0.04150000 0.04152450 47171.20397838 0 1720.63927682 0 10975.53055508 0 1264.91345961 0 4175.81658210 0 1887
0.04250000 0.04250150 46093.53460378 0 3924.27550687 0 13319.12097085 0 -4061.57233463 0 5313.11042585 0 1920
0.04350000 0.04349210 42463.47291199 0 4066.95348449 0 12993.15172819 0 1956.88947147 0 10326.94698418 0 2005
0.04450000 0.04448520 41516.56769350 0 1013.22401522 0 15726.57655616 0 1982.84300085 0 13785.04439921 0 2151
0.04550000 0.04548030 41635.04156906 0 -951.83683196 0 12302.79227574 0 1888.40714247 0 7865.17057330 0 2274
0.04650000 0.04648670 41852.05913550 0 41.97064373 0 16146.66055978 0 -1232.33867999 0 4990.06427694 0 2311
0.04750000 0.04749250 41713.98724502 0 1517.11887433 0 12873.79206664 0 -3081.87089002 0 3546.87531543 0 2568
0.04850000 0.04851840 39688.52686594 0 1881.68624130 0 13368.39281629 0 -3332.43760067 0 3176.62784582 0 2493
0.04950000 0.04949480 37622.87394777 0 476.90274566 0 12617.57847034 0 1056.77700490 0 1884.01142952 0 2644
0.05050000 0.05050630 37235.01040938 0 180.09247041 0 12210.11691701 0 4204.91465173 0 -1746.44886597 0 2829
0.05150000 0.05149060 37617.66995511 0 -166.53662313 0 10883.22058307 0 3564.44709492 0 -3823.37341080 0 2784
0.05250000 0.05249300 36665.56074395 0 1032.33263340 0 8916.53210413 0 3075.38250768 0 -3462.27168149 0 3055
0.05350000 0.05348950 36284.78349344 0 713.86710527 0 9943.70060523 0 -160.96724375 0 -140.34946770 0 3009
0.05450000 0.05448610 35636.83104505 0 118.72300287 0 8406.40795509 0 1375.38204432 0 2289.97821899 0 3336
0.05550000 0.05550870 35282.95954385 0 -356.72705377 0 8142.04512772 0 1437.58636515 0 3146.10144629 0 3349
0.05650000 0.05647670 36437.36012944 0 -1032.96929207 0 5883.36837099 0 4232.66189772 0 1726.47439200 0 3324
0.05750000 0.05747970 37177.65576682 0 589.06650330 0 7146.51025862 0 -607.86509638 0 -256.83696819 0 3639
0.05850000 0.05849280 35843.10845643 0 2435.24712061 0 8516.75474423 0 -3178.57657499 0 2351.75071916 0 3846
0.05950000 0.05951020 33767.71189242 0 2495.18161486 0 8732.95295864 0 -2082.07317587 0 492.99415532 0 3787
0.06050000 0.06049470 32231.09465409 0 972.55093724 0 9070.27133424 0 2001.75453164 0 2941.50702830 0 3930
0.06150000 0.06148310 32028.69255640 0 -130.55821087 0 8851.55970210 0 1865.69780427 0 588.65904175 0 4083
0.06250000 0.06249100 31320.06376801 0 -213.31055210 0 8346.82777524 0 1814.66545918 0 2101.38331036 0 4303
0.06350000 0.06350600 32628.92328482 0 449.35590874 0 9137.87894958 0 415.61299886 0 2202.98296289 0 4470
0.06450000 0.06451750 31412.96057324 0 1190.58494310 0 8945.35336563 0 522.54176133 0 5987.80253868 0 4479
0.06550000 0.06550280 30555.74118578 0 1368.63899851 0 9437.52927615 0 -1098.49309589 0 5799.75017396 0 4636
0.06650000 0.06648880 30108.97287934 0 310.99281611 0 11130.89741694 0 -168.98582138 0 6770.47196313 0 4653
0.06750000 0.06749660 29768.27744468 0 600.54296798 0 10840.18245650 0 193.34050705 0 6122.44200847 0 5220
0.06850000 0.06852730 29822.19966654 0 578.14365487 0 12285.07655603 0 -37.23179944 0 5214.63316891 0 5029
0.06950000 0.06949320 29147.78436184 0 144.91569446 0 11543.12006994 0 7.06013505 0 4146.04310067 0 5040
0.07050000 0.07048030 29232.04475371 0 -368.55118945 0 10990.71071241 0 883.72210415 0 1659.75256264 0 5475
0.07150000 0.07148790 28918.03362185 0 -251.10925456 0 8780.97363138 0 1560.62203854 0 1944.38881675 0 5509
0.07250000 0.07249820 29531.32969356 0 477.82396308 0 7806.71977058 0 995.69209611 0 414.09055420 0 5916
0.07350000 0.07351270 27695.20606888 0 846.80918767 0 7697.50235857 0 1493.31337597 0 745.89159034 0 5721
0.07450000 0.07449140 27808.25450528 0 1017.17683518 0 7837.62262915 0 455.53315876 0 380.39968424 0 6028
0.07550000 0.07549160 26399.96551159 0 647.99230876 0 7432.65234891 0 -161.30052073 0 1309.90031535 0 6183
0.07650000 0.07648840 26090.16186317 0 1087.55917513 0 8567.13382215 0 -511.24799001 0 317.78015123 0 6330
0.07750000 0.07749960 24952.25904156 0 706.56933598 0 8481.76619780 0 -795.92299726 0 514.98268518 0 6583
0.07850000 0.07848650 25006.84560291 0 333.66561564 0 9321.85669877 0 -497.96120023 0 108.52948847 0 6549
0.07950000 0.07947320 24263.00682160 0 116.25941060 0 8961.53003219 0 27.46434810 0 208.07444969 0 6828
0.08050000 0.08048110 24618.20700178 0 55.51564013 0 7939.31086029 0 514.64387204 0 -2879.46879234 0 7147
0.08150000 0.08149960 24490.21092687 0 541.32263869 0 7903.46974485 0 359.25708000 0 -1632.81359636 0 7386
0.08250000 0.08250610 23719.90928924 0 909.16962828 0 7696.49477701 0 -253.74336064 0 -1474.65650865 0 7227
0.08350000 0.08350160 23287.09211208 0 213.54749985 0 7768.83027505 0 189.93465994 0 -921.13216801 0 7798
0.08450000 0.08449610 23489.16204002 0 437.04016185 0 7433.21703748 0 162.39335919 0 -462.66373594 0 7371
0.08550000 0.08548940 22869.55474317 0 694.25248185 0 9325.00123902 0 329.83791295 0 -1477.22528800 0 8256
0.08650000 0.08650700 22407.50662849 0 602.30236039 0 8536.93959237 0 194.74337061 0 -692.50194730 0 8037
0.08750000 0.08749060 21982.32935545 0 338.09011664 0 9402.05354743 0 600.51417993 0 408.12810728 0 8155
0.08850000 0.08849210 21962.62061727 0 -42.71415035 0 8649.25725533 0 669.84907795 0 -67.67737099 0 8718
0.08950000 0.08949900 21099.20072792 0 468.85537998 0 8707.29838203 0 550.81383552 0 -290.18791778 0 8571
0.09050000 0.09049190 21068.08749518 0 1011.85769034 0 7368.89790260 0 1176.51201825 0 103.97012656 0 8932
0.09150000 0.09150830 20117.63913274 0 528.49977931 0 7355.25679843 0 914.89180574 0 449.63825303 0 9285
0.09250000 0.09250820 19671.31371930 0 427.65968826 0 6811.59457751 0 643.98080547 0 144.69203350 0 9204
0.09350000 0.09350330 19256.87660134 0 303.05174475 0 6740.24451638 0 135.02700116 0 86.70682204 0 9349
0.09450000 0.09448040 18693.18454482 0 876.17299308 0 6518.65407978 0 66.07542703 0 -856.56501306 0 9564
0.09550000 0.09549270 18655.76008694 0 355.89884388 0 6768.94398231 0 -504.24695903 0 -426.89569785 0 10155
0.09650000 0.09649430 17913.69287759 0 423.25179575 0 6694.87012927 0 -235.78958594 0 -691.99040589 0 9913
0.09750000 0.09749140 17699.33266910 0 465.04871471 0 6853.22651883 0 428.90643203 0 -221.56275578 0 10476
0.09850000 0.09850240 17516.41786310 0 177.66430958 0 6993.44644033 0 481.79671323 0 -117.11530130 0 10575
0.09950000 0.09950330 17419.42429769 0 101.12210317 0 6257.96726425 0 1424.18885212 0 -183.40973892 0 10882
0.10050000 0.10051200 17003.21560775 0 174.85415354 0 6201.39875675 0 645.67708564 0 417.37239127 0 10875
0.10150000 0.10150300 16953.94376231 0 237.15701806 0 5380.92841537 0 1488.15367260 0 504.97994693 0 11118
0.10250000 0.10250800 16995.79715013 0 -114.58306062 0 4986.06716768 0 964.82245451 0 314.66993518 0 11575
0.10350000 0.10349800 16725.07880831 0 -72.09655727 0 4268.17084342 0 249.27899927 0 1370.52129373 0 11364
0.10450000 0.10450100 16767.70725886 0 151.00215141 0 4205.22467682 0 209.01116837 0 -318.59507433 0 12093
0.10550000 0.10551000 16611.58747892 0 235.77519192 0 4318.77136784 0 -506.75151890 0 856.26273860 0 12067
0.10650000 0.10649700 16269.23119553 0 435.23648013 0 4990.55145923 0 -596.85920551 0 -254.86055821 0 12054
0.10750000 0.10749900 16059.41064021 0 732.99454639 0 4923.81855755 0 -553.69706890 0 16.36356740 0 12807
0.10850000 0.10850100 15752.26434974 0 264.99616435 0 6010.34579201 0 -439.46500098 0 -377.46108923 0 12736
0.10950000 0.10950300 15562.26325586 0 227.04134210 0 6267.47839127 0 -164.33655219 0 799.10629065 0 12933
0.11050000 0.11050200 15621.61091688 0 34.78902313 0 6667.97545229 0 412.88034909 0 592.09146244 0 13428
0.11150000 0.11150900 15566.91363228 0 -38.73597476 0 6012.57132930 0 1321.44875013 0 812.98877151 0 13453
0.11250000 0.11250000 15542.55451768 0 -90.83436328 0 6156.85479401 0 1147.73504605 0 1828.39514195 0 13668
0.11350000 0.11349100 15653.38848911 0 -7.56586349 0 5299.49146632 0 472.22801012 0 892.78148031 0 13791
0.11450000 0.11448600 15546.54055461 0 30.80154680 0 4987.22976179 0 332.06787917 0 895.83965643 0 14205
0.11550000 0.11549300 15410.35095934 0 455.13123337 0 4997.25021575 0 -291.15785343 0 504.87918878 0 14776
0.11650000 0.11649800 14982.07343536 0 244.54558041 0 4553.01747170 0 -613.52526883 0 671.00392143 0 14553
0.11750000 0.11747300 14918.29684440 0 235.24814926 0 5162.22785555 0 -102.94925821 0 19.25488358 0 14568
0.11850000 0.11849100 14765.72020840 0 267.91040024 0 4662.61134276 0 15.40437190 0 -178.21460412 0 16015
0.11950000 0.11950300 14457.68813195 0 251.14357877 0 5169.19234786 0 155.33143042 0 -970.25564430 0 15270
0.12050000 0.12050700 14065.17421713 0 378.44320444 0 4826.92464306 0 289.33313430 0 -609.34214451 0 15999
0.12150000 0.12150000 13967.84848197 0 462.75342177 0 4987.18547249 0 239.14560760 0 -583.43622613 0 15670
0.12250000 0.12250700 13881.48434839 0 -220.35587238 0 4556.68241122 0 498.18486119 0 -788.27866421 0 16887
0.12350000 0.12352200 13796.67034027 0 32.07552849 0 4617.86807816 0 -269.78051590 0 -620.97915790 0 16407
0.12450000 0.12449800 13910.49383941 0 479.38516088 0 4542.27731663 0 312.38017841 0 -567.90286165 0 16306
0.12550000 0.12549900 13441.02726710 0 229.50936331 0 4630.29122661 0 -277.16132763 0 -595.75972366 0 17523
0.12650000 0.12650100 13112.28994323 0 317.76575720 0 4777.42027880 0 426.60006678 0 418.82397306 0 17154
0.12750000 0.12750600 13090.69890984 0 181.12219662 0 4744.92300546 0 332.25278700 0 -463.47090842 0 18007
0.12850000 0.12850300 12854.63694470 0 149.90488402 0 5250.52964598 0 31.77613283 0 65.58038339 0 17496
0.12950000 0.12949900 12607.39193150 0 267.88271943 0 5096.23679963 0 289.64980279 0 615.53378855 0 18405
0.13050000 0.13049000 12713.02191027 0 -24.84109290 0 5314.88199782 0 171.37744354 0 807.46589589 0 18100
0.13150000 0.13148800 12560.00238128 0 -77.21330002 0 4787.48502206 0 668.10740125 0 685.21082140 0 19059
0.13250000 0.13249300 12691.98449312 0 96.64423356 0 4830.16883424 0 831.26696532 0 881.24965401 0 18957
0.13350000 0.13349100 12467.65919229 0 234.14313124 0 3937.78374315 0 180.84095957 0 770.95711926 0 19468
0.13450000 0.13450700 12446.95394488 0 279.44997717 0 3997.59644182 0 264.21224375 0 808.06490866 0 19953
0.13550000 0.13551000 12035.06346163 0 184.63655251 0 3859.93422735 0 -14.84045840 0 1144.85624160 0 19956
0.13650000 0.13649900 12014.02604447 0 198.18022023 0 3794.06496701 0 30.65406343 0 745.35236812 0 19723
0.13750000 0.13749600 11773.64587266 0 130.48624076 0 3874.29503264 0 193.55198846 0 1110.14450329 0 20946
0.13850000 0.13851100 11749.72965105 0 -16.49089914 0 3656.51347578 0 289.39403209 0 422.84433420 0 20955
0.13950000 0.13949800 11693.37151772 0 146.28976997 0 3651.45342334 0 427.89885048 0 710.95397661 0 20506
0.14050000 0.14048300 11686.72812283 0 213.75787402 0 3808.97938854 0 -17.06012736 0 384.29271364 0 21447
0.14150000 0.14148400 11487.64772259 0 101.98696246 0 3525.53894551 0 -55.29065049 0 798.93577685 0 21771
0.14250000 0.14249400 11318.35187612 0 132.72395760 0 3444.75526363 0 365.44429510 0 1069.15807851 0 22470
0.14350000 0.14350900 11198.54932158 0 102.73434438 0 3097.19498757 0 133.90205296 0 823.56727064 0 22519
0.14450000 0.14449900 11193.23460567 0 197.11506258 0 3235.35545666 0 265.47116708 0 721.28445566 0 22218
0.14550000 0.14550500 10763.19658203 0 294.88147627 0 3104.64666217 0 129.09777122 0 856.54951181 0 23559
0.14650000 0.14650700 10656.58116636 0 264.99727158 0 2717.24816142 0 255.90800014 0 633.33919409 0 23044
0.14750000 0.14750500 10469.07134555 0 -49.38434026 0 2921.11180598 0 115.21529037 0 853.03404868 0 23649
0.14850000 0.14849900 10621.24937786 0 -140.21327811 0 2409.09428939 0 310.50231212 0 536.85606285 0 23640
0.14950000 0.14949500 10717.25750636 0 26.29876446 0 2777.00549847 0 -25.80958915 0 519.49797924 0 24457
0.15050000 0.15050000 10391.18861278 0 301.22038223 0 2766.23212642 0 -281.84159933 0 407.29214676 0 24591
0.15150000 0.15149900 10208.31809607 0 466.17698461 0 3004.88501556 0 -187.04146146 0 372.65127133 0 25020
0.15250000 0.15250500 9974.39308963 0 228.85055998 0 3026.19924083 0 45.52187047 0 415.07820557 0 25297
0.15350000 0.15350100 9776.06560748 0 108.44467446 0 3140.99710455 0 79.57248026 0 420.17258222 0 25452
0.15450000 0.15450400 9882.27134714 0 -1.83892492 0 2838.34617796 0 308.25573742 0 601.99344253 0 26061
0.15550000 0.15549900 9797.73414715 0 152.79365357 0 2863.98968224 0 88.49799202 0 677.96841374 0 26128
0.15650000 0.15649500 9812.96966610 0 59.37113436 0 2985.95134012 0 179.08045992 0 826.35306756 0 26331
0.15750000 0.15749700 9659.58475039 0 92.21375351 0 2930.33505255 0 202.49621245 0 917.65102909 0 27345
0.15850000 0.15849900 9580.61692978 0 166.46022409 0 2860.40224900 0 -14.52943680 0 500.82118173 0 26980
0.15950000 0.15949700 9400.51449428 0 221.36234670 0 2827.32921477 0 404.39230489 0 632.00830065 0 27777
0.16050000 0.16050000 9297.40900557 0 183.41416785 0 2704.63678345 0 87.86985904 0 616.58898111 0 28224
0.16150000 0.16150500 9015.43010941 0 39.91407012 0 2402.99343842 0 276.75054438 0 252.18769900 0 28075
0.16250000 0.16249700 8899.99005085 0 168.01145680 0 2389.92809513 0 422.06594976 0 528.22740012 0 28590
0.16350000 0.16349900 8852.84409177 0 133.01183805 0 1853.44074069 0 132.59884033 0 248.79956760 0 29163
0.16450000 0.16449100 8712.54666400 0 115.39576926 0 1957.34343679 0 220.40348338 0 762.11365343 0 28996
0.16550000 0.16550500 8662.22294770 0 6.89419412 0 1728.44526581 0 274.80402967 0 417.54511954 0 30777
0.16650000 0.16650700 8652.55680813 0 29.16417140 0 1731.80018023 0 -73.87211528 0 510.59915178 0 29211
0.16750000 0.16749900 8567.36634098 0 102.63081815 0 1685.55107947 0 -228.28365695 0 394.80920776 0 30922
0.16850000 0.16850800 8627.12367802 0 60.29213033 0 2048.86727374 0 -139.23337736 0 680.13194601 0 30867
0.16950000 0.16949900 8578.30579790 0 99.63475777 0 2179.07781361 0 -268.69985700 0 164.81266216 0 30852
0.17050000 0.17049200 8428.01006081 0 216.82269353 0 2392.64081471 0 -57.29164103 0 184.70520093 0 31257
0.17150000 0.17149500 8299.75932243 0 255.45071312 0 2182.91991032 0 -109.83303327 0 333.06217394 0 32608
0.17250000 0.17250900 8173.41302393 0 93.00387461 0 2238.95694623 0 139.59765685 0 83.79358266 0 32361
0.17350000 0.17350400 8059.19092110 0 -7.30515453 0 2206.55932381 0 173.56090600 0 213.13118043 0 32508
0.17450000 0.17449800 8109.89109644 0 63.97511774 0 2015.26276792 0 87.67055719 0 -173.23316518 0 32791
0.17550000 0.17549800 8048.16288558 0 103.72343516 0 2074.42219942 0 -54.35083156 0 119.95756709 0 33633
0.17650000 0.17650100 8049.81266198 0 49.11982242 0 1983.55162964 0 61.37799323 0 -15.13177127 0 33984
0.17750000 0.17750300 8036.27120872 0 5.64913334 0 1983.87272706 0 -72.26219925 0 -35.42911423 0 34069
0.17850000 0.17849800 8062.12508718 0 120.70605624 0 2167.92798252 0 60.78673108 0 77.41581284 0 34536
