### header ###
fiducial parameters:
Omega_m = 0.31
Omega_nu = 0
Omega_de = 0.69
Omega_k = 0
H_0 = 100
w_de = -1
zeff = 0
beta = 0
fgrowth = 0
b_1 = 2
gamma = 0.55
Lx = 3500 Ly = 3500 Lz = 3500
nx = 700 ny = 700 nz = 700
xoffset = -685.467585 yoffset = -31.7331281 zoffset = 572.489161
bins = 400 dk = 0.001
kx_ny = 0.628318531 ky_ny = 0.628318531 kz_ny = 0.628318531
############################
A(data) = 8.03146188 (not used)
A(ran) = 8.02726978 (used)
Ngal = 477516
weighted Ngal = 0
Nran = 23820508
weighted Nran = 0
SN(data) = 3491.93207
SN(ran) = 69.920431
SN(data+ran) = 3561.8525
############################
13 columns: k_central k_mean P_0(k) sigma^{lin}_{P_0(k)} P^img_1(k) sigma^{lin}_{P_1(k)} P_2(k) sigma^{lin}_{P_2(k)} P^img_3(k) sigma^{lin}_{P_3(k)} P_4(k) sigma^{lin}_{P_4(k)} N_modes
### header ###
0.00050000 0 0 0 0 0 0 0 0 0 0 0 0
0.00150000 0.00179520 15145.39022643 0 -621.90591148 0 22767.80007809 0 11331.30649615 0 -35318.94459951 0 3
0.00250000 0.00253879 37144.77096211 0 -4714.23052106 0 16240.11098125 0 -22591.86083672 0 31783.99417791 0 6
0.00350000 0.00331552 40073.06870689 0 -6818.73622702 0 -2409.00571079 0 10897.62567766 0 14789.74715326 0 7
0.00450000 0.00420575 43587.86749732 0 -5698.22802769 0 7823.26182386 0 -10383.52656400 0 21118.90946609 0 24
0.00550000 0.00557378 40850.12446267 0 4730.27431972 0 14228.26956171 0 -5553.55703161 0 -14082.11487410 0 45
0.00650000 0.00659388 40768.52142875 0 4671.10381589 0 10478.97000394 0 11002.15949627 0 2016.35892807 0 40
0.00750000 0.00754703 65708.15802002 0 -18854.50831743 0 19650.49774864 0 -3205.72591544 0 -24903.98370535 0 57
0.00850000 0.00846663 55341.47246206 0 -15735.65586252 0 10477.17628732 0 -5139.60709594 0 -5207.61331498 0 75
0.00950000 0.00948925 68733.11716047 0 8370.58898430 0 17670.32317808 0 -13828.22646601 0 -23898.72733506 0 112
0.01050000 0.01054430 80514.29221401 0 -2245.44532857 0 32618.73674599 0 -13491.51706827 0 -16295.91549834 0 105
0.01150000 0.01145670 71757.07979169 0 1897.42001487 0 31228.71708825 0 -2054.77989519 0 -6469.65904246 0 144
0.01250000 0.01249090 74192.43763555 0 8153.63785180 0 54743.67764510 0 -1268.19086775 0 5029.03886030 0 169
0.01350000 0.01339930 71276.31944806 0 -45.47481309 0 49025.48621576 0 4270.10850026 0 11793.68678058 0 180
0.01450000 0.01448870 68999.18512586 0 978.17346378 0 66428.41274947 0 25464.02189467 0 17808.61651506 0 267
0.01550000 0.01550050 75629.84684351 0 3208.01788668 0 63290.07300287 0 22501.62138945 0 19470.57247034 0 238
0.01650000 0.01653350 65650.47120771 0 4422.69620859 0 53700.44320069 0 30423.98052044 0 25729.86841357 0 315
0.01750000 0.01747870 66887.58205970 0 1859.61909794 0 28753.94176804 0 21549.06928530 0 31835.14831857 0 297
0.01850000 0.01844180 64963.43345271 0 2969.19891267 0 32194.88815193 0 19256.98732459 0 16787.96961328 0 388
0.01950000 0.01947590 61918.21195784 0 -935.71552703 0 22579.68127942 0 10579.62850887 0 13368.72498603 0 399
0.02050000 0.02045430 61466.35038199 0 114.53987855 0 13831.54816345 0 8224.01354835 0 13945.37166259 0 462
0.02150000 0.02154770 57996.28378383 0 -681.03434048 0 9634.87132139 0 -6291.93715679 0 4385.39354627 0 571
0.02250000 0.02255340 60623.85718654 0 -1928.97614061 0 5917.70365025 0 -9566.72116213 0 -6181.02567909 0 510
0.02350000 0.02348930 64300.97625881 0 1013.40781582 0 15578.98246633 0 -7515.38475996 0 -8314.96162441 0 555
0.02450000 0.02439640 61847.12763251 0 2502.92116990 0 9118.65739370 0 -2021.31932959 0 -5352.01857526 0 592
0.02550000 0.02547300 62280.60914916 0 -189.75750274 0 11807.85935635 0 -413.73513257 0 -11338.39278404 0 837
0.02650000 0.02652900 61311.00566479 0 -601.56826526 0 11731.12814536 0 -1476.10698320 0 -5531.74455172 0 723
0.02750000 0.02749970 62109.09883771 0 832.27786857 0 19753.91326245 0 3848.20863537 0 -8241.61854481 0 826
0.02850000 0.02848090 60415.80820320 0 2364.22922923 0 12498.88314828 0 2212.98127220 0 6441.44675882 0 831
0.02950000 0.02946900 62217.60762094 0 488.82653226 0 21053.58274966 0 13.19655034 0 4009.16702126 0 996
0.03050000 0.03053250 57087.79953246 0 3752.82055706 0 23205.04618517 0 237.26331238 0 8556.55975195 0 1041
0.03150000 0.03150510 59373.57026802 0 2932.02911825 0 27009.49699286 0 2994.14486048 0 8036.01654525 0 1036
0.03250000 0.03246190 54140.34666573 0 -588.71661784 0 24049.42167584 0 3127.87639964 0 11178.17624391 0 1059
0.03350000 0.03345080 56817.74553013 0 -222.60133985 0 23645.17109672 0 3420.38507670 0 6596.22678746 0 1302
0.03450000 0.03451200 53716.05517868 0 2135.56357707 0 21180.25014559 0 4284.98970482 0 6025.00555007 0 1339
0.03550000 0.03553350 53381.00662967 0 3836.40553711 0 18084.76029604 0 3326.24817109 0 1086.52280552 0 1365
0.03650000 0.03647120 48986.40090915 0 972.17447819 0 12772.03740156 0 -253.05687650 0 -1684.00095399 0 1308
0.03750000 0.03744890 48623.56082484 0 2614.36411920 0 15567.79941826 0 2013.57977454 0 1479.16294485 0 1579
0.03850000 0.03847530 45827.02374540 0 1121.01752626 0 13991.87542683 0 -2757.35212191 0 -4205.75614841 0 1662
0.03950000 0.03950240 47799.66913509 0 3.72511760 0 19366.27117055 0 -2517.92417003 0 -2497.34071820 0 1683
0.04050000 0.04050350 46813.01427050 0 935.41768149 0 18719.53667789 0 -3511.68746716 0 -737.48326687 0 1822
0.04150000 0.04152450 46249.87583022 0 232.15675617 0 18880.52828076 0 -457.36673575 0 -2235.96741853 0 1887
0.04250000 0.04250150 46082.68372546 0 821.62297040 0 20039.80068927 0 1314.10779878 0 -1472.71885180 0 1920
0.04350000 0.04349210 45873.52750964 0 163.24039203 0 18322.26166340 0 4505.41754731 0 -7973.49112700 0 2005
0.04450000 0.04448520 43241.74662349 0 1250.64123292 0 13073.75825286 0 3561.56829047 0 -8590.23069173 0 2151
0.04550000 0.04548030 43143.20293261 0 969.38757403 0 11046.34914462 0 2367.93845804 0 -8605.37763208 0 2274
0.04650000 0.04648670 41956.02826555 0 403.72907263 0 10032.01346799 0 2795.67343811 0 -10353.93023976 0 2311
0.04750000 0.04749250 39943.07961352 0 1314.98251244 0 8442.37086610 0 -1635.89170266 0 -8236.41455215 0 2568
0.04850000 0.04851840 39755.84660084 0 1845.83405354 0 9966.56495598 0 -1874.73282132 0 -5470.52566780 0 2493
0.04950000 0.04949480 39553.00161016 0 1318.31528221 0 11291.99974305 0 -1005.96499907 0 591.05620007 0 2644
0.05050000 0.05050630 40367.37110057 0 -720.30123322 0 13581.53506905 0 -680.81289398 0 2028.71564257 0 2829
0.05150000 0.05149060 39536.72529268 0 452.50266346 0 15203.18776199 0 1272.15476004 0 3881.87957514 0 2784
0.05250000 0.05249300 40549.28939734 0 1058.17986845 0 16327.13945433 0 2130.53674160 0 2059.29740372 0 3055
0.05350000 0.05348950 38432.03944552 0 1268.89949654 0 16381.94746218 0 2221.85020438 0 4880.53683984 0 3009
0.05450000 0.05448610 37668.82409577 0 536.49510507 0 15909.38063892 0 3129.68118859 0 3229.25460568 0 3336
0.05550000 0.05550870 36807.39722488 0 588.25600913 0 14453.03775552 0 2889.81034372 0 2341.33166150 0 3349
0.05650000 0.05647670 36947.46213384 0 1060.49176988 0 13440.36292761 0 534.14334327 0 2031.81589352 0 3324
0.05750000 0.05747970 34632.46046075 0 1185.09306999 0 11899.64892910 0 689.84680380 0 3640.51396642 0 3639
0.05850000 0.05849280 34889.89201279 0 -199.68716364 0 11209.06803016 0 321.48827281 0 1888.87218011 0 3846
0.05950000 0.05951020 34572.89135323 0 -290.28978317 0 11388.10752247 0 1609.25168914 0 2590.52540387 0 3787
0.06050000 0.06049470 34163.76895118 0 912.52011377 0 11394.41874762 0 1184.76090024 0 337.69040571 0 3930
0.06150000 0.06148310 34568.79459305 0 406.94004683 0 11591.39540614 0 1213.12819643 0 2752.70174549 0 4083
0.06250000 0.06249100 33783.87748665 0 1123.34271448 0 10834.18125645 0 -832.93445743 0 3359.32120533 0 4303
0.06350000 0.06350600 33125.84922268 0 698.36695775 0 11690.04982028 0 -52.20889032 0 4223.54937440 0 4470
0.06450000 0.06451750 32874.39672605 0 686.51071234 0 10478.64890652 0 2166.25606147 0 5285.50712008 0 4479
0.06550000 0.06550280 32307.16152559 0 504.46619106 0 11465.94596595 0 766.93122196 0 4608.44552974 0 4636
0.06650000 0.06648880 31968.68055588 0 606.83647741 0 12175.79271007 0 2030.67544406 0 5252.25692865 0 4653
0.06750000 0.06749660 31001.40225973 0 1057.37048151 0 11793.35461084 0 2099.13562842 0 5252.06869913 0 5220
0.06850000 0.06852730 30455.53664617 0 203.44843238 0 10664.29857675 0 -79.50084232 0 6292.16967562 0 5029
0.06950000 0.06949320 29785.21810165 0 295.47495288 0 11834.76510566 0 2100.09892068 0 7849.15999161 0 5040
0.07050000 0.07048030 30561.60951793 0 -742.38277060 0 10548.95816912 0 1746.94712059 0 5998.38768120 0 5475
0.07150000 0.07148790 30755.59664875 0 -293.40221367 0 8659.13376907 0 2099.73353396 0 6279.63580392 0 5509
0.07250000 0.07249820 30616.19607929 0 240.25062561 0 7756.79465798 0 1919.06640989 0 6291.68249332 0 5916
0.07350000 0.07351270 29570.63644666 0 550.79833427 0 5606.23915310 0 963.91120218 0 5061.49184435 0 5721
0.07450000 0.07449140 28843.84904557 0 1297.93113222 0 5795.80842632 0 1189.07910692 0 4252.41492520 0 6028
0.07550000 0.07549160 27988.29050683 0 1219.50585553 0 5288.43021383 0 -1165.35111484 0 2267.27995311 0 6183
0.07650000 0.07648840 26196.34545818 0 1831.77220102 0 5756.50167321 0 -1938.45405065 0 2451.27984695 0 6330
0.07750000 0.07749960 25584.82095845 0 1149.53983500 0 6763.80642359 0 -1976.69786057 0 211.00418684 0 6583
0.07850000 0.07848650 24883.38918118 0 -154.65048244 0 8381.01911428 0 -1457.87086422 0 1764.05386243 0 6549
0.07950000 0.07947320 25319.19588605 0 281.32562899 0 8939.27465931 0 -332.91380479 0 -592.43249005 0 6828
0.08050000 0.08048110 25290.96145776 0 -187.53971608 0 8880.93457984 0 502.88063415 0 115.18318062 0 7147
0.08150000 0.08149960 25392.16250660 0 138.69747684 0 8282.37577247 0 584.07842097 0 -99.57087046 0 7386
0.08250000 0.08250610 24801.56470078 0 1180.02194522 0 8292.59552828 0 640.81744227 0 411.51180974 0 7227
0.08350000 0.08350160 23926.96176335 0 878.03092919 0 8069.15601344 0 -241.76199795 0 -624.00300980 0 7798
0.08450000 0.08449610 23611.06833627 0 235.79180041 0 8101.95223955 0 524.39637574 0 -255.80170582 0 7371
0.08550000 0.08548940 22678.77858654 0 262.84481164 0 7688.89916219 0 1128.19239275 0 -150.67773229 0 8256
0.08650000 0.08650700 22224.48109924 0 629.30776063 0 7463.93166652 0 1226.79144526 0 -138.36198540 0 8037
0.08750000 0.08749060 21999.71290542 0 422.88973073 0 7245.44148088 0 1756.71291108 0 307.76966236 0 8155
0.08850000 0.08849210 21413.43330627 0 552.99508351 0 6853.42582067 0 671.05706859 0 -235.01230874 0 8718
0.08950000 0.08949900 21138.28603453 0 828.31508352 0 6454.29065561 0 -268.16174202 0 1236.96691176 0 8571
0.09050000 0.09049190 20191.15936954 0 493.11816536 0 5628.91527433 0 221.29480552 0 1108.48365457 0 8932
0.09150000 0.09150830 20305.09359192 0 -180.80884982 0 5805.31955334 0 435.35273954 0 1051.45121666 0 9285
0.09250000 0.09250820 20129.70796680 0 -247.77094863 0 5320.93855950 0 -261.23268114 0 -388.72828697 0 9204
0.09350000 0.09350330 20194.37034374 0 822.51650701 0 5787.54847201 0 -915.88720774 0 -1229.91384086 0 9349
0.09450000 0.09448040 19636.10372638 0 831.63235204 0 5994.01411290 0 -850.55716962 0 595.31461620 0 9564
0.09550000 0.09549270 19012.28894610 0 326.97350252 0 6350.23294696 0 -313.68892720 0 319.25719936 0 10155
0.09650000 0.09649430 18776.66987396 0 139.85121309 0 7265.49346112 0 649.62436943 0 319.17415692 0 9913
0.09750000 0.09749140 18879.53177152 0 364.27837930 0 6866.73475510 0 684.52655173 0 -323.05722123 0 10476
0.09850000 0.09850240 18394.56394447 0 383.38035408 0 6698.56828576 0 440.64420358 0 401.18022346 0 10575
0.09950000 0.09950330 18121.07752144 0 408.25433178 0 6673.73306119 0 32.87993289 0 275.09301735 0 10882
0.10050000 0.10051200 17767.75963648 0 625.53099063 0 6419.76714683 0 163.58252687 0 587.20635273 0 10875
0.10150000 0.10150300 17209.82518887 0 125.77828824 0 6227.76196215 0 755.41268245 0 529.80077748 0 11118
0.10250000 0.10250800 17246.25313752 0 91.02336787 0 5448.91248975 0 1022.38747124 0 190.69865035 0 11575
0.10350000 0.10349800 16816.31476482 0 89.67996270 0 5436.32325643 0 1195.26853650 0 -494.43577201 0 11364
0.10450000 0.10450100 16611.58747892 0 470.75981985 0 4788.70297779 0 64.25657624 0 -359.96681602 0 12093
0.10550000 0.10551000 16178.21668552 0 576.60128002 0 5347.26854792 0 -202.54935960 0 526.21223701 0 12067
0.10650000 0.10649700 15859.44445399 0 345.93153708 0 5188.67963954 0 -190.81823146 0 33.28794806 0 12054
0.10750000 0.10749900 15618.06777294 0 -119.39177129 0 5083.27110727 0 -14.78587184 0 529.03678707 0 12807
0.10850000 0.10850100 15880.59259439 0 -206.38813462 0 4960.86655640 0 702.83464082 0 -964.69955171 0 12736
0.10950000 0.10950300 15972.82506013 0 200.81654077 0 4766.44760491 0 565.52231181 0 291.99824288 0 12933
0.11050000 0.11050200 15394.84970460 0 377.20531853 0 4405.17979072 0 580.09238404 0 66.75980743 0 13428
0.11150000 0.11150900 15504.46572030 0 388.04291006 0 4386.94367175 0 887.19106351 0 260.60820202 0 13453
0.11250000 0.11250000 14585.13059061 0 399.98330514 0 4128.23880236 0 197.14385063 0 518.72955989 0 13668
0.11350000 0.11349100 14583.35901864 0 583.92008673 0 3980.82186972 0 143.02786308 0 669.56784090 0 13791
0.11450000 0.11448600 14408.74845625 0 189.46740783 0 4594.08472445 0 -653.57386770 0 1115.45921920 0 14205
0.11550000 0.11549300 13940.16766992 0 49.24383246 0 4542.88629449 0 -207.55405042 0 1253.64183294 0 14776
0.11650000 0.11649800 14232.58776838 0 85.49883140 0 4879.11958226 0 217.66529745 0 995.64559234 0 14553
0.11750000 0.11747300 13989.55023862 0 93.53700705 0 4810.50438536 0 140.19334792 0 965.05608057 0 14568
0.11850000 0.11849100 14170.69347265 0 37.89392446 0 4563.13757659 0 506.91206761 0 1170.75440935 0 16015
0.11950000 0.11950300 14153.97426217 0 -100.43417963 0 4450.90849222 0 198.05178126 0 1152.83938779 0 15270
0.12050000 0.12050700 14273.33392372 0 -45.73456983 0 4208.35814475 0 384.47651424 0 1009.64765431 0 15999
0.12150000 0.12150000 14453.48064852 0 -43.27717806 0 4215.94268725 0 -163.41754923 0 1124.07348791 0 15670
0.12250000 0.12250700 14452.92703228 0 180.66933853 0 4303.72407841 0 -209.80394683 0 63.33159422 0 16887
0.12350000 0.12352200 14045.02258596 0 406.86918395 0 4425.82967651 0 -793.28335503 0 -35.82661069 0 16407
0.12450000 0.12449800 13666.12763066 0 474.96287435 0 4314.19849769 0 7.83068028 0 -601.90264947 0 16306
0.12550000 0.12549900 13234.97130222 0 451.47625895 0 4372.90396388 0 255.81609984 0 -247.45760184 0 17523
0.12650000 0.12650100 12941.99758752 0 141.78776270 0 4159.83921739 0 838.97219616 0 -120.06386140 0 17154
0.12750000 0.12750600 12991.60160271 0 30.21161333 0 4280.53863024 0 641.67776191 0 -262.62890130 0 18007
0.12850000 0.12850300 12898.92624398 0 -38.11359938 0 3823.84952077 0 377.84419167 0 486.89219711 0 17496
0.12950000 0.12949900 12893.16863507 0 134.33940979 0 4264.09622788 0 506.90099529 0 904.01878277 0 18405
0.13050000 0.13049000 12793.73915820 0 29.80260165 0 3792.74736035 0 -15.97437519 0 1649.10098616 0 18100
0.13150000 0.13148800 12792.74264897 0 -38.06632056 0 3789.14885479 0 697.69597487 0 1429.70286988 0 19059
0.13250000 0.13249300 12843.78606638 0 42.93017140 0 3916.55809648 0 -55.62592049 0 1406.80530216 0 18957
0.13350000 0.13349100 12773.91969678 0 185.86115164 0 3563.79382775 0 -61.74592658 0 655.44398336 0 19468
0.13450000 0.13450700 12540.95798259 0 285.23969582 0 3167.90285386 0 -179.19339763 0 922.23940049 0 19953
0.13550000 0.13551000 12405.65417331 0 128.32160125 0 3278.98041644 0 4.25514979 0 504.70867498 0 19956
0.13650000 0.13649900 12207.01666606 0 145.84687698 0 2703.99458861 0 328.96762822 0 -169.75645519 0 19723
0.13750000 0.13749600 11963.86841304 0 220.96817194 0 2883.77592669 0 181.55623175 0 475.05477465 0 20946
0.13850000 0.13851100 11860.67434573 0 340.79840729 0 2794.00151706 0 194.56621341 0 25.35639890 0 20955
0.13950000 0.13949800 11638.45278662 0 180.70809167 0 3064.52055703 0 119.16478863 0 541.02811485 0 20506
0.14050000 0.14048300 11499.71655665 0 229.20819607 0 3286.24386152 0 210.95103968 0 838.06537276 0 21447
0.14150000 0.14148400 11310.93341849 0 104.48687196 0 3067.67616960 0 40.62557772 0 1333.86082625 0 21771
0.14250000 0.14249400 11350.46161809 0 20.53993760 0 3470.09981514 0 101.07792459 0 1287.66708711 0 22470
0.14350000 0.14350900 11265.97977972 0 109.76704222 0 3318.12108468 0 191.84685044 0 1071.07359070 0 22519
0.14450000 0.14449900 11340.49652575 0 87.65206641 0 3117.85594568 0 -130.14964208 0 823.40229300 0 22218
0.14550000 0.14550500 11065.85858095 0 129.38786613 0 3110.18282458 0 -172.22226193 0 1042.12610470 0 23559
0.14650000 0.14650700 11113.51386697 0 238.56320331 0 3128.99470445 0 86.04004664 0 766.63780535 0 23044
0.14750000 0.14750500 10669.97867939 0 266.71348193 0 3190.25787767 0 222.96672657 0 398.54943908 0 23649
0.14850000 0.14849900 10615.86822800 0 334.92564621 0 3306.34013107 0 66.37592993 0 751.19634116 0 23640
0.14950000 0.14949500 10439.97327593 0 202.60029230 0 3316.42701898 0 -88.66086592 0 338.57619170 0 24457
0.15050000 0.15050000 10032.05775728 0 226.09687280 0 3324.02263381 0 147.96390548 0 871.29895570 0 24591
0.15150000 0.15149900 10100.71724349 0 232.30844702 0 3486.95189351 0 -237.88557703 0 836.05574580 0 25020
0.15250000 0.15250500 9956.25662158 0 46.58182413 0 3368.94305560 0 101.13251115 0 719.77751225 0 25297
0.15350000 0.15350100 9933.80194684 0 13.47446569 0 3431.83386056 0 136.05229844 0 488.69809329 0 25452
0.15450000 0.15450400 9825.13815107 0 193.61399348 0 3269.60215732 0 222.02890066 0 717.32499231 0 26061
0.15550000 0.15549900 9800.13684163 0 -29.46578153 0 3190.02535885 0 245.26860322 0 632.60952789 0 26128
0.15650000 0.15649500 9727.73490964 0 64.51301128 0 3095.73344069 0 519.18573968 0 807.83128261 0 26331
0.15750000 0.15749700 9794.50102830 0 156.96238386 0 2921.00108273 0 181.25727898 0 629.98206521 0 27345
0.15850000 0.15849900 9490.00102346 0 350.43797328 0 2897.28416297 0 13.71451369 0 973.83200522 0 26980
0.15950000 0.15949700 9246.39880513 0 302.87901648 0 2975.97517546 0 -125.39961473 0 1101.20138654 0 27777
0.16050000 0.16050000 9032.40398336 0 232.15564894 0 2846.26289021 0 111.74633100 0 1054.77069964 0 28224
0.16150000 0.16150500 8834.27580305 0 61.20803304 0 2931.91839500 0 244.39721126 0 1415.13169042 0 28075
0.16250000 0.16249700 8836.00308573 0 14.78288231 0 2769.85277663 0 295.92559650 0 1002.18601461 0 28590
0.16350000 0.16349900 8906.92132619 0 -117.38325156 0 2530.98951332 0 398.98568868 0 972.63397967 0 29163
0.16450000 0.16449100 8988.79009590 0 -195.10765009 0 2366.48798349 0 308.66873513 0 951.77261248 0 28996
0.16550000 0.16550500 9020.47908953 0 -43.07732260 0 2116.05414074 0 -87.81737622 0 752.68778331 0 30777
0.16650000 0.16650700 9119.81998780 0 21.39848567 0 2246.90687545 0 -142.53735909 0 550.32554600 0 29211
0.16750000 0.16749900 8942.23097004 0 256.15269852 0 2243.12014036 0 -155.95369507 0 472.30551639 0 30922
0.16850000 0.16850800 8749.11855287 0 360.58908067 0 2218.36242207 0 -158.74502816 0 258.96728349 0 30867
0.16950000 0.16949900 8593.19807478 0 133.17017229 0 2153.48967095 0 -59.55316338 0 -19.32131753 0 30852
0.17050000 0.17049200 8326.51005920 0 199.27195146 0 2061.17969894 0 167.35929687 0 40.95088262 0 31257
0.17150000 0.17149500 8345.85341065 0 75.65464885 0 1932.75180337 0 303.18350542 0 -79.81175320 0 32608
0.17250000 0.17250900 8264.27252139 0 -24.96576728 0 1809.88221486 0 337.58521863 0 -85.01596732 0 32361
0.17350000 0.17350400 8266.88559005 0 132.68077553 0 1843.33170813 0 48.29283048 0 86.54881996 0 32508
0.17450000 0.17449800 8190.38689787 0 158.61326749 0 1999.88330874 0 -35.63439513 0 145.91884709 0 32791
0.17550000 0.17549800 8100.94465799 0 191.09503958 0 2142.21804429 0 -229.53372242 0 598.75700199 0 33633
0.17650000 0.17650100 7966.07266937 0 89.24138791 0 2365.83471632 0 -181.53187263 0 686.63140068 0 33984
0.17750000 0.17750300 8044.27649957 0 4.71491701 0 2426.18995891 0 -79.10013489 0 511.82375090 0 34069
0.17850000 0.17849800 8086.87173315 0 -14.17789048 0 2420.91953230 0 -102.25159102 0 427.43381283 0 34536
