### header ###
fiducial parameters:
Omega_m = 0.31
Omega_nu = 0
Omega_de = 0.69
Omega_k = 0
H_0 = 100
w_de = -1
zeff = 0
beta = 0
fgrowth = 0
b_1 = 2
gamma = 0.55
Lx = 3500 Ly = 3500 Lz = 3500
nx = 700 ny = 700 nz = 700
xoffset = -685.467585 yoffset = -31.7331281 zoffset = 572.489161
bins = 400 dk = 0.001
kx_ny = 0.628318531 ky_ny = 0.628318531 kz_ny = 0.628318531
############################
A(data) = 8.00545102 (not used)
A(ran) = 8.00322062 (used)
Ngal = 475625
weighted Ngal = 0
Nran = 23820508
weighted Nran = 0
SN(data) = 3489.70604
SN(ran) = 69.7109541
SN(data+ran) = 3559.417
############################
13 columns: k_central k_mean P_0(k) sigma^{lin}_{P_0(k)} P^img_1(k) sigma^{lin}_{P_1(k)} P_2(k) sigma^{lin}_{P_2(k)} P^img_3(k) sigma^{lin}_{P_3(k)} P_4(k) sigma^{lin}_{P_4(k)} N_modes
### header ###
0.00050000 0 0 0 0 0 0 0 0 0 0 0 0
0.00150000 0.00179520 31471.09027853 0 -24229.45767740 0 22442.27372842 0 54900.79393428 0 -11966.30432450 0 3
0.00250000 0.00253879 62237.98069860 0 -27198.61230076 0 36684.27297290 0 -60963.33466548 0 -32342.48224176 0 6
0.00350000 0.00331552 65526.12900000 0 -8001.96914644 0 -9795.99579215 0 -10485.55803721 0 65771.38099473 0 7
0.00450000 0.00420575 69196.82612387 0 6894.73666457 0 -4538.62344944 0 -19358.29909668 0 39701.26003948 0 24
0.00550000 0.00557378 61806.38147717 0 -4898.72866951 0 2238.75764438 0 -13263.75934675 0 10578.83130148 0 45
0.00650000 0.00659388 76180.58427999 0 -14829.16462961 0 -7908.46336334 0 16068.48994656 0 2276.20424692 0 40
0.00750000 0.00754703 85053.94538965 0 -9903.08731780 0 960.06689100 0 -1547.92208197 0 2422.32571755 0 57
0.00850000 0.00846663 76346.55842902 0 2449.35326243 0 -18244.75538967 0 -2038.22676959 0 -12149.77274675 0 75
0.00950000 0.00948925 81230.45018328 0 2849.60673230 0 -8419.24077955 0 -10923.53491773 0 -24329.21932401 0 112
0.01050000 0.01054430 73628.08123955 0 64.83920197 0 -14940.77366378 0 -14635.39894529 0 -16231.14239815 0 105
0.01150000 0.01145670 76049.93084713 0 3879.00077069 0 -12958.16318176 0 -32722.70587603 0 -36708.18919451 0 144
0.01250000 0.01249090 75325.80080399 0 5698.44947419 0 4605.83246109 0 -22662.50226906 0 -24229.56840064 0 169
0.01350000 0.01339930 67609.94053087 0 -1847.45061297 0 2086.18100838 0 1345.87429868 0 -31416.72516368 0 180
0.01450000 0.01448870 75343.84869344 0 -6112.08938477 0 -1164.85286022 0 -7058.85066303 0 -41153.39543945 0 267
0.01550000 0.01550050 83361.54054112 0 22.05850695 0 -656.31537532 0 -6347.05518974 0 -26725.15969152 0 238
0.01650000 0.01653350 76272.26312949 0 2001.46665119 0 6201.36553978 0 -11758.14461791 0 -32422.42442695 0 315
0.01750000 0.01747870 76550.51065218 0 11750.28326729 0 8544.54627952 0 -2858.37601356 0 -16102.03909076 0 297
0.01850000 0.01844180 72835.85639877 0 -3834.10249355 0 11412.57736032 0 -12864.60203704 0 -19147.03913914 0 388
0.01950000 0.01947590 75173.55633773 0 -2698.38091993 0 15652.83487287 0 2008.46436048 0 -17066.66002897 0 399
0.02050000 0.02045430 83203.31701946 0 -3383.52530738 0 26617.75814078 0 -8542.77470755 0 -33214.09565149 0 462
0.02150000 0.02154770 82951.97524608 0 2326.15150417 0 27286.52655982 0 -7943.47405442 0 -20843.43002461 0 571
0.02250000 0.02255340 80501.66976371 0 6302.59980559 0 37558.43301733 0 -13836.08781663 0 -21583.83638523 0 510
0.02350000 0.02348930 75034.26649151 0 10982.42861344 0 33657.98515347 0 -4692.59519836 0 -25986.30345637 0 555
0.02450000 0.02439640 71591.32708916 0 5581.63644735 0 42235.93663697 0 1111.58390552 0 -14125.96128038 0 592
0.02550000 0.02547300 66925.00651758 0 -2674.49791529 0 34364.17803040 0 14150.87401122 0 -21225.42523085 0 837
0.02650000 0.02652900 70978.69535694 0 -4574.38705860 0 27890.41115543 0 11510.56743497 0 -18203.45561810 0 723
0.02750000 0.02749970 73107.46052657 0 -1076.73265592 0 30597.37312710 0 10514.05820129 0 -17454.19139762 0 826
0.02850000 0.02848090 70426.85068798 0 3750.90504486 0 21833.73875639 0 100.48909836 0 -11463.73150099 0 831
0.02950000 0.02946900 68953.89931735 0 5322.26723848 0 23915.22509904 0 1246.88771480 0 -4260.08804630 0 996
0.03050000 0.03053250 64485.88408329 0 2515.38860765 0 22676.23195184 0 3083.95248709 0 -7289.26574251 0 1041
0.03150000 0.03150510 60648.21630114 0 3911.59769496 0 29445.74062271 0 2972.78634591 0 8425.50771540 0 1036
0.03250000 0.03246190 62448.90848640 0 1862.09929870 0 25072.28304259 0 3625.36702607 0 -3470.91916717 0 1059
0.03350000 0.03345080 56044.78653454 0 1391.12689021 0 27595.33369902 0 -28.59450029 0 7721.82825620 0 1302
0.03450000 0.03451200 58854.83185027 0 2468.28693787 0 27919.53136971 0 1152.41863945 0 2287.56445218 0 1339
0.03550000 0.03553350 55072.08279922 0 1369.28119335 0 28250.15098879 0 2598.74106889 0 6597.34509227 0 1365
0.03650000 0.03647120 57072.29827771 0 1551.53165986 0 30684.73376991 0 -1680.64603957 0 3893.58302248 0 1308
0.03750000 0.03744890 52661.41623971 0 4122.70263995 0 26692.49633330 0 1744.33405193 0 9941.45292329 0 1579
0.03850000 0.03847530 52886.29515678 0 3440.38169532 0 27480.40296740 0 2331.56587101 0 3050.22618569 0 1662
0.03950000 0.03950240 48712.47159314 0 182.76975855 0 25744.26243583 0 3798.07314859 0 3431.60134174 0 1683
0.04050000 0.04050350 46911.66868463 0 536.75862640 0 23623.91223306 0 6584.75585895 0 -7922.30376937 0 1822
0.04150000 0.04152450 46998.80788096 0 34.15037144 0 20846.41955231 0 3505.63090548 0 -8934.43605336 0 1887
0.04250000 0.04250150 44602.42462046 0 2908.12396897 0 19533.46327531 0 1400.82624676 0 -12352.28556768 0 1920
0.04350000 0.04349210 42150.12611962 0 3767.45817047 0 14842.11924965 0 -2173.33127703 0 -8525.76761663 0 2005
0.04450000 0.04448520 38418.53120924 0 1902.00395735 0 16671.71020268 0 1090.93069803 0 -3469.09223358 0 2151
0.04550000 0.04548030 39304.20647149 0 730.68707390 0 15364.06864160 0 1115.27098968 0 -4081.55788092 0 2274
0.04650000 0.04648670 38424.17809490 0 -989.84480137 0 17031.45003604 0 4660.38580547 0 -2543.15799830 0 2311
0.04750000 0.04749250 41391.22897655 0 -1039.07789368 0 15729.23391412 0 3534.11999724 0 1461.49151444 0 2568
0.04850000 0.04851840 40877.14093522 0 -364.98811532 0 14400.99782888 0 2761.78105184 0 2618.52731334 0 2493
0.04950000 0.04949480 41375.06338232 0 779.18607107 0 15835.97112537 0 2195.66415619 0 5003.93789994 0 2644
0.05050000 0.05050630 39910.52697856 0 1758.65056792 0 14226.27654324 0 1398.35711832 0 5736.68221179 0 2829
0.05150000 0.05149060 38937.38035024 0 1038.49881109 0 15380.78785208 0 2857.95526521 0 3770.24839632 0 2784
0.05250000 0.05249300 38460.16315056 0 -315.63101298 0 12792.96409546 0 1490.57851174 0 5456.54132155 0 3055
0.05350000 0.05348950 37854.61770623 0 659.70018502 0 13466.82578393 0 429.92065699 0 2901.53593570 0 3009
0.05450000 0.05448610 38697.88596442 0 248.88593174 0 13019.83603100 0 -1876.38259772 0 74.67220147 0 3336
0.05550000 0.05550870 37751.20219242 0 1276.09650767 0 14564.75751294 0 -1311.11827108 0 2533.12647201 0 3349
0.05650000 0.05647670 37538.05993966 0 804.50294177 0 14354.93695763 0 -1009.94328538 0 70.64885080 0 3324
0.05750000 0.05747970 36354.42841655 0 567.67809345 0 15529.82134414 0 1445.60272832 0 1994.85647328 0 3639
0.05850000 0.05849280 36178.82134493 0 1220.18126734 0 17075.96078181 0 2199.39552965 0 2265.88484019 0 3846
0.05950000 0.05951020 34274.71364586 0 1154.62203209 0 16012.02108999 0 3344.81645982 0 3196.07084820 0 3787
0.06050000 0.06049470 34693.13680076 0 -387.09733352 0 15070.98420365 0 3305.55399601 0 6888.14863130 0 3930
0.06150000 0.06148310 34626.03851236 0 408.36616226 0 13157.24358200 0 1482.07496628 0 5526.67342695 0 4083
0.06250000 0.06249100 33948.19078696 0 791.73212232 0 13425.30456586 0 861.64831739 0 6496.14404342 0 4303
0.06350000 0.06350600 32944.26309566 0 883.49401425 0 12155.64107890 0 1323.45284092 0 5055.98889891 0 4470
0.06450000 0.06451750 32211.16446941 0 1227.34506150 0 12366.56886670 0 482.18535183 0 4420.60353919 0 4479
0.06550000 0.06550280 30887.91093034 0 1568.38373824 0 11096.79465650 0 -193.24639229 0 1759.80208970 0 4636
0.06650000 0.06648880 30105.76190515 0 995.72088415 0 11214.05057632 0 -2089.29233165 0 1461.82368418 0 4653
0.06750000 0.06749660 28825.80115611 0 591.55777639 0 10605.52667662 0 -167.17992520 0 920.56858668 0 5220
0.06850000 0.06852730 28985.35335675 0 -4.37372332 0 11006.05695461 0 -219.18109872 0 -747.35424445 0 5029
0.06950000 0.06949320 28359.54555800 0 712.43545367 0 11271.84811188 0 456.00041087 0 -194.42338042 0 5040
0.07050000 0.07048030 28900.31790214 0 844.66115665 0 11534.04076358 0 1275.88613350 0 -694.46174879 0 5475
0.07150000 0.07148790 27980.20770971 0 -312.12994387 0 10865.83703310 0 1400.53836631 0 488.71802347 0 5509
0.07250000 0.07249820 28371.61439205 0 -846.87008545 0 11272.29100487 0 2287.76375403 0 636.30546991 0 5916
0.07350000 0.07351270 28609.44792916 0 48.98396500 0 12584.91511212 0 1532.95229882 0 155.25613861 0 5721
0.07450000 0.07449140 28940.51044123 0 724.43785377 0 10778.27708844 0 869.62482019 0 1481.26668656 0 6028
0.07550000 0.07549160 27787.88142761 0 629.08188520 0 11404.60528645 0 1567.63082015 0 2205.98356292 0 6183
0.07650000 0.07648840 27251.87018314 0 894.59069819 0 10019.04777562 0 -346.90590166 0 2447.69241371 0 6330
0.07750000 0.07749960 26414.58098036 0 1192.27900880 0 10195.91709228 0 -388.06284024 0 -1136.36376846 0 6583
0.07850000 0.07848650 25519.38351877 0 1610.84610392 0 10153.41043730 0 -1865.64244264 0 194.34144522 0 6549
0.07950000 0.07947320 23938.25553467 0 1374.26373952 0 9249.75371955 0 -594.18413184 0 485.18152293 0 6828
0.08050000 0.08048110 23440.55453407 0 234.99902195 0 9461.39013613 0 294.73532158 0 368.60544384 0 7147
0.08150000 0.08149960 23588.70224014 0 -327.25252511 0 9285.83842613 0 1810.25867390 0 -1080.13407410 0 7386
0.08250000 0.08250610 23520.27527276 0 -328.41622645 0 8450.78583296 0 1695.01791719 0 -2056.47396089 0 7227
0.08350000 0.08350160 23842.47992498 0 -57.37302262 0 8689.02904608 0 610.38626474 0 -2321.37933218 0 7798
0.08450000 0.08449610 23695.99306763 0 439.69198364 0 7628.39997938 0 -577.86573952 0 -1817.55533596 0 7371
0.08550000 0.08548940 23002.42264099 0 849.63595219 0 8804.32516442 0 -406.26131332 0 -810.55064558 0 8256
0.08650000 0.08650700 22179.52746047 0 897.00778670 0 8270.71661443 0 -212.65949940 0 -671.58189678 0 8037
0.08750000 0.08749060 21597.78751450 0 653.39671050 0 8127.27464641 0 768.60978640 0 -667.25261778 0 8155
0.08850000 0.08849210 21299.49908389 0 392.83169054 0 8380.66479988 0 1642.15863850 0 -1208.11243329 0 8718
0.08950000 0.08949900 20853.28439369 0 470.57823372 0 7391.89512125 0 533.71484430 0 -1596.49637095 0 8571
0.09050000 0.09049190 19861.64698294 0 594.44543870 0 7307.69009101 0 544.42510410 0 -643.25667543 0 8932
0.09150000 0.09150830 19675.18903299 0 485.65431120 0 7592.41492372 0 22.11707955 0 -179.76030066 0 9285
0.09250000 0.09250820 19452.08168789 0 197.33097292 0 7580.93292288 0 439.94775434 0 702.51022170 0 9204
0.09350000 0.09350330 19521.06227151 0 -66.55950908 0 8192.92246026 0 913.68160064 0 1030.59538563 0 9349
0.09450000 0.09448040 19352.87365752 0 513.41927291 0 7891.40091080 0 743.65498072 0 1886.76843840 0 9564
0.09550000 0.09549270 19116.25807614 0 489.40782931 0 7714.26585835 0 683.59204751 0 1721.51399048 0 10155
0.09650000 0.09649430 18299.34195102 0 285.67151648 0 7337.98397171 0 924.80928708 0 2743.85495796 0 9913
0.09750000 0.09749140 18177.87854776 0 234.72221383 0 6670.56637629 0 736.73809941 0 2665.64005544 0 10476
0.09850000 0.09850240 18021.86949107 0 72.86785542 0 6350.79763553 0 732.76977820 0 3040.11715313 0 10575
0.09950000 0.09950330 17828.87886948 0 91.75546999 0 6331.01139108 0 -19.29197587 0 1396.03193011 0 10882
0.10050000 0.10051200 17856.00606529 0 528.91166980 0 6354.05289903 0 -203.43293113 0 2079.86978323 0 10875
0.10150000 0.10150300 17376.02078440 0 377.15992199 0 6123.82604907 0 124.16172882 0 1632.40392034 0 11118
0.10250000 0.10250800 16958.37269224 0 430.02695131 0 5473.84736524 0 -193.21096085 0 815.04379499 0 11575
0.10350000 0.10349800 17052.93034619 0 254.77308684 0 6010.85511895 0 367.55910914 0 736.26752561 0 11364
0.10450000 0.10450100 16576.70965574 0 197.42730214 0 5479.83749297 0 245.05269289 0 410.45440272 0 12093
0.10550000 0.10551000 16299.12647254 0 -37.11520785 0 5127.59362352 0 266.27833956 0 41.40241202 0 12067
0.10650000 0.10649700 16008.81011579 0 371.79316616 0 4838.82739224 0 240.61822680 0 67.32493889 0 12054
0.10750000 0.10749900 16137.35980694 0 459.83586418 0 5503.96408875 0 429.75346488 0 271.27970868 0 12807
0.10850000 0.10850100 15334.39481109 0 324.92290797 0 4924.72648819 0 -101.86871003 0 1104.35367741 0 12736
0.10950000 0.10950300 15358.86464894 0 467.53445163 0 5584.48203483 0 -394.88449956 0 1534.57993057 0 12933
0.11050000 0.11050200 15251.79526794 0 303.11264254 0 6299.06773398 0 -175.30368992 0 1354.84288178 0 13428
0.11150000 0.11150900 14781.22146315 0 291.75686620 0 6427.61742512 0 -113.82128467 0 1621.01049810 0 13453
0.11250000 0.11250000 15087.37124438 0 13.43637689 0 6681.71620739 0 -67.25152938 0 2696.06680404 0 13668
0.11350000 0.11349100 15260.21023480 0 -335.86125765 0 7104.55721988 0 155.59273728 0 1394.43751534 0 13791
0.11450000 0.11448600 15542.22234793 0 -281.43192331 0 6773.98189010 0 529.64133600 0 1235.01818260 0 14205
0.11550000 0.11549300 15493.83628848 0 259.04368253 0 6833.31847880 0 493.84672433 0 1686.80225217 0 14776
0.11650000 0.11649800 15464.27318121 0 153.27419246 0 6294.19591106 0 13.17584509 0 1034.66335777 0 14553
0.11750000 0.11747300 15063.78719252 0 234.55059280 0 5965.99005878 0 746.68104710 0 966.76121859 0 14568
0.11850000 0.11849100 14808.34865895 0 382.17236344 0 5461.15848100 0 504.56252029 0 556.27138442 0 16015
0.11950000 0.11950300 14541.39490758 0 195.46750065 0 5210.52533641 0 423.56071361 0 396.80554792 0 15270
0.12050000 0.12050700 14134.92986348 0 462.52976081 0 4803.38488050 0 498.05531499 0 214.22401889 0 15999
0.12150000 0.12150000 13699.34460512 0 437.73550385 0 4608.66697624 0 11.88016164 0 313.83840359 0 15670
0.12250000 0.12250700 13430.50855852 0 17.91291781 0 3746.29895774 0 629.28340151 0 621.04448461 0 16887
0.12350000 0.12352200 13463.83625623 0 -59.57741177 0 4197.50726642 0 494.70482950 0 732.63026690 0 16407
0.12450000 0.12449800 13605.89418365 0 -146.43703189 0 4170.07004552 0 488.92507595 0 138.16711248 0 16306
0.12550000 0.12549900 13656.82687781 0 74.30692547 0 4231.10069992 0 -480.72601942 0 285.03817950 0 17523
0.12650000 0.12650100 13429.51204929 0 342.53454782 0 4510.96478204 0 -226.09576556 0 876.54945213 0 17154
0.12750000 0.12750600 13336.06162782 0 173.03054164 0 4722.47940305 0 -133.95962905 0 1300.48883925 0 18007
0.12850000 0.12850300 13063.57171403 0 207.19309263 0 4554.42365695 0 693.94024229 0 847.76140760 0 17496
0.12950000 0.12949900 13113.39717572 0 156.77083264 0 4510.49974440 0 664.72702049 0 611.78359213 0 18405
0.13050000 0.13049000 12883.53571248 0 215.49069285 0 3999.85519609 0 399.56255680 0 943.71638894 0 18100
0.13150000 0.13148800 12539.18641062 0 308.72409676 0 3575.60799834 0 278.05929317 0 743.02717991 0 19059
0.13250000 0.13249300 12360.58981130 0 245.12355577 0 3628.38977075 0 77.40706570 0 1086.66010235 0 18957
0.13350000 0.13349100 12194.39421577 0 203.79499615 0 3831.76623301 0 232.82552459 0 1189.75451874 0 19468
0.13450000 0.13450700 11945.82052359 0 234.48305161 0 3734.60658273 0 30.95013740 0 952.60414407 0 19953
0.13550000 0.13551000 11948.14571180 0 217.99857442 0 4123.14553294 0 -306.44098338 0 898.56677003 0 19956
0.13650000 0.13649900 11900.53471508 0 10.48938906 0 4166.30545509 0 -408.63854145 0 1128.07059717 0 19723
0.13750000 0.13749600 11891.78757847 0 -0.86965250 0 4419.51845136 0 -383.02825415 0 1302.74759351 0 20946
0.13850000 0.13851100 12100.05800831 0 36.95476987 0 4478.89932937 0 -87.02171896 0 844.65340602 0 20955
0.13950000 0.13949800 11817.38155569 0 142.57611222 0 4184.07653642 0 441.30965030 0 898.79818162 0 20506
0.14050000 0.14048300 11669.01240312 0 267.56715817 0 3991.87204989 0 479.86791425 0 250.70954364 0 21447
0.14150000 0.14148400 11414.79182529 0 115.41127051 0 3623.08612716 0 755.60423367 0 296.79809569 0 21771
0.14250000 0.14249400 11213.27551359 0 163.48287595 0 3612.45669533 0 249.45394200 0 124.82385384 0 22470
0.14350000 0.14350900 10940.99597397 0 460.04180942 0 3312.44098205 0 302.37411847 0 405.17843995 0 22519
0.14450000 0.14449900 10740.29901431 0 297.86989674 0 3390.67802921 0 -48.13183888 0 845.30113702 0 22218
0.14550000 0.14550500 10431.13756072 0 144.49494612 0 3323.52437919 0 155.52298164 0 1287.04703692 0 23559
0.14650000 0.14650700 10580.03818488 0 17.70176858 0 3590.33419034 0 6.84677135 0 1446.56602058 0 23044
0.14750000 0.14750500 10497.39435244 0 73.95128240 0 3338.27271585 0 331.68588396 0 1207.08270708 0 23649
0.14850000 0.14849900 10435.14574231 0 159.69281916 0 3393.13608532 0 197.05970096 0 1300.25632043 0 23640
0.14950000 0.14949500 10334.36544181 0 78.38475198 0 3049.30718273 0 -31.80957125 0 1007.12427148 0 24457
0.15050000 0.15050000 10243.15162995 0 21.51939545 0 3165.35621915 0 137.51052362 0 736.74695727 0 24591
0.15150000 0.15149900 10113.14039193 0 34.60245446 0 2745.71510853 0 248.99001159 0 333.05442331 0 25020
0.15250000 0.15250500 10111.09201184 0 121.67931359 0 2423.72083048 0 62.44093641 0 115.68254247 0 25297
0.15350000 0.15350100 9986.69444250 0 216.13510216 0 2524.78901142 0 -30.82524157 0 129.42329757 0 25452
0.15450000 0.15450400 9717.88054056 0 253.39347517 0 2351.18603059 0 -67.10183154 0 -281.17172368 0 26061
0.15550000 0.15549900 9557.37611998 0 363.70372564 0 2686.81034049 0 -31.89372092 0 23.00806953 0 26128
0.15650000 0.15649500 9158.66170327 0 337.69151295 0 2555.34862792 0 114.40590342 0 361.55901633 0 26331
0.15750000 0.15749700 9139.91625735 0 -55.47899074 0 2482.78061106 0 278.68820122 0 450.33359502 0 27345
0.15850000 0.15849900 9179.71019275 0 -193.87972927 0 2359.60099745 0 434.02406057 0 374.97535231 0 26980
0.15950000 0.15949700 9444.38304521 0 -94.14720287 0 2565.59052838 0 320.07322970 0 510.52828890 0 27777
0.16050000 0.16050000 9294.89558783 0 263.56894168 0 2149.71400819 0 57.20140159 0 422.03384002 0 28224
0.16150000 0.16150500 8974.86111128 0 298.10795172 0 2273.09292364 0 -92.23036200 0 421.28202916 0 28075
0.16250000 0.16249700 8828.98323179 0 202.14964868 0 2238.93480158 0 -120.75366724 0 460.56663762 0 28590
0.16350000 0.16349900 8816.91439774 0 122.30600718 0 2643.35146558 0 -167.54752639 0 331.01490108 0 29163
0.16450000 0.16449100 8563.29172544 0 175.51074240 0 2409.83613515 0 -167.03266328 0 112.07960798 0 28996
0.16550000 0.16550500 8500.06875073 0 216.56360113 0 2423.30008213 0 4.98437310 0 326.20951211 0 30777
0.16650000 0.16650700 8351.42279004 0 49.97781687 0 2559.70005157 0 53.29287092 0 18.16680622 0 29211
0.16750000 0.16749900 8358.36513770 0 56.23500907 0 2557.39700801 0 201.17306963 0 49.34746942 0 30922
0.16850000 0.16850800 8383.95328035 0 59.54286611 0 2735.05245973 0 -66.36120374 0 -281.65447704 0 30867
0.16950000 0.16949900 8269.90833472 0 117.60469806 0 2587.76839499 0 -128.02486295 0 -85.87307598 0 30852
0.17050000 0.17049200 8157.69032269 0 130.17953736 0 2794.37797611 0 -116.01581945 0 -11.83731174 0 31257
0.17150000 0.17149500 8197.17423299 0 59.94988477 0 2775.52180694 0 -114.89640741 0 -103.18100197 0 32608
0.17250000 0.17250900 8081.24699214 0 118.00551622 0 2808.77199837 0 55.97270570 0 -187.82981099 0 32361
0.17350000 0.17350400 8053.96478378 0 115.97485185 0 2598.41997147 0 223.53805853 0 -12.00871133 0 32508
0.17450000 0.17449800 7943.08652305 0 -39.55997717 0 2446.54089193 0 263.72727593 0 -80.15123068 0 32791
0.17550000 0.17549800 7960.66937486 0 25.08291247 0 2318.41194913 0 431.80516667 0 -238.85329822 0 33633
0.17650000 0.17650100 8050.54343542 0 -0.04821765 0 2343.35789694 0 212.63624751 0 -170.45290442 0 33984
0.17750000 0.17750300 7890.00579787 0 139.91432534 0 2310.34022433 0 -80.68170577 0 -215.18288222 0 34069
0.17850000 0.17849800 7923.44421882 0 206.83767101 0 2382.87502422 0 -88.75509141 0 163.59913536 0 34536
