### header ###
fiducial parameters:
Omega_m = 0.31
Omega_nu = 0
Omega_de = 0.69
Omega_k = 0
H_0 = 100
w_de = -1
zeff = 0
beta = 0
fgrowth = 0
b_1 = 2
gamma = 0.55
Lx = 3500 Ly = 3500 Lz = 3500
nx = 700 ny = 700 nz = 700
xoffset = -685.467585 yoffset = -31.7331281 zoffset = 572.489161
bins = 400 dk = 0.001
kx_ny = 0.628318531 ky_ny = 0.628318531 kz_ny = 0.628318531
############################
A(data) = 8.04491722 (not used)
A(ran) = 8.04973486 (used)
Ngal = 478225
weighted Ngal = 0
Nran = 23820508
weighted Nran = 0
SN(data) = 3480.76504
SN(ran) = 70.11611
SN(data+ran) = 3550.88115
############################
13 columns: k_central k_mean P_0(k) sigma^{lin}_{P_0(k)} P^img_1(k) sigma^{lin}_{P_1(k)} P_2(k) sigma^{lin}_{P_2(k)} P^img_3(k) sigma^{lin}_{P_3(k)} P_4(k) sigma^{lin}_{P_4(k)} N_modes
### header ###
0.00050000 0 0 0 0 0 0 0 0 0 0 0 0
0.00150000 0.00179520 -1721.41433955 0 -4054.89572276 0 -935.04675861 0 -5888.08518136 0 1035.27455010 0 3
0.00250000 0.00253879 5719.87442271 0 -14171.13636564 0 158.37742697 0 -10516.09550906 0 -5671.52158023 0 6
0.00350000 0.00331552 7911.18715525 0 -11003.95321289 0 -8873.30574804 0 16510.16498358 0 11070.39823413 0 7
0.00450000 0.00420575 22963.22661114 0 -13759.46732888 0 -5979.45400576 0 -11464.72801022 0 -10727.57691309 0 24
0.00550000 0.00557378 39309.07829441 0 -17080.83260473 0 -13260.76981905 0 -10284.97180079 0 3744.71561529 0 45
0.00650000 0.00659388 54606.38081735 0 -8482.62983914 0 -2830.18587457 0 -18205.22719007 0 -2055.22278819 0 40
0.00750000 0.00754703 65197.39167613 0 -16768.37159835 0 -20844.86942683 0 -12463.78387861 0 -20812.53823836 0 57
0.00850000 0.00846663 81091.60323005 0 -14949.07790740 0 -13552.30413153 0 -10611.18463460 0 -13333.29354661 0 75
0.00950000 0.00948925 91416.10323045 0 3822.55405877 0 394.10943683 0 -28766.78566483 0 -2367.84987944 0 112
0.01050000 0.01054430 80378.54551173 0 5949.48122248 0 12938.23299708 0 -13888.34918977 0 -15952.45198246 0 105
0.01150000 0.01145670 80929.39367146 0 2583.36160971 0 27120.44168754 0 -19985.32485116 0 4302.99330497 0 144
0.01250000 0.01249090 80195.96287547 0 4014.57031577 0 35144.55548362 0 10752.32355906 0 3206.84422025 0 169
0.01350000 0.01339930 79446.80937824 0 -1623.30246934 0 44159.75307421 0 12852.64392624 0 943.71971064 0 180
0.01450000 0.01448870 91996.51449744 0 -5340.92410580 0 51231.53621263 0 12069.60911506 0 -15144.83661019 0 267
0.01550000 0.01550050 91973.92695481 0 -62.41657730 0 45380.80905521 0 -16570.73060034 0 9529.60672934 0 238
0.01650000 0.01653350 92845.42964128 0 13677.19995548 0 47192.68428853 0 -6249.75159924 0 -20037.36477781 0 315
0.01750000 0.01747870 85164.11502160 0 3286.31029547 0 55276.36719213 0 -12199.48748518 0 14420.48512056 0 297
0.01850000 0.01844180 87201.31206498 0 1235.25070142 0 49512.88995428 0 11450.22326471 0 -11770.76706821 0 388
0.01950000 0.01947590 83763.90882503 0 2472.79337407 0 48240.90127911 0 19027.23658460 0 -6769.23186275 0 399
0.02050000 0.02045430 80946.88794467 0 -2528.39858931 0 40808.82469109 0 20334.76742244 0 -18573.60343678 0 462
0.02150000 0.02154770 81762.25394432 0 3850.05771361 0 34519.85491735 0 12440.86416623 0 -7371.71027311 0 571
0.02250000 0.02255340 81127.92045546 0 6446.46252196 0 33774.79818030 0 10698.19096302 0 22.17233045 0 510
0.02350000 0.02348930 77981.71935824 0 2146.52517864 0 35140.45872343 0 2287.37622266 0 326.84838525 0 555
0.02450000 0.02439640 72716.82890697 0 2123.05185003 0 31548.59655227 0 2622.94517094 0 13110.18620152 0 592
0.02550000 0.02547300 73179.09846815 0 4186.14706116 0 31909.99723435 0 1196.77437267 0 -7419.15518496 0 837
0.02650000 0.02652900 70048.62007217 0 2740.10143984 0 32564.59307762 0 -4607.90298583 0 -3296.08715829 0 723
0.02750000 0.02749970 68484.10057530 0 3343.80887826 0 31377.63985707 0 -1630.04551515 0 -15072.09143613 0 826
0.02850000 0.02848090 63961.16661013 0 5570.46447161 0 33309.20692168 0 -3064.99666700 0 -6636.93972582 0 831
0.02950000 0.02946900 61053.46338950 0 3732.49176869 0 27052.23616666 0 8849.02413971 0 -7209.22390640 0 996
0.03050000 0.03053250 57592.03320470 0 102.17851368 0 26019.29898433 0 9325.63236153 0 -8526.58696867 0 1041
0.03150000 0.03150510 54631.95788768 0 1762.31550744 0 26489.42989613 0 12502.97990846 0 5611.76424318 0 1036
0.03250000 0.03246190 56222.71879438 0 3292.46650807 0 21584.27927822 0 10835.68709262 0 1955.84867294 0 1059
0.03350000 0.03345080 53995.52065711 0 -2164.77236994 0 24959.67749919 0 8105.04141817 0 10979.30621784 0 1302
0.03450000 0.03451200 53219.68285706 0 -560.29174557 0 21111.71245496 0 2804.08840497 0 13746.40198560 0 1339
0.03550000 0.03553350 55683.05368272 0 -855.97375092 0 23234.94146218 0 602.95009139 0 15175.28550344 0 1365
0.03650000 0.03647120 55303.60511118 0 896.19618529 0 20943.63456421 0 -3147.20867878 0 7592.38170674 0 1308
0.03750000 0.03744890 56292.25299424 0 2812.89090320 0 25500.00695034 0 -3544.58334419 0 6444.85703486 0 1579
0.03850000 0.03847530 50884.41882956 0 5012.60753027 0 22035.47651458 0 -2840.53849827 0 3701.77713964 0 1662
0.03950000 0.03950240 47700.23965822 0 1977.51721261 0 16593.20741972 0 2459.39586104 0 -738.56724747 0 1683
0.04050000 0.04050350 47614.76131062 0 -191.81584793 0 17428.39288079 0 3090.85054545 0 -5262.34381656 0 1822
0.04150000 0.04152450 45294.11275188 0 -543.58028572 0 12551.25524467 0 6059.96087952 0 -5432.83547412 0 1887
0.04250000 0.04250150 45438.60659076 0 1611.98655337 0 8700.31174507 0 5526.10873839 0 -6852.31858819 0 1920
0.04350000 0.04349210 44665.42614867 0 910.64667641 0 4846.96555099 0 -859.25780246 0 -6335.47353798 0 2005
0.04450000 0.04448520 43338.40801916 0 275.50933676 0 5404.66747978 0 -1276.93800436 0 -8329.27814040 0 2151
0.04550000 0.04548030 41233.55907114 0 2080.19088065 0 5356.24820334 0 -4477.39349319 0 -9197.29304456 0 2274
0.04650000 0.04648670 40069.96845594 0 3372.10974049 0 8521.44940995 0 -2984.52301022 0 -8526.31016055 0 2311
0.04750000 0.04749250 37302.44086752 0 1201.75691884 0 11038.38814308 0 -2096.88794648 0 -9832.10264338 0 2568
0.04850000 0.04851840 37691.19019191 0 568.09773456 0 8909.55653950 0 745.61921115 0 -8481.40081108 0 2493
0.04950000 0.04949480 38097.21234301 0 -1021.67109183 0 13358.75989370 0 636.44276674 0 -6613.63248208 0 2644
0.05050000 0.05050630 40164.63683314 0 -500.16016394 0 14887.07288841 0 182.44644666 0 -5910.49556679 0 2829
0.05150000 0.05149060 39912.96289002 0 888.01705894 0 16709.02393732 0 -634.61804761 0 -2504.16127028 0 2784
0.05250000 0.05249300 39954.15193834 0 434.41380640 0 17764.88083203 0 39.11088368 0 2711.55698646 0 3055
0.05350000 0.05348950 40187.44582227 0 553.12573694 0 23641.40650628 0 -286.47204557 0 3176.29567608 0 3009
0.05450000 0.05448610 40160.65079621 0 1482.46249764 0 23055.23763038 0 -79.35313751 0 4184.17618734 0 3336
0.05550000 0.05550870 39083.09214486 0 2283.22410085 0 26493.74810281 0 1881.17691436 0 4901.70712489 0 3349
0.05650000 0.05647670 37997.56141964 0 1013.78427486 0 24107.99427414 0 -148.71128741 0 10002.46143304 0 3324
0.05750000 0.05747970 37262.13760518 0 879.16362802 0 22235.33197756 0 4598.19255696 0 4931.17058123 0 3639
0.05850000 0.05849280 36283.78698421 0 597.38514094 0 20858.48838636 0 2204.57737767 0 3113.13913531 0 3846
0.05950000 0.05951020 34752.70590829 0 1718.64625835 0 17104.74882634 0 3570.41507800 0 3071.06430100 0 3787
0.06050000 0.06049470 33458.12969049 0 656.73058750 0 14655.32912996 0 2722.86183010 0 220.92609711 0 3930
0.06150000 0.06148310 33138.36094973 0 -201.36462085 0 15189.23663272 0 2941.63989619 0 817.80080387 0 4083
0.06250000 0.06249100 32401.49773305 0 232.43688599 0 14083.88644607 0 1291.50918382 0 -871.21480603 0 4303
0.06350000 0.06350600 31695.08340962 0 897.69205637 0 11341.60375824 0 954.02029442 0 -940.37476131 0 4470
0.06450000 0.06451750 32005.77284403 0 484.68991170 0 12891.95067934 0 456.79097486 0 -813.42834280 0 4479
0.06550000 0.06550280 30904.85158731 0 141.23082476 0 11577.77644662 0 -1013.61486829 0 -462.17655365 0 4636
0.06650000 0.06648880 31684.67542429 0 -364.99254425 0 12712.68974053 0 156.59146098 0 -3004.33139932 0 4653
0.06750000 0.06749660 30732.01259689 0 278.31174218 0 11412.57736032 0 -369.21220724 0 -2130.22671651 0 5220
0.06850000 0.06852730 31171.58389219 0 381.82579967 0 10897.51495441 0 110.46338072 0 -5418.87327252 0 5029
0.06950000 0.06949320 29996.81022893 0 714.51262180 0 11965.08636877 0 -405.70326814 0 -3295.62212065 0 5040
0.07050000 0.07048030 30891.23262778 0 930.65658182 0 10600.77664927 0 272.46112574 0 -4208.38028940 0 5475
0.07150000 0.07148790 29491.80149395 0 728.54347181 0 10681.64890975 0 579.85100736 0 -3845.18589069 0 5509
0.07250000 0.07249820 28615.31626131 0 850.65792777 0 10555.53513006 0 647.15081207 0 -2127.68008180 0 5916
0.07350000 0.07351270 28422.21491647 0 608.89260812 0 11185.15180855 0 1128.14810345 0 -834.50562033 0 5721
0.07450000 0.07449140 27985.74387212 0 212.13688567 0 11719.83437404 0 2755.90164736 0 809.24521849 0 6028
0.07550000 0.07549160 27605.18806810 0 102.01143230 0 11116.28194818 0 2016.59144690 0 1794.66884056 0 6183
0.07650000 0.07648840 27304.13155629 0 358.44104966 0 11742.20047017 0 1294.91945987 0 1997.21487846 0 6330
0.07750000 0.07749960 27235.70458891 0 1007.34682521 0 10993.88846963 0 -126.31086707 0 2368.43671266 0 6583
0.07850000 0.07848650 26075.87856415 0 980.91497140 0 11087.71535014 0 -452.73407504 0 3207.46427044 0 6549
0.07950000 0.07947320 25809.92132201 0 537.82267681 0 10311.60074198 0 -417.72227674 0 3058.13182561 0 6828
0.08050000 0.08048110 25855.53930026 0 188.04682856 0 10491.79175608 0 775.98727643 0 2056.80613064 0 7147
0.08150000 0.08149960 25025.89000160 0 -124.20491089 0 9300.86357091 0 722.48469567 0 1081.11729655 0 7386
0.08250000 0.08250610 24867.99864969 0 866.88884872 0 8505.27274339 0 1148.10043277 0 -973.93940677 0 7227
0.08350000 0.08350160 23814.90983619 0 665.24077636 0 7464.18632999 0 509.19296653 0 -1012.69365087 0 7798
0.08450000 0.08449610 23797.85845596 0 588.18514625 0 7385.61711308 0 392.96345121 0 -3316.12806621 0 7371
0.08550000 0.08548940 22470.28671021 0 367.01988693 0 6963.58438029 0 417.31370795 0 -1280.68045015 0 8256
0.08650000 0.08650700 23220.54743992 0 215.98784024 0 7270.09954825 0 -263.38624832 0 -3632.97371322 0 8037
0.08750000 0.08749060 21870.72032128 0 131.88024645 0 6810.28804318 0 -34.09401330 0 -725.64584441 0 8155
0.08850000 0.08849210 22419.24329280 0 389.30404786 0 7291.61307537 0 930.65215289 0 -1571.03002387 0 8718
0.08950000 0.08949900 22447.25627459 0 -336.97845523 0 6909.79502632 0 1151.67679369 0 -542.85061951 0 8571
0.09050000 0.09049190 21974.57872808 0 236.45613990 0 6451.43399581 0 1323.57463650 0 -1761.46293842 0 8932
0.09150000 0.09150830 21981.66501596 0 877.39759221 0 6294.42842988 0 546.02284057 0 -374.25897289 0 9285
0.09250000 0.09250820 20943.74528746 0 799.16497397 0 6647.56915764 0 -528.25065201 0 263.90443312 0 9204
0.09350000 0.09350330 20472.17497344 0 333.95460332 0 6005.40753514 0 -460.94309667 0 705.21297619 0 9349
0.09450000 0.09448040 20316.38736324 0 412.22597470 0 7126.35862745 0 369.25206761 0 931.63980426 0 9564
0.09550000 0.09549270 19850.90682786 0 558.67629337 0 6520.75782150 0 -130.49731308 0 119.69626022 0 10155
0.09650000 0.09649430 19622.48476685 0 690.68719326 0 7044.34591752 0 473.20237470 0 1209.59612481 0 9913
0.09750000 0.09749140 18878.97815528 0 467.90648174 0 5979.87475411 0 690.40817067 0 1450.02058593 0 10476
0.09850000 0.09850240 18308.19981088 0 597.96975969 0 6525.06495585 0 1023.03852394 0 1736.91559430 0 10575
0.09950000 0.09950330 18077.34183841 0 206.57857861 0 5617.47756279 0 1034.61463954 0 532.92538754 0 10882
0.10050000 0.10051200 17585.61989322 0 138.39852407 0 5154.85368722 0 1327.93713247 0 1095.01417143 0 10875
0.10150000 0.10150300 17505.45626153 0 491.98214483 0 4367.51174169 0 234.03683692 0 1025.02489902 0 11118
0.10250000 0.10250800 17036.76475195 0 65.38905362 0 4164.75532961 0 462.32270834 0 1432.34915551 0 11575
0.10350000 0.10349800 17261.75439227 0 194.26504618 0 4150.64918779 0 229.69316390 0 1144.60157813 0 11364
0.10450000 0.10450100 16817.08982755 0 189.32789654 0 3789.42566291 0 -75.69528428 0 520.13795961 0 12093
0.10550000 0.10551000 16698.72667524 0 592.21104355 0 4880.99080515 0 -1137.28277142 0 794.65078714 0 12067
0.10650000 0.10649700 16041.25202751 0 743.66937475 0 4963.04780439 0 -746.33669780 0 707.76403983 0 12054
0.10750000 0.10749900 15754.58953796 0 362.13920615 0 5859.78431912 0 -332.43437312 0 1488.85122906 0 12807
0.10850000 0.10850100 15712.95759664 0 -55.15634319 0 5960.05529268 0 244.04843303 0 944.91662895 0 12736
0.10950000 0.10950300 15568.57448100 0 74.32098733 0 5955.31633766 0 312.05797376 0 908.34252561 0 12933
0.11050000 0.11050200 15648.84883594 0 120.76806126 0 6022.78001278 0 867.80895892 0 833.33084666 0 13428
0.11150000 0.11150900 15514.09864289 0 176.49507207 0 6015.48335072 0 -78.13208153 0 903.97781517 0 13453
0.11250000 0.11250000 15512.76996392 0 59.43435733 0 5825.12794244 0 -85.69713674 0 1362.85924495 0 13668
0.11350000 0.11349100 15510.66622220 0 238.49676936 0 5765.51454562 0 254.66125636 0 878.22358764 0 13791
0.11450000 0.11448600 15301.17783663 0 120.46800126 0 5593.94887255 0 -74.73498155 0 768.20564655 0 14205
0.11550000 0.11549300 15148.37975413 0 427.31866066 0 5728.76549954 0 165.74052298 0 333.90256339 0 14776
0.11650000 0.11649800 14635.73111503 0 446.88788754 0 5584.24951601 0 130.32679928 0 333.06438840 0 14553
0.11750000 0.11747300 14200.14585667 0 263.04743518 0 5088.22043646 0 366.28468456 0 613.67695968 0 14568
0.11850000 0.11849100 14135.59420297 0 119.64643476 0 5388.21400510 0 400.35533526 0 80.71957312 0 16015
0.11950000 0.11950300 14127.62212910 0 102.15238299 0 5061.02680671 0 -118.54473844 0 -304.34720676 0 15270
0.12050000 0.12050700 14053.32682957 0 40.44055917 0 5338.02315669 0 262.48828278 0 -62.30474682 0 15999
0.12150000 0.12150000 13840.40602331 0 215.53941108 0 4988.19305405 0 200.89626151 0 578.11043790 0 15670
0.12250000 0.12250700 13861.88633346 0 -31.46356110 0 4507.27769788 0 524.79165773 0 -455.16666481 0 16887
0.12350000 0.12352200 13917.58012729 0 -172.16136414 0 4584.61788673 0 519.36178964 0 -232.63729507 0 16407
0.12450000 0.12449800 13742.19450217 0 183.84820299 0 4402.84353019 0 67.35782369 0 -603.55131863 0 16306
0.12550000 0.12549900 13689.60095928 0 339.53284056 0 4203.06557348 0 213.84645262 0 -292.50978429 0 17523
0.12650000 0.12650100 13434.60531870 0 307.50171210 0 4029.63974985 0 -255.09196980 0 -253.56509621 0 17154
0.12750000 0.12750600 13163.77625364 0 132.78928432 0 4062.18131249 0 22.47582287 0 82.89074529 0 18007
0.12850000 0.12850300 13208.84061565 0 117.48400972 0 4379.31483995 0 -0.29105156 0 85.43881940 0 17496
0.12950000 0.12949900 13238.18227642 0 120.17790635 0 4134.47252123 0 364.61608521 0 232.77127020 0 18405
0.13050000 0.13049000 13099.00315345 0 -90.91164811 0 4391.91514559 0 105.08931715 0 246.97484847 0 18100
0.13150000 0.13148800 13000.90235556 0 179.71601136 0 3888.48975306 0 268.13738290 0 -42.44963251 0 19059
0.13250000 0.13249300 13031.35124881 0 207.57508784 0 3707.60118250 0 206.91407005 0 93.67197869 0 18957
0.13350000 0.13349100 12632.19393910 0 186.11802957 0 3406.97649135 0 173.20216267 0 -389.87980875 0 19468
0.13450000 0.13450700 12604.18095731 0 204.09616338 0 2901.80167150 0 354.11287788 0 -589.64115696 0 19953
0.13550000 0.13551000 12462.01230663 0 -68.66103633 0 2951.11780624 0 -9.56911278 0 -1190.26384568 0 19956
0.13650000 0.13649900 12343.42770783 0 169.23937762 0 3247.54608628 0 -246.52088316 0 -1312.77911980 0 19723
0.13750000 0.13749600 12148.33334452 0 385.37337255 0 3264.81891300 0 150.84935333 0 -822.50875639 0 20946
0.13850000 0.13851100 11864.88182917 0 327.11744274 0 3548.45865788 0 49.99176800 0 -829.06246545 0 20955
0.13950000 0.13949800 11527.39736869 0 175.74658292 0 3400.04521601 0 245.60963082 0 72.11803758 0 20506
0.14050000 0.14048300 11615.31162775 0 172.42599270 0 3737.56289346 0 653.91600253 0 282.80599882 0 21447
0.14150000 0.14148400 11475.68961179 0 139.49246976 0 3367.58115964 0 565.33186782 0 1025.76453031 0 21771
0.14250000 0.14249400 11164.22511464 0 227.23289332 0 3064.85272678 0 756.77568563 0 1126.90800307 0 22470
0.14350000 0.14350900 11154.03857581 0 199.49671965 0 3090.59588198 0 95.04051804 0 1173.79929867 0 22519
0.14450000 0.14449900 10839.38524911 0 188.35796088 0 2850.06069762 0 135.80870730 0 1614.05707811 0 22218
0.14550000 0.14550500 10705.13331069 0 254.14750049 0 2648.73261544 0 43.46917218 0 1390.70614187 0 23559
0.14650000 0.14650700 10516.83735482 0 81.88593181 0 2858.06598846 0 18.31307163 0 1167.08946983 0 23044
0.14750000 0.14750500 10496.95145945 0 185.22892189 0 2623.54307648 0 72.75381047 0 929.16846136 0 23649
0.14850000 0.14849900 10362.56665312 0 115.14996365 0 2761.39352047 0 76.13031593 0 1391.14903486 0 23640
0.14950000 0.14949500 10336.19237540 0 77.70535413 0 2830.55126129 0 46.10327825 0 1350.73504928 0 24457
0.15050000 0.15050000 10159.63308385 0 171.44387749 0 2824.70507378 0 272.37586884 0 1096.32734915 0 24591
0.15150000 0.15149900 10167.64944701 0 255.53375556 0 2460.71346770 0 13.94260358 0 744.34367933 0 25020
0.15250000 0.15250500 9812.62642403 0 217.39070379 0 2732.48368037 0 -16.82439756 0 1171.37445954 0 25297
0.15350000 0.15350100 9768.61393287 0 0.61736515 0 2740.40039261 0 123.44756387 0 1022.56130674 0 25452
0.15450000 0.15450400 9808.30821735 0 -16.08410192 0 2809.09309579 0 292.45995883 0 796.03261328 0 26061
0.15550000 0.15549900 9797.35768810 0 87.61109881 0 2642.91964491 0 -161.93828664 0 852.68305598 0 26128
0.15650000 0.15649500 9618.50642531 0 224.54342562 0 2728.89624713 0 -36.27337900 0 939.85989821 0 26331
0.15750000 0.15749700 9612.59380386 0 93.81525457 0 2704.44855393 0 -148.59724246 0 932.42483209 0 27345
0.15850000 0.15849900 9443.26474040 0 -11.99487092 0 2692.41293685 0 -114.65613796 0 551.45713759 0 26980
0.15950000 0.15949700 9428.21745098 0 128.18430443 0 2975.48799316 0 -116.03574963 0 338.77770801 0 27777
0.16050000 0.16050000 9420.53325755 0 261.99224263 0 2893.72994670 0 -68.35200774 0 330.95068160 0 28224
0.16150000 0.16150500 9119.21100994 0 277.91978188 0 2913.66013138 0 -206.10911203 0 683.94968361 0 28075
0.16250000 0.16249700 9004.98890711 0 238.88097903 0 2995.11922507 0 -98.38668532 0 0.59013830 0 28590
0.16350000 0.16349900 8795.64446176 0 192.65734461 0 3237.12702863 0 105.70039876 0 84.21820631 0 29163
0.16450000 0.16449100 8600.10720546 0 223.57902613 0 2999.16062363 0 213.77116081 0 249.87579758 0 28996
0.16550000 0.16550500 8456.64309279 0 86.82485302 0 2830.98308196 0 285.87967619 0 159.61752735 0 30777
0.16650000 0.16650700 8538.67794737 0 66.98213971 0 2870.96524688 0 365.64470418 0 407.89558846 0 29211
0.16750000 0.16749900 8428.80726819 0 -43.19402490 0 2494.34011817 0 307.33341276 0 343.13466783 0 30922
0.16850000 0.16850800 8437.43260923 0 -3.56879852 0 2540.12418130 0 292.56403868 0 479.60439291 0 30867
0.16950000 0.16949900 8453.31032302 0 162.66352391 0 2563.01067670 0 -55.63588558 0 234.67238837 0 30852
0.17050000 0.17049200 8441.29685059 0 222.64341469 0 2548.89346255 0 -256.01761615 0 520.47123659 0 31257
0.17150000 0.17149500 8054.28588120 0 262.38863185 0 2678.40644596 0 -203.54919054 0 787.10499778 0 32608
0.17250000 0.17250900 8136.63076088 0 140.11141272 0 2855.84045117 0 64.67267420 0 757.65482823 0 32361
0.17350000 0.17350400 7897.90036547 0 -3.54293357 0 2639.69759839 0 343.83443876 0 711.07577218 0 32508
0.17450000 0.17449800 7944.29340646 0 -22.19325714 0 2583.72699643 0 337.35602150 0 554.03698928 0 32791
0.17550000 0.17549800 7907.16790134 0 -29.23304126 0 2387.28180950 0 271.95622773 0 503.92586161 0 33633
0.17650000 0.17650100 7867.40718291 0 99.42914470 0 2217.23304493 0 138.89013529 0 234.66353051 0 33984
0.17750000 0.17750300 7747.58248373 0 116.66244322 0 2161.00777950 0 -137.68768082 0 66.19002560 0 34069
0.17850000 0.17849800 7709.51583100 0 140.63624092 0 2049.97450622 0 -190.28233094 0 -172.11596761 0 34536
