### header ###
fiducial parameters:
Omega_m = 0.31
Omega_nu = 0
Omega_de = 0.69
Omega_k = 0
H_0 = 100
w_de = -1
zeff = 0
beta = 0
fgrowth = 0
b_1 = 2
gamma = 0.55
Lx = 3500 Ly = 3500 Lz = 3500
nx = 700 ny = 700 nz = 700
xoffset = -685.467585 yoffset = -31.7331281 zoffset = 572.489161
bins = 400 dk = 0.001
kx_ny = 0.628318531 ky_ny = 0.628318531 kz_ny = 0.628318531
############################
A(data) = 7.98147837 (not used)
A(ran) = 7.97582331 (used)
Ngal = 474424
weighted Ngal = 0
Nran = 23820508
weighted Nran = 0
SN(data) = 3493.67922
SN(ran) = 69.4723136
SN(data+ran) = 3563.15153
############################
13 columns: k_central k_mean P_0(k) sigma^{lin}_{P_0(k)} P^img_1(k) sigma^{lin}_{P_1(k)} P_2(k) sigma^{lin}_{P_2(k)} P^img_3(k) sigma^{lin}_{P_3(k)} P_4(k) sigma^{lin}_{P_4(k)} N_modes
### header ###
0.00050000 0 0 0 0 0 0 0 0 0 0 0 0
0.00150000 0.00179520 7159.19914286 0 -16896.03550351 0 -18739.35613932 0 -15377.46615463 0 22395.99141068 0 3
0.00250000 0.00253879 19854.56069505 0 -29636.29533284 0 -25588.80699538 0 23380.21036381 0 7442.09704198 0 6
0.00350000 0.00331552 28595.49679988 0 -21390.73504039 0 2046.96283387 0 -43833.67310830 0 -31234.69614366 0 7
0.00450000 0.00420575 60067.25141791 0 -31334.67923677 0 -22426.10813418 0 -6215.88135762 0 14515.48566750 0 24
0.00550000 0.00557378 76404.46668782 0 -17564.58247606 0 -20749.09381715 0 -25275.90309601 0 -1109.69053797 0 45
0.00650000 0.00659388 113063.93765313 0 2935.88228729 0 -9423.74423175 0 -54855.95101876 0 956.03213584 0 40
0.00750000 0.00754703 77373.73800245 0 18464.65176057 0 11018.57975398 0 -35221.84031085 0 5055.98889891 0 57
0.00850000 0.00846663 76179.69849400 0 16133.26304675 0 7777.15666332 0 -12674.49021990 0 5271.43419523 0 75
0.00950000 0.00948925 60641.46218300 0 -630.74051946 0 6342.38266867 0 -580.56849401 0 -4414.08193988 0 112
0.01050000 0.01054430 78052.91440682 0 -12611.37796844 0 27617.47834865 0 -6298.51411774 0 -17381.99983980 0 105
0.01150000 0.01145670 85006.55583943 0 -13468.70807915 0 8931.22507917 0 -289.05079002 0 -31007.60276163 0 144
0.01250000 0.01249090 85662.70180818 0 7673.48648604 0 23370.13454822 0 -8585.12634998 0 -24750.63200661 0 169
0.01350000 0.01339930 84165.61276945 0 14701.16855471 0 17837.18311309 0 -22298.99784526 0 -30705.10684758 0 180
0.01450000 0.01448870 73571.50165972 0 5190.79445358 0 8895.50575930 0 8451.19550898 0 -1107.71966416 0 267
0.01550000 0.01550050 75081.76676499 0 -7628.94252330 0 19437.24477264 0 5601.10159438 0 -14048.89789964 0 238
0.01650000 0.01653350 72923.65993458 0 604.02853583 0 12793.40698846 0 16051.54928959 0 -13860.44693123 0 315
0.01750000 0.01747870 78671.30374794 0 6238.59069582 0 16509.61136734 0 5971.80302931 0 -9790.99110133 0 297
0.01850000 0.01844180 65822.97802839 0 8937.93490801 0 -1270.73750246 0 -3851.59676676 0 1910.77323860 0 388
0.01950000 0.01947590 62138.66194498 0 -81.16124815 0 5323.79521930 0 -7851.40767355 0 6063.41544486 0 399
0.02050000 0.02045430 72353.10303668 0 -4158.69876793 0 19120.79772932 0 -2505.75568506 0 -2517.70272354 0 462
0.02150000 0.02154770 73700.60496711 0 -4487.89005712 0 19867.07242210 0 -13984.23552270 0 -3354.32758683 0 571
0.02250000 0.02255340 78775.93721748 0 661.97333331 0 35781.65705368 0 -6860.93285690 0 -10055.86325564 0 510
0.02350000 0.02348930 77329.55942642 0 593.80988726 0 24486.00344344 0 2216.23653570 0 2018.44052514 0 555
0.02450000 0.02439640 83481.45381891 0 -321.34765428 0 44337.02099455 0 4407.15066454 0 -10129.59386661 0 592
0.02550000 0.02547300 78870.38414818 0 3362.97507252 0 32455.64140141 0 10643.19472565 0 -7913.62306671 0 837
0.02650000 0.02652900 79144.97780368 0 3235.96443452 0 32429.95360783 0 6421.08475348 0 -3491.69084853 0 723
0.02750000 0.02749970 74804.51575153 0 3284.29513236 0 21957.97024085 0 10376.08596173 0 1250.77410081 0 826
0.02850000 0.02848090 70546.87468901 0 3715.10821873 0 23392.83281410 0 8633.55669874 0 -5234.95088496 0 831
0.02950000 0.02946900 65079.91430981 0 5881.47500344 0 9795.92935820 0 7050.23639432 0 -13736.54761651 0 996
0.03050000 0.03053250 60504.16535525 0 2611.42995313 0 10625.42364432 0 1919.27678406 0 -11344.03966970 0 1041
0.03150000 0.03150510 56170.78959098 0 1058.05585842 0 5146.89268567 0 -2272.39536718 0 -10327.05770743 0 1036
0.03250000 0.03246190 55010.18850349 0 3929.51271651 0 4739.77437442 0 1267.82548103 0 -18731.27334220 0 1059
0.03350000 0.03345080 52021.43586519 0 1744.81016190 0 5937.32380983 0 -429.39804326 0 -7397.15447554 0 1302
0.03450000 0.03451200 51171.41348886 0 1091.32598003 0 7007.29791868 0 160.64282463 0 -14790.30076950 0 1339
0.03550000 0.03553350 50219.41500096 0 3743.90733558 0 12936.35070187 0 -6579.17540724 0 -8906.10197415 0 1365
0.03650000 0.03647120 47575.12238777 0 3665.78101166 0 16385.93349911 0 -502.64811533 0 -8701.43004988 0 1308
0.03750000 0.03744890 43775.10051001 0 3062.95935923 0 20933.44802538 0 -3130.66662550 0 316.49243985 0 1579
0.03850000 0.03847530 44917.54298480 0 621.03009059 0 23196.96338806 0 2906.60706047 0 3134.11011852 0 1662
0.03950000 0.03950240 45462.63353562 0 -2368.51421893 0 24312.61083678 0 7353.14198439 0 4837.33262839 0 1683
0.04050000 0.04050350 46643.49697753 0 -305.04808492 0 22288.58985994 0 3512.03070923 0 3870.57473150 0 1822
0.04150000 0.04152450 47570.47201134 0 199.78017117 0 18517.13458021 0 3302.95199968 0 5080.34801351 0 1887
0.04250000 0.04250150 46371.56067998 0 1643.56482376 0 20379.05672171 0 4548.86534989 0 3769.51762288 0 1920
0.04350000 0.04349210 43956.24374404 0 1285.55227307 0 15500.36896012 0 1204.44749377 0 5913.28579265 0 2005
0.04450000 0.04448520 42947.33350657 0 2459.45122267 0 16848.53523004 0 1994.29178471 0 -246.69693312 0 2151
0.04550000 0.04548030 41905.09557139 0 1852.96463073 0 15498.26521840 0 1315.52505635 0 1068.54577895 0 2274
0.04650000 0.04648670 39218.28523089 0 408.09931924 0 16282.62870856 0 -1035.21697401 0 -1521.80246772 0 2311
0.04750000 0.04749250 40287.98253162 0 567.18205330 0 16342.19781608 0 -1922.88636196 0 -1056.77036150 0 2568
0.04850000 0.04851840 38988.20232116 0 1823.63404228 0 17844.49084747 0 755.25102651 0 -1019.69136015 0 2493
0.04950000 0.04949480 38023.47065971 0 938.39835133 0 17155.68152051 0 1202.44340298 0 300.18622709 0 2644
0.05050000 0.05050630 38469.13173366 0 -455.90297441 0 18171.01370638 0 4728.05985476 0 1464.99036908 0 2829
0.05150000 0.05149060 36456.29380488 0 1012.95827943 0 15937.83651370 0 4423.73700712 0 987.52847102 0 2784
0.05250000 0.05249300 38222.55105995 0 391.30370972 0 14796.39054815 0 5549.83673047 0 5643.20964567 0 3055
0.05350000 0.05348950 36226.54306490 0 168.14321746 0 10905.87455965 0 3743.43122561 0 7571.37750656 0 3009
0.05450000 0.05448610 35692.52483889 0 581.95364184 0 10758.60156723 0 3548.84618925 0 5831.68275873 0 3336
0.05550000 0.05550870 34692.47246127 0 967.38680494 0 11358.98730820 0 1191.44858444 0 8122.31424489 0 3349
0.05650000 0.05647670 33591.21903481 0 1553.38073811 0 9044.58354066 0 1977.96010560 0 6389.77221889 0 3324
0.05750000 0.05747970 31736.71535093 0 413.30995530 0 8886.79183967 0 -607.37791409 0 7743.74038702 0 3639
0.05850000 0.05849280 32613.64347657 0 -352.23722606 0 9211.53205427 0 -1311.24006665 0 4345.15671788 0 3846
0.05950000 0.05951020 33763.83657873 0 -315.06189548 0 11614.75801151 0 -2098.16126383 0 2862.87137743 0 3787
0.06050000 0.06049470 32962.97532460 0 1013.59715257 0 8754.62149831 0 -1152.55150735 0 2793.85757684 0 3930
0.06150000 0.06148310 33409.63290778 0 123.01352874 0 10187.14781102 0 -2465.02060205 0 2224.71793651 0 4083
0.06250000 0.06249100 32485.09378543 0 510.02006919 0 9194.61354195 0 606.16106559 0 2164.34054928 0 4303
0.06350000 0.06350600 32498.04840546 0 739.71212586 0 10308.65550358 0 1834.93888592 0 -561.13324225 0 4470
0.06450000 0.06451750 30565.26338512 0 888.98588736 0 7545.54577276 0 2410.94336764 0 -1585.77836053 0 4479
0.06550000 0.06550280 30636.90132670 0 1008.71093563 0 8619.33983367 0 108.02514407 0 -1995.98585041 0 4636
0.06650000 0.06648880 28416.90020056 0 801.89319481 0 7972.35067755 0 -252.25081125 0 -1701.25163606 0 4653
0.06750000 0.06749660 28283.70013299 0 1191.85826045 0 9879.18216851 0 -2262.19775602 0 -1262.49969280 0 5220
0.06850000 0.06852730 27976.11094953 0 1301.40784221 0 10287.14197646 0 -1667.43675606 0 -1442.42497110 0 5029
0.06950000 0.06949320 27304.46372603 0 373.60238403 0 12563.54552522 0 -508.61499117 0 644.81344430 0 5040
0.07050000 0.07048030 27475.42042123 0 0.17507781 0 11871.85739380 0 470.09437313 0 -2072.76135070 0 5475
0.07150000 0.07148790 27063.41921473 0 353.53711699 0 12257.61719048 0 821.38491542 0 -2454.85620787 0 5509
0.07250000 0.07249820 27146.12948112 0 225.76581028 0 12037.38864984 0 1325.24655754 0 -3155.66793494 0 5916
0.07350000 0.07351270 26049.30498459 0 459.97980441 0 10064.27822251 0 2242.76582597 0 -814.27426842 0 5721
0.07450000 0.07449140 26748.63302013 0 -553.14234543 0 8276.67352519 0 2439.22208522 0 -1968.92508855 0 6028
0.07550000 0.07549160 26150.94892642 0 -12.68246229 0 7299.96160828 0 1684.44384699 0 -3146.93187066 0 6183
0.07650000 0.07648840 26191.36291201 0 260.45097501 0 6622.24675078 0 376.85875476 0 -2291.20724705 0 6330
0.07750000 0.07749960 25863.62209738 0 464.43309345 0 6231.53762491 0 -1191.47072908 0 -2666.48155213 0 6583
0.07850000 0.07848650 25428.25828551 0 871.13951422 0 6689.83222148 0 -343.92744628 0 -2210.71144562 0 6549
0.07950000 0.07947320 24659.39605010 0 576.23921500 0 6933.26835494 0 -860.99505022 0 -3348.02743401 0 6828
0.08050000 0.08048110 24290.68763364 0 768.17907297 0 7169.14209055 0 465.41520866 0 -3367.43721942 0 7147
0.08150000 0.08149960 23706.17960647 0 189.14631041 0 6488.31590978 0 1085.17087466 0 -4087.83588910 0 7386
0.08250000 0.08250610 23627.23393051 0 36.59591582 0 5465.41025373 0 604.59876056 0 -4388.71524372 0 7227
0.08350000 0.08350160 23733.41752552 0 -0.90836024 0 5540.72420715 0 1111.36245902 0 -4007.73869136 0 7798
0.08450000 0.08449610 23206.70703390 0 251.72598305 0 5166.57927920 0 440.45597405 0 -3176.45068862 0 7371
0.08550000 0.08548940 22856.04650689 0 460.87223379 0 4815.91875220 0 393.67318723 0 -2795.65129346 0 8256
0.08650000 0.08650700 22537.49572186 0 672.66698461 0 5167.09967847 0 -217.84688357 0 -2723.17185520 0 8037
0.08750000 0.08749060 21736.74519097 0 1071.85972577 0 5402.71875061 0 44.21611121 0 -680.76639022 0 8155
0.08850000 0.08849210 21338.36294400 0 753.49384856 0 6122.46415312 0 555.37120442 0 339.42986794 0 8718
0.08950000 0.08949900 20553.55656085 0 320.34560889 0 6049.77434069 0 745.54613380 0 704.90738002 0 8571
0.09050000 0.09049190 20538.71964560 0 361.50365470 0 6616.89881790 0 400.21693120 0 -5.20486738 0 8932
0.09150000 0.09150830 19880.58065838 0 999.90622293 0 6656.91419979 0 -382.14468263 0 1245.99085649 0 9285
0.09250000 0.09250820 19444.44178377 0 767.12830934 0 7355.21250913 0 -887.03383650 0 608.53386480 0 9204
0.09350000 0.09350330 18531.08570948 0 568.40665243 0 6535.91583417 0 -846.60434966 0 -155.28271219 0 9349
0.09450000 0.09448040 18560.42737025 0 144.05648205 0 6851.51030848 0 211.50133422 0 -404.45209544 0 9564
0.09550000 0.09549270 18250.95589157 0 -108.32465046 0 6301.93546611 0 455.81661027 0 -1880.88903392 0 10155
0.09650000 0.09649430 18237.22620879 0 172.82127470 0 6390.66907720 0 182.91369877 0 -3102.33254629 0 9913
0.09750000 0.09749140 17743.73269163 0 655.27457679 0 6572.11126401 0 129.11105801 0 -2745.33864948 0 10476
0.09850000 0.09850240 17269.94791264 0 584.01863042 0 5954.79593839 0 427.28212198 0 -1401.06983790 0 10575
0.09950000 0.09950330 16851.08186475 0 393.39970081 0 6515.56490116 0 939.35500020 0 -853.79028846 0 10882
0.10050000 0.10051200 16777.67235120 0 15.67664037 0 5912.26713876 0 885.66197545 0 -190.82155316 0 10875
0.10150000 0.10150300 16680.67878579 0 -45.81196538 0 5951.67354279 0 584.22125396 0 -807.14701293 0 11118
0.10250000 0.10250800 16710.13116980 0 -147.49443891 0 5368.41668832 0 340.40091083 0 171.59999727 0 11575
0.10350000 0.10349800 16877.76616756 0 -17.91158914 0 6194.97680836 0 -239.71251063 0 -244.70280742 0 11364
0.10450000 0.10450100 16780.77260215 0 424.41217539 0 5362.70336871 0 -393.82266361 0 -566.75244710 0 12093
0.10550000 0.10551000 16440.40933722 0 356.16236521 0 5895.52578364 0 -255.69430427 0 -317.69489432 0 12067
0.10650000 0.10649700 16186.85309888 0 171.09620649 0 5249.18989467 0 24.24972003 0 305.77442942 0 12054
0.10750000 0.10749900 15884.35718483 0 337.63725855 0 5472.78442206 0 1375.47062292 0 224.88223876 0 12807
0.10850000 0.10850100 15753.48230547 0 -160.44020109 0 5341.96490433 0 1025.65823600 0 -220.30604692 0 12736
0.10950000 0.10950300 15748.61048255 0 66.12879564 0 5416.63666291 0 540.25194488 0 -251.51117995 0 12933
0.11050000 0.11050200 15542.55451768 0 471.97002495 0 4915.50324161 0 -26.43251815 0 794.20567968 0 13428
0.11150000 0.11150900 15560.38096064 0 100.71862765 0 5137.22654611 0 -270.66962359 0 480.19233336 0 13453
0.11250000 0.11250000 15320.33295857 0 -37.99091802 0 4832.79297522 0 314.25361577 0 1188.92409438 0 13668
0.11350000 0.11349100 15106.19419658 0 285.15000998 0 4402.07953977 0 605.32953400 0 266.99139728 0 13791
0.11450000 0.11448600 14970.44749430 0 314.15728654 0 3999.12442265 0 921.68799872 0 395.30303344 0 14205
0.11550000 0.11549300 14434.98986607 0 236.50928706 0 3473.99727347 0 456.44219663 0 -891.60670665 0 14776
0.11650000 0.11649800 14540.50912159 0 303.74819398 0 3144.76169499 0 -214.49418362 0 -470.03679704 0 14553
0.11750000 0.11747300 14262.04015240 0 400.19810825 0 3334.56348703 0 -706.89264786 0 -595.20721465 0 14568
0.11850000 0.11849100 13996.96869624 0 49.57865956 0 3530.95331234 0 -584.47481020 0 -228.55382167 0 16015
0.11950000 0.11950300 14089.42260848 0 143.89371888 0 3791.14187325 0 -408.61307511 0 -760.98538353 0 15270
0.12050000 0.12050700 13970.06294693 0 267.86721818 0 4016.69620214 0 -222.70763417 0 -1397.05058399 0 15999
0.12150000 0.12150000 13649.07625044 0 162.59044657 0 3761.86664643 0 248.44968214 0 -1238.32880772 0 15670
0.12250000 0.12250700 13717.94611081 0 171.31986745 0 4084.85743372 0 -79.01797824 0 -1381.60469087 0 16887
0.12350000 0.12352200 13290.55437281 0 241.86939950 0 4196.27823837 0 319.10550851 0 -1339.71808608 0 16407
0.12450000 0.12449800 13430.95145151 0 70.40802774 0 3994.03115323 0 -115.05474166 0 -1089.12701632 0 16306
0.12550000 0.12549900 13074.64403885 0 41.41536664 0 4071.36026977 0 564.69853084 0 -855.37252368 0 17523
0.12650000 0.12650100 13227.33139810 0 -29.27489465 0 3851.68534536 0 277.68061966 0 -1053.77972657 0 17154
0.12750000 0.12750600 13281.03217347 0 5.36223833 0 3612.70028648 0 605.45797297 0 -836.31926713 0 18007
0.12850000 0.12850300 13238.18227642 0 152.14702980 0 3516.73644727 0 105.29094418 0 -623.42060552 0 17496
0.12950000 0.12949900 13059.69640035 0 322.30098145 0 3361.72389981 0 466.88229170 0 -197.48487823 0 18405
0.13050000 0.13049000 12733.50571119 0 326.26376650 0 3373.52699807 0 274.66784008 0 -331.19316551 0 18100
0.13150000 0.13148800 12272.89699873 0 498.93445758 0 2937.83101646 0 258.14350252 0 -38.38575713 0 19059
0.13250000 0.13249300 12069.27694532 0 368.96750886 0 3339.12528486 0 242.83269176 0 8.50403264 0 18957
0.13350000 0.13349100 11700.23635911 0 97.72810344 0 3264.96285322 0 142.11439628 0 505.34644089 0 19468
0.13450000 0.13450700 11571.24377497 0 280.46641659 0 3755.61078291 0 101.12221389 0 687.33560053 0 19953
0.13550000 0.13551000 11655.39344360 0 86.10913794 0 3525.16248646 0 135.97589940 0 600.40677838 0 19956
0.13650000 0.13649900 11685.39944385 0 -215.40543595 0 3660.00125810 0 164.67315087 0 543.82830579 0 19723
0.13750000 0.13749600 11733.01044057 0 89.80795877 0 3717.21196044 0 -393.36316213 0 859.72948350 0 20946
0.13850000 0.13851100 11752.71917875 0 248.06325800 0 4110.88846937 0 -553.86979717 0 270.81909997 0 20955
0.13950000 0.13949800 11406.59830492 0 260.27160335 0 3948.57925985 0 -49.22888482 0 414.90990623 0 20506
0.14050000 0.14048300 11375.04217919 0 204.13159482 0 3837.96673491 0 102.65683811 0 -268.48394667 0 21447
0.14150000 0.14148400 11030.68180500 0 69.73006929 0 3690.16227091 0 523.70767713 0 -463.61041971 0 21771
0.14250000 0.14249400 10973.18322222 0 267.66127293 0 3383.61388598 0 315.82256420 0 -773.25794836 0 22470
0.14350000 0.14350900 10839.24130889 0 54.40032485 0 3213.83085721 0 144.17052700 0 -461.88424427 0 22519
0.14450000 0.14449900 10562.28924820 0 166.71820926 0 2909.17583983 0 459.20141997 0 -7.98563747 0 22218
0.14550000 0.14550500 10677.87324698 0 117.07986986 0 2828.14856680 0 459.82036293 0 -2.61816193 0 23559
0.14650000 0.14650700 10477.17628732 0 -25.18167761 0 2793.19323735 0 210.32988226 0 321.25907568 0 23044
0.14750000 0.14750500 10546.19008791 0 269.38855561 0 2623.89739087 0 173.35053183 0 362.29864762 0 23649
0.14850000 0.14849900 10340.45522046 0 124.88475163 0 2807.69798286 0 108.35775671 0 860.93304520 0 23640
0.14950000 0.14949500 10182.89603829 0 181.23513433 0 2622.50227795 0 67.48836640 0 579.38264802 0 24457
0.15050000 0.15050000 10029.90972627 0 177.01214964 0 2767.99262606 0 111.08309874 0 638.31066794 0 24591
0.15150000 0.15149900 9933.95695939 0 128.11676324 0 2685.71418034 0 239.24082959 0 489.21184916 0 25020
0.15250000 0.15250500 9835.96688475 0 12.27178977 0 2677.58709392 0 12.95373425 0 555.29591261 0 25297
0.15350000 0.15350100 9886.05808223 0 8.35587386 0 2803.33548688 0 -32.82257825 0 528.50088655 0 25452
0.15450000 0.15450400 9855.23272993 0 76.38043974 0 2633.80712159 0 251.88763900 0 444.26706826 0 26061
0.15550000 0.15549900 9811.36417900 0 189.60691912 0 2790.08191408 0 -203.74517069 0 384.52191077 0 26128
0.15650000 0.15649500 9695.20441933 0 143.74977866 0 2604.69797964 0 -61.10129583 0 230.38739866 0 26331
0.15750000 0.15749700 9489.98995114 0 224.49470740 0 2884.00844551 0 -153.42366885 0 234.84622387 0 27345
0.15850000 0.15849900 9403.22721386 0 189.74753765 0 2784.97757233 0 -46.73761174 0 65.61526121 0 26980
0.15950000 0.15949700 9193.71668364 0 187.76780597 0 2907.31568926 0 -51.60002318 0 -9.77620955 0 27777
0.16050000 0.16050000 9025.90452869 0 252.22977383 0 2874.56375244 0 0.44597553 0 -43.63902164 0 28224
0.16150000 0.16150500 8925.73320606 0 133.89430233 0 2697.09653025 0 115.35480166 0 -183.01777862 0 28075
0.16250000 0.16249700 8787.16306095 0 -30.87595282 0 2598.61927331 0 312.53519096 0 -11.92600106 0 28590
0.16350000 0.16349900 8803.29543821 0 -80.70484692 0 2471.56434602 0 254.10985459 0 -551.17700777 0 29163
0.16450000 0.16449100 8956.19317163 0 -3.74967602 0 2298.85822350 0 241.58816245 0 -524.19153773 0 28996
0.16550000 0.16550500 8756.51486585 0 148.60167139 0 2155.80378684 0 27.42714509 0 -565.34183292 0 30777
0.16650000 0.16650700 8696.90146903 0 251.35727464 0 2117.41603669 0 -192.87657664 0 -277.06610563 0 29211
0.16750000 0.16749900 8481.41188341 0 199.50447028 0 2278.15297609 0 98.79016084 0 85.77220710 0 30922
0.16850000 0.16850800 8391.50460588 0 115.13667686 0 2279.71417389 0 92.55788137 0 329.37951871 0 30867
0.16950000 0.16949900 8355.87386461 0 8.74078109 0 2263.71466452 0 365.42104322 0 142.07121421 0 30852
0.17050000 0.17049200 8329.93140756 0 65.49601228 0 2499.49982154 0 -15.21913191 0 464.91363235 0 31257
0.17150000 0.17149500 8282.46435107 0 168.14986086 0 2606.14845419 0 149.79083908 0 466.96090520 0 32608
0.17250000 0.17250900 8104.62066983 0 72.89919010 0 2293.05632529 0 110.88822583 0 939.47125961 0 32361
0.17350000 0.17350400 8161.98638471 0 33.91187356 0 2318.66661260 0 385.58374672 0 932.12809379 0 32508
0.17450000 0.17449800 8054.79520815 0 33.75951837 0 2185.11223064 0 205.16796442 0 610.51802541 0 32791
0.17550000 0.17549800 8053.80977124 0 26.31382282 0 2065.16573587 0 279.09234108 0 449.84862720 0 33633
0.17650000 0.17650100 8010.40625795 0 64.07432577 0 1586.02195167 0 -86.86615279 0 329.58324948 0 33984
0.17750000 0.17750300 7973.12574028 0 139.87114327 0 1737.02631755 0 -192.69277605 0 144.54920051 0 34069
0.17850000 0.17849800 7834.04626824 0 221.83734944 0 1640.76352558 0 -298.91180250 0 -43.42056467 0 34536
