### header ###
fiducial parameters:
Omega_m = 0.31
Omega_nu = 0
Omega_de = 0.69
Omega_k = 0
H_0 = 100
w_de = -1
zeff = 0
beta = 0
fgrowth = 0
b_1 = 2
gamma = 0.55
Lx = 3500 Ly = 3500 Lz = 3500
nx = 700 ny = 700 nz = 700
xoffset = -685.467585 yoffset = -31.7331281 zoffset = 572.489161
bins = 400 dk = 0.001
kx_ny = 0.628318531 ky_ny = 0.628318531 kz_ny = 0.628318531
############################
A(data) = 8.0657623 (not used)
A(ran) = 8.06220946 (used)
Ngal = 478598
weighted Ngal = 0
Nran = 23820508
weighted Nran = 0
SN(data) = 3491.3859
SN(ran) = 70.2247683
SN(data+ran) = 3561.61067
############################
13 columns: k_central k_mean P_0(k) sigma^{lin}_{P_0(k)} P^img_1(k) sigma^{lin}_{P_1(k)} P_2(k) sigma^{lin}_{P_2(k)} P^img_3(k) sigma^{lin}_{P_3(k)} P_4(k) sigma^{lin}_{P_4(k)} N_modes
### header ###
0.00050000 0 0 0 0 0 0 0 0 0 0 0 0
0.00150000 0.00179520 22026.72937797 0 -25406.00291262 0 -17893.09835343 0 15560.27023739 0 -54876.10264993 0 3
0.00250000 0.00253879 30554.41250680 0 -12401.22524338 0 -8919.66557205 0 27260.39587325 0 23486.61540531 0 6
0.00350000 0.00331552 55649.28309202 0 -28417.12164706 0 -945.32187604 0 -17363.95195035 0 470.67788465 0 7
0.00450000 0.00420575 66535.59285371 0 -26212.17888267 0 -4315.32787482 0 -19975.58120532 0 -10317.92303945 0 24
0.00550000 0.00557378 106271.61999313 0 -9098.45040090 0 3298.01374281 0 -38065.32404753 0 -35266.01888688 0 45
0.00650000 0.00659388 93512.31576511 0 2217.50985305 0 2098.79238635 0 -47867.21031648 0 18393.12454224 0 40
0.00750000 0.00754703 105298.25191832 0 17979.35176377 0 2393.75911952 0 -6426.85343471 0 -19695.22994091 0 57
0.00850000 0.00846663 86492.35110684 0 -8715.80192749 0 16349.06265747 0 -16908.21506081 0 -14970.00460131 0 75
0.00950000 0.00948925 98027.72054940 0 1656.28692497 0 23387.62882143 0 23649.71074989 0 -25652.91575608 0 112
0.01050000 0.01054430 89557.05989339 0 5018.73052590 0 20.73060303 0 -3285.20306299 0 -9050.65117466 0 105
0.01150000 0.01145670 89571.78608540 0 8981.41592757 0 18042.02112224 0 7331.65060191 0 -23655.24691230 0 144
0.01250000 0.01249090 78595.67976943 0 10252.96170974 0 25463.57900168 0 4366.53737711 0 10006.55819323 0 169
0.01350000 0.01339930 74678.40197184 0 13980.24948577 0 39835.01372329 0 15280.47258922 0 26846.06947854 0 180
0.01450000 0.01448870 69920.62399727 0 4642.81402598 0 50973.88321410 0 5556.09259400 0 12599.19841114 0 267
0.01550000 0.01550050 74679.95209732 0 4206.96303182 0 53746.50407194 0 -4665.40156861 0 10939.45692082 0 238
0.01650000 0.01653350 73046.23057033 0 5141.01328120 0 69065.72979802 0 -12199.26603869 0 17135.30844284 0 315
0.01750000 0.01747870 70439.80530802 0 4404.58188518 0 60111.31927069 0 12560.99889051 0 7879.21028117 0 297
0.01850000 0.01844180 68946.03796673 0 -7921.86087637 0 58076.11524577 0 7360.58258667 0 4920.14254571 0 388
0.01950000 0.01947590 78301.70954550 0 -7335.14945656 0 53737.31404234 0 28337.62235486 0 -18651.10971051 0 399
0.02050000 0.02045430 82598.76808436 0 -4060.13293240 0 32868.63911714 0 29963.81470097 0 -31235.24975990 0 462
0.02150000 0.02154770 74814.14867412 0 6843.90362133 0 20890.04451209 0 8105.67254069 0 -29494.79102165 0 571
0.02250000 0.02255340 75743.89178914 0 -333.28029874 0 8340.08472942 0 12869.47385996 0 -14338.54991690 0 510
0.02350000 0.02348930 70369.82821516 0 -3014.27434700 0 12013.36170498 0 -327.44075463 0 -22232.23172661 0 555
0.02450000 0.02439640 75397.43874556 0 1080.67661802 0 7795.16026347 0 2087.81971245 0 -13585.85327573 0 592
0.02550000 0.02547300 75070.14082393 0 256.24902774 0 7836.38252877 0 -7005.92495040 0 -9452.48798698 0 837
0.02650000 0.02652900 72767.09726165 0 2329.79429904 0 1941.97504994 0 -1273.02947370 0 -6882.25815450 0 723
0.02750000 0.02749970 77145.75883443 0 -2929.42712192 0 21300.05270013 0 590.10287291 0 -1395.30115667 0 826
0.02850000 0.02848090 72170.52040042 0 1642.93370124 0 10826.20918258 0 3013.10068057 0 -9362.20425041 0 831
0.02950000 0.02946900 73035.60113850 0 7020.87258891 0 14855.29531619 0 -5474.74422355 0 -15056.92235113 0 996
0.03050000 0.03053250 63266.59967426 0 8962.60404770 0 16223.83466377 0 -6770.39445686 0 -6790.63466663 0 1041
0.03150000 0.03150510 59628.12301560 0 8536.87315842 0 20742.67186876 0 -6407.51008325 0 -5856.90551467 0 1036
0.03250000 0.03246190 52808.67815980 0 4468.22560824 0 25910.23658487 0 -5932.72879503 0 -7070.46553177 0 1059
0.03350000 0.03345080 50409.08392510 0 2914.53484504 0 23926.18670061 0 341.50592885 0 -10182.67459179 0 1302
0.03450000 0.03451200 49377.47542175 0 -725.87614876 0 25835.38766909 0 1555.51769680 0 -10455.75133880 0 1339
0.03550000 0.03553350 48448.50736946 0 858.81823116 0 26067.57432054 0 4052.59267920 0 -10467.86446215 0 1365
0.03650000 0.03647120 51709.19630530 0 122.82087028 0 22631.94265256 0 6024.28584895 0 -9086.29298825 0 1308
0.03750000 0.03744890 48257.06687335 0 776.80662846 0 20236.33445480 0 1321.93593242 0 -6441.50212044 0 1579
0.03850000 0.03847530 50766.16640050 0 560.99815989 0 20873.54674811 0 6749.04701461 0 -2999.74745684 0 1662
0.03950000 0.03950240 49258.66937644 0 -1126.45403775 0 20514.58197749 0 6310.78225364 0 3811.65889114 0 1683
0.04050000 0.04050350 49250.80802582 0 80.37987419 0 18555.88771707 0 7380.14738462 0 -535.07341856 0 1822
0.04150000 0.04152450 47926.77942401 0 1234.84102540 0 14223.84063178 0 1428.67314367 0 -2498.95727762 0 1887
0.04250000 0.04250150 47942.39140200 0 2023.03553994 0 17233.29851749 0 -492.38407022 0 977.12159292 0 1920
0.04350000 0.04349210 44191.97353943 0 2677.57602159 0 18491.00389364 0 -2247.57121494 0 2119.04366844 0 2005
0.04450000 0.04448520 45063.14405616 0 2090.14490067 0 18433.75997432 0 -1288.06569080 0 4385.58177579 0 2151
0.04550000 0.04548030 43225.35958276 0 -210.44946336 0 16655.32316195 0 1264.33769872 0 794.11820832 0 2274
0.04650000 0.04648670 42730.42666337 0 619.31720194 0 16476.61583938 0 1979.90883477 0 -753.29122501 0 2311
0.04750000 0.04749250 42046.82132906 0 680.19948719 0 14758.30175077 0 2764.99202604 0 -3310.47010823 0 2568
0.04850000 0.04851840 40489.38812007 0 1415.76281294 0 16518.24778070 0 1369.95660516 0 -4052.95806592 0 2493
0.04950000 0.04949480 38362.83741540 0 3784.56491231 0 14956.27491853 0 -1308.61592567 0 -3801.50556929 0 2644
0.05050000 0.05050630 37206.33308810 0 2202.81687802 0 15155.46604202 0 -271.41921998 0 -1922.87528963 0 2829
0.05150000 0.05149060 35500.97361953 0 -17.21436484 0 18351.93549391 0 -978.12806725 0 1854.93550454 0 2784
0.05250000 0.05249300 37232.57449792 0 -228.43313333 0 17862.42801368 0 54.47495232 0 -1417.73368675 0 3055
0.05350000 0.05348950 37149.53206178 0 -566.26637204 0 20216.84716312 0 2521.45624165 0 1364.38722578 0 3009
0.05450000 0.05448610 37269.00244657 0 167.15002993 0 17605.10718490 0 2065.55326724 0 -38.01749160 0 3336
0.05550000 0.05550870 37479.04444838 0 228.70772699 0 17040.41861914 0 2711.50162484 0 175.78201436 0 3349
0.05650000 0.05647670 36890.88255401 0 753.08749424 0 16266.68456082 0 2842.62009534 0 914.56406493 0 3324
0.05750000 0.05747970 35849.86257456 0 1332.16676056 0 13919.13025277 0 1818.72900239 0 999.90733017 0 3639
0.05850000 0.05849280 34496.49231198 0 913.14791458 0 12474.63475693 0 3520.25744657 0 1510.65263663 0 3846
0.05950000 0.05951020 33777.89843125 0 330.92521525 0 11355.22271776 0 2467.43436886 0 -746.97224924 0 3787
0.06050000 0.06049470 33355.48923942 0 662.93108940 0 10324.37820482 0 807.57661914 0 -960.40016798 0 3930
0.06150000 0.06148310 32312.80841125 0 1586.66414651 0 11390.21126419 0 -996.99752320 0 -606.51205829 0 4083
0.06250000 0.06249100 31353.05929597 0 648.24254330 0 11270.40870965 0 -656.61543533 0 -1247.92851334 0 4303
0.06350000 0.06350600 30649.19160725 0 958.03401217 0 11436.16141219 0 274.11090214 0 261.94130993 0 4470
0.06450000 0.06451750 31074.92249652 0 -405.67337287 0 12280.86907260 0 1138.81075225 0 1667.84643208 0 4479
0.06550000 0.06550280 30402.72165678 0 -365.40554197 0 9996.55988392 0 2486.54520150 0 15.37779832 0 4636
0.06650000 0.06648880 31581.25991048 0 -221.89935446 0 12900.80853920 0 709.52453947 0 762.31738421 0 4653
0.06750000 0.06749660 31583.25292895 0 865.89676842 0 11758.03389467 0 -434.29311806 0 1360.94373276 0 5220
0.06850000 0.06852730 30990.32993491 0 796.59508738 0 13063.79316053 0 -154.97157986 0 2419.71264889 0 5029
0.06950000 0.06949320 30439.81394493 0 53.89232659 0 12876.89231759 0 -948.40219681 0 3686.34231885 0 5040
0.07050000 0.07048030 30136.21079840 0 194.19307606 0 12136.59668021 0 2544.61954517 0 2280.77711707 0 5475
0.07150000 0.07148790 30554.74467654 0 183.84266682 0 12179.33585401 0 1171.51839976 0 2409.07214474 0 5509
0.07250000 0.07249820 29294.71411218 0 691.80439083 0 9941.80723769 0 2221.03085235 0 2307.48356453 0 5916
0.07350000 0.07351270 28293.99739507 0 772.67886577 0 9831.20578507 0 603.86355819 0 230.71513948 0 5721
0.07450000 0.07449140 28111.30403556 0 1071.21753093 0 9229.25884631 0 447.44593271 0 936.66885420 0 6028
0.07550000 0.07549160 26662.26888655 0 1141.10272348 0 10146.63417451 0 -158.08622483 0 1365.25086711 0 6183
0.07650000 0.07648840 26043.76882218 0 43.91383674 0 8846.38892640 0 1339.79559236 0 2434.21739440 0 6330
0.07750000 0.07749960 25997.70795093 0 90.72109340 0 8670.12858762 0 1153.88018633 0 1300.37811600 0 6583
0.07850000 0.07848650 26239.08463198 0 261.36001288 0 8006.59737821 0 541.57287323 0 1166.46941964 0 6549
0.07950000 0.07947320 25739.39061291 0 34.73100415 0 8683.19393090 0 887.38150750 0 1655.23505411 0 6828
0.08050000 0.08048110 25376.99342160 0 530.17059313 0 8456.62094814 0 -19.95554030 0 2827.56173359 0 7147
0.08150000 0.08149960 25898.94281355 0 815.39146599 0 7606.18889579 0 349.54443666 0 224.78258784 0 7386
0.08250000 0.08250610 24599.49477283 0 372.99340617 0 8629.34921531 0 -930.48717525 0 994.44867403 0 7227
0.08350000 0.08350160 24374.39440927 0 774.56558992 0 9169.19148417 0 138.92113780 0 1498.08554796 0 7798
0.08450000 0.08449610 23471.99993655 0 1048.05090571 0 8934.05959432 0 -216.71529198 0 1608.72021755 0 7371
0.08550000 0.08548940 22885.27744441 0 925.18463889 0 9000.40496463 0 1288.07676313 0 1863.29510978 0 8256
0.08650000 0.08650700 22139.55636788 0 256.08072841 0 8776.94330514 0 899.89212731 0 1466.82837500 0 8037
0.08750000 0.08749060 21164.52744435 0 729.11037484 0 7897.01457948 0 1318.64745195 0 850.55274069 0 8155
0.08850000 0.08849210 21262.18534925 0 616.79492635 0 7840.24677013 0 851.64557915 0 1436.20232455 0 8718
0.08950000 0.08949900 20203.22820359 0 489.47315603 0 6724.31144096 0 23.55570671 0 1310.44285926 0 8571
0.09050000 0.09049190 20109.99922862 0 301.12294577 0 6900.97038344 0 105.18188178 0 1010.42050258 0 8932
0.09150000 0.09150830 19783.69781621 0 -50.03561441 0 6811.14061219 0 -397.58171789 0 1286.77022880 0 9285
0.09250000 0.09250820 19975.24903558 0 209.48063494 0 7236.07429408 0 -242.57027766 0 1083.91084410 0 9204
0.09350000 0.09350330 20464.97796230 0 -272.99149010 0 7638.26542079 0 -644.36169345 0 471.96227432 0 9349
0.09450000 0.09448040 20129.92941329 0 162.35903498 0 7513.03742709 0 221.56829195 0 1301.40784221 0 9564
0.09550000 0.09549270 19764.32124778 0 696.13809877 0 8053.73226496 0 -353.69323677 0 77.31350456 0 10155
0.09650000 0.09649430 19535.01340079 0 640.15753171 0 7624.62431662 0 587.46987407 0 -397.04249567 0 9913
0.09750000 0.09749140 18792.28185195 0 238.70825077 0 7343.98517176 0 519.43486698 0 -1234.09917964 0 10476
0.09850000 0.09850240 18273.65415745 0 283.43047794 0 6302.52229932 0 537.46282625 0 -881.05699556 0 10575
0.09950000 0.09950330 18351.16043118 0 51.30727091 0 6027.81792057 0 1042.73286810 0 -1853.07535397 0 10882
0.10050000 0.10051200 18065.49445086 0 408.43923961 0 4973.67723621 0 928.63809700 0 -1919.56466451 0 10875
0.10150000 0.10150300 17390.08263692 0 475.20092933 0 5117.62853118 0 576.77068659 0 -2169.83242239 0 11118
0.10250000 0.10250800 17404.80882893 0 266.19197543 0 5515.83362096 0 -384.73560664 0 -1725.51109974 0 11575
0.10350000 0.10349800 16754.53119233 0 349.60090552 0 5595.85331242 0 -25.20659034 0 -1390.36289980 0 11364
0.10450000 0.10450100 16790.51624799 0 384.16648914 0 6046.55229416 0 -573.01384678 0 -411.70114650 0 12093
0.10550000 0.10551000 16576.15603950 0 601.15858924 0 6811.59457751 0 -308.02100413 0 718.76218007 0 12067
0.10650000 0.10649700 16156.07203588 0 536.44306514 0 6683.90852770 0 -152.62978316 0 168.93931762 0 12054
0.10750000 0.10749900 16083.65903157 0 -37.80833539 0 6775.87525764 0 445.48280952 0 1091.36694763 0 12807
0.10850000 0.10850100 16144.33537157 0 4.34475811 0 6688.40389158 0 297.59308862 0 58.85184232 0 12736
0.10950000 0.10950300 15763.00450482 0 114.90083634 0 6476.96677684 0 1177.32029797 0 121.02826090 0 12933
0.11050000 0.11050200 15764.99752329 0 148.91391095 0 6033.50909553 0 710.51994147 0 -1.96542623 0 13428
0.11150000 0.11150900 15630.91166973 0 -6.65407968 0 5706.13366761 0 690.22658454 0 -271.02393798 0 13453
0.11250000 0.11250000 15704.87479952 0 165.80584969 0 4949.37348323 0 602.65778202 0 669.67856415 0 13668
0.11350000 0.11349100 15247.25561477 0 173.83107072 0 4937.55931265 0 47.06834208 0 -167.60842417 0 13791
0.11450000 0.11448600 15491.73254676 0 147.64723699 0 4866.06531130 0 59.28687396 0 1118.03907089 0 14205
0.11550000 0.11549300 15285.23368889 0 319.06343367 0 4715.51491074 0 80.50465929 0 -197.95102311 0 14776
0.11650000 0.11649800 14920.95420236 0 362.29864762 0 4896.96816987 0 -371.11553988 0 193.76236263 0 14553
0.11750000 0.11747300 14820.63893950 0 220.16210669 0 4655.59148882 0 -2.10324346 0 -101.82275988 0 14568
0.11850000 0.11849100 14279.64514886 0 306.39226515 0 4731.59192638 0 220.36915917 0 236.37531193 0 16015
0.11950000 0.11950300 14460.23476666 0 40.51740110 0 4781.97100430 0 760.17710382 0 -487.61079099 0 15270
0.12050000 0.12050700 13837.63794210 0 198.66740252 0 4744.83442686 0 419.80055210 0 -262.34877149 0 15999
0.12150000 0.12150000 13774.08279764 0 546.29854146 0 4125.75860160 0 463.18081351 0 -42.18721841 0 15670
0.12250000 0.12250700 13458.41081706 0 173.66055692 0 4094.40177771 0 288.94006677 0 341.27894619 0 16887
0.12350000 0.12352200 13261.43415854 0 64.58143825 0 4458.06121406 0 438.98335485 0 1331.64636129 0 16407
0.12450000 0.12449800 13203.19372999 0 27.69952428 0 4331.29416721 0 240.60272554 0 1251.36093403 0 16306
0.12550000 0.12549900 13382.23322231 0 186.28743614 0 4669.54261809 0 113.24663101 0 1890.46659489 0 17523
0.12650000 0.12650100 13141.63160400 0 372.75978011 0 4700.26831946 0 1.36729925 0 1264.34877104 0 17154
0.12750000 0.12750600 12830.05638361 0 156.24932614 0 4458.09443103 0 -356.35613089 0 1666.18558336 0 18007
0.12850000 0.12850300 12792.52120247 0 235.19278764 0 4712.82433581 0 -169.03896854 0 1398.72250504 0 17496
0.12950000 0.12949900 12694.86329757 0 13.91104746 0 4523.32149654 0 -150.22265974 0 380.99094638 0 18405
0.13050000 0.13049000 12675.04383615 0 -48.54384009 0 4326.90952658 0 488.13561919 0 676.75267247 0 18100
0.13150000 0.13148800 12624.44331172 0 137.96227447 0 3806.13380106 0 203.12069157 0 -155.82082717 0 19059
0.13250000 0.13249300 12448.17190061 0 128.93611528 0 3665.16096147 0 376.09033542 0 -181.02365293 0 18957
0.13350000 0.13349100 12507.51956164 0 70.24615035 0 3581.78635558 0 354.26456873 0 -27.88830741 0 19468
0.13450000 0.13450700 12279.09750063 0 236.74955650 0 3591.77359257 0 -61.68071059 0 18.54293310 0 19953
0.13550000 0.13551000 12139.58620792 0 350.94176406 0 3905.92866465 0 -192.57983834 0 -149.88495384 0 19956
0.13650000 0.13649900 11714.74110462 0 249.29782222 0 3997.38606765 0 -312.96590439 0 454.81345765 0 19723
0.13750000 0.13749600 11884.81201384 0 178.98413069 0 4514.96189130 0 -48.15796957 0 191.87785294 0 20946
0.13850000 0.13851100 11706.76903075 0 84.78898466 0 4214.21540458 0 -147.93954637 0 465.62779730 0 20955
0.13950000 0.13949800 11594.93855009 0 186.66389519 0 4347.67013561 0 386.17833056 0 226.70031450 0 20506
0.14050000 0.14048300 11540.01981899 0 138.95656924 0 3932.57975049 0 330.79345458 0 262.78945001 0 21447
0.14150000 0.14148400 11254.13239217 0 271.93629755 0 4255.31587430 0 -9.72032752 0 409.93068176 0 21771
0.14250000 0.14249400 11064.67384220 0 324.44015460 0 3944.18354690 0 228.40766699 0 226.75678336 0 22470
0.14350000 0.14350900 10820.48479065 0 151.60337865 0 4141.41486889 0 214.50193425 0 891.03094576 0 22519
0.14450000 0.14449900 10589.20606983 0 142.24283525 0 4156.53966460 0 491.33109213 0 1070.27306162 0 22218
0.14550000 0.14550500 10716.90319197 0 -56.19204845 0 4151.42425053 0 439.20923028 0 811.54051142 0 23559
0.14650000 0.14650700 10744.35148519 0 97.24546080 0 4196.31145534 0 544.91007193 0 1343.21694072 0 23044
0.14750000 0.14750500 10586.54871188 0 123.43206261 0 3988.63893105 0 330.09700535 0 1081.44725183 0 23649
0.14850000 0.14849900 10529.60374534 0 237.93983142 0 3835.06578581 0 -168.83523776 0 1444.39584492 0 23640
0.14950000 0.14949500 10214.79540609 0 296.85456455 0 3661.08634594 0 -58.14110979 0 1396.72948657 0 24457
0.15050000 0.15050000 10042.87541863 0 95.86252743 0 3531.05296326 0 172.30751883 0 1385.20319644 0 24591
0.15150000 0.15149900 9976.56326529 0 -15.14228998 0 3254.07875793 0 286.80089361 0 1025.26516846 0 25020
0.15250000 0.15250500 10065.56261219 0 -86.39580043 0 3099.11049976 0 279.66810197 0 566.02610259 0 25297
0.15350000 0.15350100 9997.66711640 0 89.78758570 0 2926.72547466 0 44.60563559 0 339.07001739 0 25452
0.15450000 0.15450400 9976.39718042 0 166.78575044 0 2851.74369099 0 40.70862015 0 461.03167526 0 26061
0.15550000 0.15549900 9810.67769486 0 120.26205602 0 2954.95990295 0 59.83152162 0 626.96264223 0 26128
0.15650000 0.15649500 9587.35997559 0 317.00176679 0 2862.36205049 0 -94.45888881 0 166.36943103 0 26331
0.15750000 0.15749700 9436.46633297 0 290.96740944 0 2905.90950400 0 108.93207820 0 410.71570959 0 27345
0.15850000 0.15849900 9253.70653951 0 143.18398286 0 2973.15173263 0 192.12476579 0 413.71298792 0 26980
0.15950000 0.15949700 9105.52561646 0 145.14821328 0 2843.78268945 0 121.29621116 0 224.22897160 0 27777
0.16050000 0.16050000 9066.73926262 0 23.75135469 0 2743.93246423 0 337.50439066 0 441.28307672 0 28224
0.16150000 0.16150500 8868.85467346 0 180.98379256 0 2719.76157915 0 164.75619330 0 348.61325415 0 28075
0.16250000 0.16249700 9044.61675763 0 -79.11596831 0 2240.15275731 0 53.59791347 0 262.90128049 0 28590
0.16350000 0.16349900 8988.41363685 0 -116.45096182 0 2492.16994251 0 272.11788367 0 86.06794890 0 29163
0.16450000 0.16449100 9150.64534010 0 -34.88690249 0 2240.98318167 0 -169.26041504 0 177.15166094 0 28996
0.16550000 0.16550500 9039.56777752 0 198.17911300 0 2309.49872765 0 22.01499271 0 131.46724873 0 30777
0.16650000 0.16650700 8909.73369669 0 218.83453495 0 1987.17227985 0 8.69651394 0 289.28995223 0 29211
0.16750000 0.16749900 8728.42437779 0 176.98003990 0 2083.52365042 0 383.52872323 0 356.42810100 0 30922
0.16850000 0.16850800 8521.53798855 0 93.22709268 0 1887.25562069 0 330.98389857 0 317.74029086 0 30867
0.16950000 0.16949900 8462.25676147 0 151.97319430 0 1697.29881610 0 470.76646324 0 5.08611669 0 30852
0.17050000 0.17049200 8303.73428704 0 60.64755196 0 1644.04093372 0 46.95961185 0 181.20081012 0 31257
0.17150000 0.17149500 8213.63877999 0 186.88866338 0 1824.84092569 0 -299.20632634 0 166.44693730 0 32608
0.17250000 0.17250900 8140.14068785 0 319.53954364 0 1870.11566187 0 -512.14927725 0 177.43843415 0 32361
0.17350000 0.17350400 7865.19271795 0 167.77783074 0 2116.80705883 0 -199.59858504 0 366.39097888 0 32508
0.17450000 0.17449800 7894.87762079 0 44.43268588 0 2165.29276921 0 108.53934284 0 476.10664550 0 32791
0.17550000 0.17549800 7956.42867446 0 -63.23559716 0 2308.61294166 0 205.43812915 0 317.31732805 0 33633
0.17650000 0.17650100 7956.32902353 0 -6.37938638 0 2223.44461916 0 275.07308717 0 313.77861304 0 33984
0.17750000 0.17750300 8077.70384820 0 25.26826319 0 2274.77591702 0 -75.36433249 0 588.43095186 0 34069
0.17850000 0.17849800 7993.08914193 0 27.34764579 0 2360.25426462 0 5.83990950 0 493.47026528 0 34536
