### header ###
fiducial parameters:
Omega_m = 0.31
Omega_nu = 0
Omega_de = 0.69
Omega_k = 0
H_0 = 100
w_de = -1
zeff = 0
beta = 0
fgrowth = 0
b_1 = 2
gamma = 0.55
Lx = 3500 Ly = 3500 Lz = 3500
nx = 700 ny = 700 nz = 700
xoffset = -685.467585 yoffset = -31.7331281 zoffset = 572.489161
bins = 400 dk = 0.001
kx_ny = 0.628318531 ky_ny = 0.628318531 kz_ny = 0.628318531
############################
A(data) = 8.07271178 (not used)
A(ran) = 8.06888778 (used)
Ngal = 478907
weighted Ngal = 0
Nran = 23820508
weighted Nran = 0
SN(data) = 3491.80398
SN(ran) = 70.2829389
SN(data+ran) = 3562.08692
############################
13 columns: k_central k_mean P_0(k) sigma^{lin}_{P_0(k)} P^img_1(k) sigma^{lin}_{P_1(k)} P_2(k) sigma^{lin}_{P_2(k)} P^img_3(k) sigma^{lin}_{P_3(k)} P_4(k) sigma^{lin}_{P_4(k)} N_modes
### header ###
0.00050000 0 0 0 0 0 0 0 0 0 0 0 0
0.00150000 0.00179520 18504.62285316 0 -29480.06482965 0 -5467.63579102 0 -36187.90065128 0 -55370.14978334 0 3
0.00250000 0.00253879 39444.38210369 0 -44305.02197583 0 -43046.65226019 0 29879.88647885 0 58051.09179168 0 6
0.00350000 0.00331552 38492.16216929 0 -12894.27586755 0 -1444.99375046 0 -53382.66747839 0 26479.35408054 0 7
0.00450000 0.00420575 48602.96630068 0 -2955.38065129 0 -26365.75202791 0 -32343.81092074 0 -1099.69222866 0 24
0.00550000 0.00557378 61748.47321837 0 -15993.41958429 0 -18549.02287569 0 -37486.68435251 0 2777.74734423 0 45
0.00650000 0.00659388 68446.45467092 0 -14258.82917820 0 -42391.94569366 0 -21125.22069124 0 23959.18222857 0 40
0.00750000 0.00754703 84376.31911075 0 -10838.21158268 0 3472.20355685 0 -23717.25193128 0 7827.93434494 0 57
0.00850000 0.00846663 92112.33101504 0 -4427.78947800 0 -11950.91379301 0 2631.57051197 0 26742.43251824 0 75
0.00950000 0.00948925 106279.81351349 0 -9952.90170716 0 13671.77451632 0 7829.34053019 0 -3308.44387279 0 112
0.01050000 0.01054430 103176.79448307 0 2315.46671072 0 4710.97525756 0 14512.71758630 0 17048.27996977 0 105
0.01150000 0.01145670 115636.03870850 0 5316.42105097 0 21193.31548887 0 -3221.45968901 0 7707.22385976 0 144
0.01250000 0.01249090 96082.53452526 0 12298.91696206 0 23354.85473997 0 -1744.66622167 0 12224.40021603 0 169
0.01350000 0.01339930 91988.65314682 0 16046.56674342 0 31375.64683860 0 6978.67595902 0 29878.22563012 0 180
0.01450000 0.01448870 80538.42988211 0 -2885.48106471 0 16452.92106427 0 17719.70574677 0 11543.56296293 0 267
0.01550000 0.01550050 83294.99586896 0 -81.12194140 0 20129.37579705 0 8245.87031754 0 15256.55636761 0 238
0.01650000 0.01653350 80485.72561597 0 8231.95240524 0 14472.08215421 0 145.84687698 0 15707.97505047 0 315
0.01750000 0.01747870 70014.96020472 0 8006.50879961 0 12535.86471317 0 -10410.35480704 0 11787.92917168 0 297
0.01850000 0.01844180 69126.29541478 0 5044.81692317 0 21353.64275225 0 -3832.15376438 0 17091.68348306 0 388
0.01950000 0.01947590 64186.59914344 0 5540.62455623 0 30199.43377311 0 -7057.26732058 0 12920.18510763 0 399
0.02050000 0.02045430 63074.38411540 0 -371.51303634 0 30653.28836743 0 -2085.23986077 0 7297.60320310 0 462
0.02150000 0.02154770 63916.43441786 0 -3509.58372544 0 34177.27718746 0 12830.94216959 0 6123.94784465 0 571
0.02250000 0.02255340 66542.78986485 0 2177.14015677 0 20858.04549337 0 17148.37378613 0 3574.42325958 0 510
0.02350000 0.02348930 67083.56220899 0 -1433.87713634 0 22478.92312357 0 18668.60398373 0 7986.13572195 0 555
0.02450000 0.02439640 60271.64653406 0 4865.85493713 0 13358.42772395 0 10338.18539387 0 22209.31201423 0 592
0.02550000 0.02547300 57677.40082905 0 6836.69553787 0 10048.77696776 0 7849.21535324 0 15592.26925611 0 837
0.02650000 0.02652900 55667.88459772 0 1902.22540384 0 13966.29835650 0 -7168.68812523 0 26592.18107045 0 723
0.02750000 0.02749970 56019.43091071 0 -5282.59509865 0 12373.65515458 0 -5235.17233145 0 16954.49737855 0 826
0.02850000 0.02848090 58342.73682740 0 1822.38286958 0 20577.25133597 0 -3608.70317722 0 14739.81096833 0 831
0.02950000 0.02946900 60753.07121718 0 2779.79572432 0 18903.55871638 0 -8272.24459526 0 718.97255424 0 996
0.03050000 0.03053250 55489.50944489 0 1735.21045628 0 21715.15415758 0 -9475.90595397 0 -3512.19679410 0 1041
0.03150000 0.03150510 57011.40049121 0 2755.46982669 0 27109.70153247 0 -5783.06418045 0 -13672.43885581 0 1036
0.03250000 0.03246190 54731.16591806 0 1253.49789272 0 27039.28154662 0 -2934.32108949 0 -18463.21235834 0 1059
0.03350000 0.03345080 55545.53540847 0 -597.55344028 0 27434.12064966 0 4944.92240866 0 -20851.29137523 0 1302
0.03450000 0.03451200 54711.78934963 0 -617.97191448 0 20427.66422767 0 9385.13503511 0 -22267.22027304 0 1339
0.03550000 0.03553350 54953.60892366 0 -775.85994469 0 20370.19886186 0 4302.37325478 0 -20679.33817079 0 1365
0.03650000 0.03647120 53574.66159075 0 2929.46033889 0 19057.90692435 0 1931.46741369 0 -20294.02126710 0 1308
0.03750000 0.03744890 52025.53262537 0 4130.12109758 0 17725.90624867 0 -2255.39934858 0 -9950.69831452 0 1579
0.03850000 0.03847530 48070.27675366 0 2546.07001972 0 14581.47672342 0 5784.80253545 0 1156.39360406 0 1662
0.03950000 0.03950240 47360.20856304 0 69.62831462 0 17252.78580917 0 7036.26312040 0 147.55090777 0 1683
0.04050000 0.04050350 45928.55696399 0 -590.33982066 0 11632.91662421 0 8164.15656038 0 4024.08144279 0 1822
0.04150000 0.04152450 45450.34325507 0 1022.19149110 0 12111.24105638 0 4378.10795654 0 -55.03022941 0 1887
0.04250000 0.04250150 44394.70780686 0 473.40499825 0 11123.03606632 0 617.22231809 0 5785.43365797 0 1920
0.04350000 0.04349210 45453.99712226 0 -478.85147483 0 12494.67566485 0 -3686.58590999 0 1490.68923498 0 2005
0.04450000 0.04448520 45318.25041998 0 1059.39782418 0 14019.44551563 0 -6393.80254513 0 5879.29375545 0 2151
0.04550000 0.04548030 45332.09082601 0 2210.41249285 0 17675.63789399 0 -4361.10086562 0 -1232.12830582 0 2274
0.04650000 0.04648670 41932.99782993 0 3065.04095630 0 17067.32436845 0 -3422.44452912 0 778.59370169 0 2311
0.04750000 0.04749250 41420.90280707 0 1674.20194653 0 17474.78592178 0 -1489.65950878 0 -7437.96706482 0 2568
0.04850000 0.04851840 40312.56309272 0 731.75555324 0 19927.63803886 0 -23.68359206 0 -8173.33551765 0 2493
0.04950000 0.04949480 39583.67194991 0 254.95135127 0 17198.64214080 0 3394.47583663 0 -9399.89444409 0 2644
0.05050000 0.05050630 37976.85617223 0 257.70060953 0 15149.48698662 0 5181.09509704 0 -8936.93839877 0 2829
0.05150000 0.05149060 38559.26045769 0 1659.27645267 0 15195.76930436 0 2284.08774219 0 -8539.81839683 0 2784
0.05250000 0.05249300 36625.36820486 0 1875.79576450 0 13914.36915310 0 2519.27499366 0 -3955.14514847 0 3055
0.05350000 0.05348950 36024.25169046 0 1152.64008595 0 14603.84281955 0 2043.02108624 0 2285.87038648 0 3009
0.05450000 0.05448610 35116.76394832 0 -765.52060778 0 13503.14300933 0 3583.83473568 0 1296.94569531 0 3336
0.05550000 0.05550870 36205.06275475 0 -769.76241541 0 14024.64950829 0 2775.54395159 0 43.88958835 0 3349
0.05650000 0.05647670 36574.87840369 0 -60.28426898 0 12138.58969868 0 1674.36803140 0 -548.82967491 0 3324
0.05750000 0.05747970 36032.88810382 0 525.09503943 0 10812.10304076 0 597.12272684 0 -526.59644668 0 3639
0.05850000 0.05849280 34492.17410530 0 1202.60948785 0 9309.14566988 0 -1146.08526965 0 3555.86604318 0 3846
0.05950000 0.05951020 34088.25569592 0 863.80188456 0 11251.91792720 0 1043.89546220 0 -296.53568160 0 3787
0.06050000 0.06049470 32642.87441409 0 1677.61222257 0 10488.60292653 0 -845.51261843 0 2094.48525199 0 3930
0.06150000 0.06148310 31391.70170959 0 2357.12079669 0 9645.39002997 0 1149.25195455 0 718.03251386 0 4083
0.06250000 0.06249100 30891.78624402 0 85.47746181 0 12025.20909254 0 -664.52328971 0 2327.49125548 0 4303
0.06350000 0.06350600 31510.50775489 0 -1021.79953080 0 12726.08725356 0 2037.55135778 0 2196.52779752 0 4470
0.06450000 0.06451750 31656.55171925 0 -232.81445226 0 14016.89888092 0 963.32879789 0 3270.63188353 0 4479
0.06550000 0.06550280 31841.45954372 0 894.92286793 0 12927.60356526 0 9.97930920 0 2876.81143438 0 4636
0.06650000 0.06648880 31231.81733920 0 1708.21612837 0 14630.30567587 0 -664.69380351 0 3691.93384288 0 4653
0.06750000 0.06749660 29894.50194761 0 968.27259093 0 12358.81823932 0 832.48713551 0 3601.31793656 0 5220
0.06850000 0.06852730 28871.19768787 0 619.31609471 0 13398.17737005 0 618.39487728 0 2465.70708619 0 5029
0.06950000 0.06949320 28787.49091224 0 227.74554196 0 12533.31807847 0 715.81029827 0 -146.68505196 0 5040
0.07050000 0.07048030 28101.11749673 0 415.44027059 0 10986.39250573 0 737.95162621 0 -1601.60071269 0 5475
0.07150000 0.07148790 27633.86538938 0 224.82687714 0 10700.07325824 0 -69.45636142 0 -630.94867916 0 5509
0.07250000 0.07249820 27521.59201572 0 -82.42006076 0 9248.56898079 0 660.41213551 0 -3534.90613230 0 5916
0.07350000 0.07351270 27755.99313213 0 135.91167992 0 9704.64911240 0 961.67569980 0 -4350.40499984 0 5721
0.07450000 0.07449140 26946.38474139 0 878.61001178 0 9009.32925844 0 -288.87806175 0 -4393.75315151 0 6028
0.07550000 0.07549160 26490.86929836 0 845.92450891 0 9351.45302301 0 179.67615099 0 -3575.25368394 0 6183
0.07650000 0.07648840 25853.76772829 0 -393.84148657 0 9041.73795318 0 539.62414406 0 -2547.26583080 0 6330
0.07750000 0.07749960 26537.37306259 0 -508.74564460 0 7931.11733992 0 2811.70616445 0 -2495.67986947 0 6583
0.07850000 0.07848650 26687.07089414 0 160.42580706 0 7880.53896015 0 1937.96686836 0 -2339.71510208 0 6549
0.07950000 0.07947320 26122.71449814 0 669.28106769 0 7195.32813875 0 -148.48651921 0 -1538.47738890 0 6828
0.08050000 0.08048110 25459.15007175 0 1294.05581853 0 7414.61553178 0 -415.85991170 0 -183.26579870 0 7147
0.08150000 0.08149960 24380.70563442 0 1618.91782871 0 7495.41028598 0 118.79940191 0 613.35143333 0 7386
0.08250000 0.08250610 23000.76179227 0 1093.77739275 0 8163.76902901 0 284.83555596 0 1855.42268684 0 7227
0.08350000 0.08350160 22683.65040946 0 -164.25240252 0 7275.34783021 0 2079.70369836 0 1727.62591378 0 7798
0.08450000 0.08449610 22620.42743475 0 167.26518211 0 7615.46750399 0 1499.74639669 0 2590.22645110 0 7371
0.08550000 0.08548940 22556.20795080 0 -140.83554276 0 5863.44925864 0 1009.32544966 0 1276.86049809 0 8256
0.08650000 0.08650700 22499.40692448 0 -115.60946513 0 6432.23458457 0 60.94617256 0 2252.67555668 0 8037
0.08750000 0.08749060 22653.64440921 0 553.56420101 0 6302.03511703 0 -757.20418461 0 1895.17233293 0 8155
0.08850000 0.08849210 22107.66807240 0 325.50863395 0 6439.14371526 0 -563.80277977 0 1261.39246031 0 8718
0.08950000 0.08949900 21865.51632861 0 512.61320766 0 6520.35921780 0 -517.25140453 0 1185.70204785 0 8571
0.09050000 0.09049190 21309.35345297 0 465.77838091 0 7210.15398168 0 -462.27288288 0 -240.20855078 0 8932
0.09150000 0.09150830 20965.11487436 0 638.20658808 0 6979.89391475 0 245.77350123 0 382.30080241 0 9285
0.09250000 0.09250820 20769.02400182 0 57.63189357 0 7546.38726945 0 211.46701001 0 -241.18070090 0 9204
0.09350000 0.09350330 20752.96913084 0 -35.31739447 0 5761.25170056 0 655.01105546 0 -498.69086644 0 9349
0.09450000 0.09448040 20300.88610849 0 254.25711651 0 6595.29671218 0 1154.98741881 0 135.30823821 0 9564
0.09550000 0.09549270 20632.05934382 0 535.86841148 0 6127.96709855 0 428.43142930 0 -176.54046861 0 10155
0.09650000 0.09649430 19401.70260997 0 1047.52386305 0 6368.09260690 0 -385.97681425 0 741.95205717 0 9913
0.09750000 0.09749140 19229.41723579 0 1168.17455767 0 7010.20994010 0 -619.92617981 0 874.43131639 0 10476
0.09850000 0.09850240 18042.35329198 0 582.67334295 0 7525.79274528 0 -43.53815276 0 2288.98170976 0 10575
0.09950000 0.09950330 17570.78297796 0 408.15246639 0 7374.41192036 0 788.80902857 0 1557.22283482 0 10882
0.10050000 0.10051200 17715.16609359 0 -101.66475781 0 7677.81576505 0 863.21062242 0 1802.09837051 0 10875
0.10150000 0.10150300 17612.19347278 0 -112.45938872 0 7194.74130553 0 180.68373255 0 1331.41384247 0 11118
0.10250000 0.10250800 17430.49662251 0 553.65499407 0 7063.84428153 0 122.68135899 0 983.03975054 0 11575
0.10350000 0.10349800 16969.00212406 0 408.82123481 0 7042.57434555 0 -228.58260972 0 1513.87468315 0 11364
0.10450000 0.10450100 16748.88430667 0 413.81485331 0 6866.31400676 0 715.80033318 0 763.19209787 0 12093
0.10550000 0.10551000 16484.80935975 0 139.16805065 0 6470.02442918 0 668.51707727 0 394.05961137 0 12067
0.10650000 0.10649700 15952.34125922 0 125.96983946 0 6121.43442691 0 737.64824451 0 -344.60950149 0 12054
0.10750000 0.10749900 15992.09090532 0 220.53745851 0 5693.09046898 0 290.57877084 0 -58.63648560 0 12807
0.10850000 0.10850100 15806.51874135 0 319.63808733 0 5018.87446612 0 271.71595828 0 -421.30195935 0 12736
0.10950000 0.10950300 15405.81130617 0 178.89665933 0 4953.53667737 0 296.31644956 0 82.69830828 0 12933
0.11050000 0.11050200 15463.05522548 0 51.12236309 0 4814.14718022 0 460.84344574 0 -326.26044480 0 13428
0.11150000 0.11150900 14961.14674145 0 279.98366322 0 4527.39611207 0 289.93214707 0 -278.94286469 0 13453
0.11250000 0.11250000 15220.57131195 0 94.00038384 0 4360.86834680 0 471.31675779 0 -503.66234028 0 13668
0.11350000 0.11349100 14685.44585347 0 36.21558146 0 3717.23410509 0 329.82905509 0 -200.52423140 0 13791
0.11450000 0.11448600 14812.99903538 0 245.75910721 0 4303.90123561 0 -92.15363079 0 -1022.00990497 0 14205
0.11550000 0.11549300 14709.36207508 0 241.05779809 0 4309.57026591 0 -617.27657248 0 -1307.13223414 0 14776
0.11650000 0.11649800 14353.60827865 0 390.10346971 0 4540.17357491 0 -477.27699024 0 -863.95246818 0 14553
0.11750000 0.11747300 14363.90554073 0 110.92033557 0 4749.10834424 0 -173.68048711 0 -674.35440692 0 14568
0.11850000 0.11849100 14263.81172437 0 -19.97491687 0 5065.62182151 0 63.22507846 0 -1404.75692207 0 16015
0.11950000 0.11950300 14293.04266189 0 220.85634146 0 4540.14035794 0 806.17043388 0 -782.55205781 0 15270
0.12050000 0.12050700 14073.81063048 0 101.73495635 0 4263.84156441 0 928.05015656 0 -352.86834858 0 15999
0.12150000 0.12150000 13873.95516751 0 103.17446929 0 3948.37995800 0 688.08741139 0 -368.84903499 0 15670
0.12250000 0.12250700 13874.50878375 0 193.59627776 0 3929.14732979 0 599.99820960 0 -1018.12794789 0 16887
0.12350000 0.12352200 13508.78989499 0 468.46120522 0 3846.56993130 0 -212.68496574 0 -245.93958610 0 16407
0.12450000 0.12449800 13245.15784106 0 368.74495513 0 4159.79492809 0 -482.76221995 0 -120.31852487 0 16306
0.12550000 0.12549900 13067.77919746 0 35.91297483 0 4037.91077649 0 -37.35536658 0 397.99914454 0 17523
0.12650000 0.12650100 13235.41419522 0 -69.88807136 0 4109.42692249 0 -79.87962656 0 1.76716519 0 17154
0.12750000 0.12750600 13241.39325062 0 135.54518596 0 4727.07441785 0 -340.88366419 0 -335.22459898 0 18007
0.12850000 0.12850300 13127.23758174 0 45.17807479 0 4490.42561950 0 6.75696373 0 2.88333303 0 17496
0.12950000 0.12949900 13119.59767761 0 149.52067435 0 4453.34440368 0 -45.52497072 0 -108.39163803 0 18405
0.13050000 0.13049000 13118.26899864 0 45.52253481 0 4365.24191510 0 410.27613830 0 -115.28615324 0 18100
0.13150000 0.13148800 12821.30924700 0 90.17323477 0 3995.94666543 0 782.06819722 0 -282.56572937 0 19059
0.13250000 0.13249300 12859.39804438 0 161.18647578 0 3540.19870357 0 1174.46363816 0 -10.76285334 0 18957
0.13350000 0.13349100 12327.37283684 0 190.31222622 0 3125.77265793 0 734.29111563 0 172.31748392 0 19468
0.13450000 0.13450700 12171.69594989 0 435.71037564 0 3330.58852242 0 781.67623692 0 368.38399734 0 19953
0.13550000 0.13551000 11910.38908417 0 210.04200181 0 2669.14998241 0 172.99621743 0 1327.89284318 0 19956
0.13650000 0.13649900 11785.05036722 0 6.53814137 0 2918.65374987 0 -112.70519433 0 1500.97542474 0 19723
0.13750000 0.13749600 11965.97215476 0 -49.81361430 0 2788.47642698 0 -120.79574207 0 1907.63977068 0 20946
0.13850000 0.13851100 11997.41755724 0 30.99741622 0 3184.77707689 0 -198.49245979 0 1351.85335408 0 20955
0.13950000 0.13949800 12040.93179378 0 120.05721801 0 3082.32485534 0 -289.47486006 0 1768.25027354 0 20506
0.14050000 0.14048300 12005.50035436 0 51.56215583 0 3227.42767209 0 -65.35428652 0 1119.82171518 0 21447
0.14150000 0.14148400 11908.83895870 0 135.04250242 0 3315.66302857 0 -126.62864279 0 796.21087771 0 21771
0.14250000 0.14249400 11757.92317142 0 274.82949602 0 3456.97911023 0 -55.04573067 0 225.99168571 0 22470
0.14350000 0.14350900 11378.36387663 0 519.52676728 0 3468.79328081 0 -259.52975759 0 410.66256243 0 22519
0.14450000 0.14449900 11206.41067220 0 350.41472140 0 3584.66516004 0 -210.89899975 0 664.28855642 0 22218
0.14550000 0.14550500 10818.48069985 0 177.38750145 0 3464.71866528 0 487.52774855 0 851.75076623 0 23559
0.14650000 0.14650700 10749.07936789 0 11.68816753 0 3162.06773868 0 392.84940626 0 660.71219551 0 23044
0.14750000 0.14750500 10755.02520632 0 100.57136573 0 3149.12419097 0 414.19131235 0 372.60808926 0 23649
0.14850000 0.14849900 10555.13652637 0 123.28701516 0 2810.21140060 0 209.49170727 0 491.09746608 0 23640
0.14950000 0.14949500 10489.42227857 0 56.60847859 0 2534.03440265 0 260.63588284 0 -23.35396895 0 24457
0.15050000 0.15050000 10460.30206430 0 -37.08354101 0 2439.31066382 0 261.60803296 0 218.98844026 0 24591
0.15150000 0.15149900 10321.97551034 0 300.36449152 0 2375.85517029 0 -85.88603060 0 -432.64777059 0 25020
0.15250000 0.15250500 10088.83663895 0 410.41122066 0 2540.56707429 0 -229.66437585 0 -41.20720694 0 25297
0.15350000 0.15350100 9744.03337178 0 295.58013996 0 2407.33378975 0 63.23426849 0 339.17852617 0 25452
0.15450000 0.15450400 9551.33063063 0 199.48454010 0 2728.97375340 0 148.27835951 0 430.39233803 0 26061
0.15550000 0.15549900 9481.41997173 0 31.70216970 0 2839.26518092 0 336.44698364 0 792.18719487 0 26128
0.15650000 0.15649500 9449.40988068 0 114.05823242 0 2749.51291594 0 4.16600650 0 791.89931442 0 26331
0.15750000 0.15749700 9395.29942929 0 132.02529391 0 3092.03528421 0 227.43219517 0 1180.48698286 0 27345
0.15850000 0.15849900 9225.35031565 0 62.11330632 0 2936.60198840 0 -170.75960782 0 1134.72506439 0 26980
0.15950000 0.15949700 9330.96922209 0 127.64508221 0 3119.40607116 0 -107.00826176 0 1416.93647937 0 27777
0.16050000 0.16050000 9236.79909951 0 168.35691333 0 3315.60766694 0 -167.72025466 0 1456.90757196 0 28224
0.16150000 0.16150500 9237.39700505 0 10.76144715 0 3244.61192021 0 84.82751635 0 1485.07556630 0 28075
0.16250000 0.16249700 9111.69290138 0 41.05939140 0 3307.70202702 0 183.68986874 0 1614.25637996 0 28590
0.16350000 0.16349900 9130.63764915 0 73.53097695 0 3258.62948343 0 350.26413778 0 1283.70319482 0 29163
0.16450000 0.16449100 9029.22622614 0 131.31666512 0 3006.91125100 0 339.48301510 0 1284.30110036 0 28996
0.16550000 0.16550500 8871.40130817 0 185.70835356 0 3065.14060722 0 160.61625105 0 1360.44547814 0 30777
0.16650000 0.16650700 8716.83165370 0 288.10964241 0 2992.22934829 0 -176.44524661 0 1265.67745002 0 29211
0.16750000 0.16749900 8535.66627502 0 227.91605576 0 2725.29774156 0 -19.97425253 0 1242.79095462 0 30922
0.16850000 0.16850800 8319.60092851 0 68.78039599 0 2733.91201027 0 19.83850582 0 975.85381173 0 30867
0.16950000 0.16949900 8379.65721832 0 -102.95435148 0 2380.90415040 0 85.86598969 0 538.03415822 0 30852
0.17050000 0.17049200 8400.74999710 0 98.29677804 0 2259.58468737 0 413.25127197 0 435.90081962 0 31257
0.17150000 0.17149500 8270.28479377 0 138.00102761 0 2159.90054702 0 4.58041040 0 272.35372419 0 32608
0.17250000 0.17250900 8129.16801395 0 218.36728284 0 2113.29713186 0 -7.90399014 0 452.07637895 0 32361
0.17350000 0.17350400 7971.96314618 0 236.08853871 0 1995.87512716 0 152.34300995 0 530.67438391 0 32508
0.17450000 0.17449800 7913.13588442 0 -14.39247214 0 2111.39269199 0 256.48043933 0 799.72191191 0 32791
0.17550000 0.17549800 7862.26962420 0 -59.09421551 0 1974.28409376 0 227.45766152 0 629.17267826 0 33633
0.17650000 0.17650100 8101.16610449 0 13.40504221 0 1927.79140185 0 45.03280589 0 357.63387718 0 33984
0.17750000 0.17750300 7929.15753843 0 13.83874517 0 1898.64904293 0 -44.19474162 0 721.08293935 0 34069
0.17850000 0.17849800 7847.32198569 0 172.02628178 0 1680.00384473 0 -5.30749676 0 273.44656265 0 34536
