### header ###
fiducial parameters:
Omega_m = 0.31
Omega_nu = 0
Omega_de = 0.69
Omega_k = 0
H_0 = 100
w_de = -1
zeff = 0
beta = 0
fgrowth = 0
b_1 = 2
gamma = 0.55
Lx = 3500 Ly = 3500 Lz = 3500
nx = 700 ny = 700 nz = 700
xoffset = -685.467585 yoffset = -31.7331281 zoffset = 572.489161
bins = 400 dk = 0.001
kx_ny = 0.628318531 ky_ny = 0.628318531 kz_ny = 0.628318531
############################
A(data) = 8.07878167 (not used)
A(ran) = 8.0818304 (used)
Ngal = 479909
weighted Ngal = 0
Nran = 23820508
weighted Nran = 0
SN(data) = 3479.45843
SN(ran) = 70.3956738
SN(data+ran) = 3549.8541
############################
13 columns: k_central k_mean P_0(k) sigma^{lin}_{P_0(k)} P^img_1(k) sigma^{lin}_{P_1(k)} P_2(k) sigma^{lin}_{P_2(k)} P^img_3(k) sigma^{lin}_{P_3(k)} P_4(k) sigma^{lin}_{P_4(k)} N_modes
### header ###
0.00050000 0 0 0 0 0 0 0 0 0 0 0 0
0.00150000 0.00179520 54836.57445033 0 -27280.43678117 0 43375.05741431 0 49738.32248759 0 -120688.34052324 0 3
0.00250000 0.00253879 83124.26062026 0 1538.31130403 0 38891.76237199 0 17923.43652343 0 121839.86230438 0 6
0.00350000 0.00331552 61868.38649616 0 34020.38234478 0 39032.60234368 0 -54427.78421803 0 17413.00234929 0 7
0.00450000 0.00420575 32135.98338389 0 37052.31704987 0 -1156.38253173 0 26160.02823277 0 32087.59732444 0 24
0.00550000 0.00557378 22495.19944105 0 -17349.22575834 0 8888.61877326 0 33872.78825495 0 -22228.57785942 0 45
0.00650000 0.00659388 48056.54707088 0 -29332.13857007 0 12801.15761583 0 23777.26393180 0 -421.22888201 0 40
0.00750000 0.00754703 55776.83627393 0 -5558.90496450 0 3814.47126165 0 12487.70010021 0 6077.16727229 0 57
0.00850000 0.00846663 66235.42212788 0 -6962.83146221 0 -12404.98983382 0 -2585.62036398 0 35881.86159329 0 75
0.00950000 0.00948925 65312.76530074 0 -3727.90782622 0 -11019.54304624 0 11503.70259358 0 42119.23433338 0 112
0.01050000 0.01054430 85472.36854455 0 -11816.93866270 0 -15125.34931851 0 12723.20844911 0 31274.55651300 0 105
0.01150000 0.01145670 86554.68829557 0 -7938.36971268 0 -11874.62547501 0 19601.66879619 0 32914.47854189 0 144
0.01250000 0.01249090 93858.76880869 0 5353.54655609 0 -6068.68587148 0 3583.24790246 0 24061.15834015 0 169
0.01350000 0.01339930 85036.22966994 0 1085.72891983 0 12761.18652323 0 3528.40667763 0 38737.52488727 0 180
0.01450000 0.01448870 77901.22355681 0 6477.31001891 0 -4234.59955457 0 9821.57286248 0 23367.80936001 0 267
0.01550000 0.01550050 82888.42010162 0 5884.20986767 0 13374.92548793 0 -1581.00618853 0 21956.97373162 0 238
0.01650000 0.01653350 68896.21250505 0 5734.72241030 0 11822.80699485 0 -941.03135017 0 27455.49023656 0 315
0.01750000 0.01747870 67525.23724600 0 6564.02846689 0 14285.51348102 0 2586.70545181 0 30823.91289288 0 297
0.01850000 0.01844180 65583.92653555 0 -2308.74580956 0 12085.22109306 0 5232.75856464 0 19485.18793910 0 388
0.01950000 0.01947590 67100.83503570 0 1235.42785861 0 25326.94651342 0 -3947.54953364 0 12082.23156536 0 399
0.02050000 0.02045430 62811.52712421 0 5427.56504750 0 20593.30620695 0 -5459.58621088 0 14037.82557482 0 462
0.02150000 0.02154770 66164.00563280 0 2810.55464267 0 36610.64201285 0 -5210.34817921 0 17320.65916030 0 571
0.02250000 0.02255340 63484.39230344 0 -1238.38416934 0 29032.85363022 0 -1795.01208262 0 12620.78944453 0 510
0.02350000 0.02348930 69504.63675383 0 -3590.65528776 0 44356.95117923 0 5422.18389764 0 11296.20722648 0 555
0.02450000 0.02439640 73808.33868759 0 -8623.79090825 0 33252.51661861 0 6727.62206608 0 11635.13108918 0 592
0.02550000 0.02547300 75673.58252654 0 -3738.98015103 0 30498.27581997 0 5258.04775453 0 -3980.91044832 0 837
0.02650000 0.02652900 78254.09854878 0 2064.05850339 0 30136.76441464 0 5466.03030392 0 1244.36322474 0 723
0.02750000 0.02749970 76324.08160964 0 -263.65641305 0 26067.90649028 0 1804.68929452 0 -12472.97390821 0 826
0.02850000 0.02848090 74539.99791161 0 6444.94561346 0 22986.58921650 0 4019.26498149 0 5718.93327510 0 831
0.02950000 0.02946900 67311.87354675 0 3938.52558892 0 19839.61305655 0 2383.81617183 0 -11123.25751281 0 996
0.03050000 0.03053250 64262.22312195 0 5971.91375256 0 18211.42769196 0 -765.09764497 0 -6523.34874550 0 1041
0.03150000 0.03150510 60801.78944638 0 5132.47651876 0 18722.96909859 0 -2133.40447373 0 -9465.80799373 0 1036
0.03250000 0.03246190 55355.53431458 0 2438.38058854 0 17785.91824918 0 400.40294625 0 -3445.12065035 0 1059
0.03350000 0.03345080 57811.48668261 0 620.19855900 0 21144.92942942 0 -688.73624962 0 -4038.05471671 0 1302
0.03450000 0.03451200 54630.29703896 0 918.70511441 0 21357.18589619 0 6971.99934716 0 -385.21393107 0 1339
0.03550000 0.03553350 54178.98907935 0 4605.65530389 0 21968.04605644 0 4504.17744693 0 4825.83955523 0 1365
0.03650000 0.03647120 50835.81132361 0 3769.71692473 0 17828.65742298 0 6274.26572638 0 2621.24003292 0 1308
0.03750000 0.03744890 49003.34156612 0 633.53074531 0 20302.32551072 0 6069.51629584 0 10690.14138288 0 1579
0.03850000 0.03847530 47047.74755665 0 744.22852715 0 21648.16659242 0 3001.08720815 0 7592.00524770 0 1662
0.03950000 0.03950240 44852.54843811 0 4171.25478428 0 22004.25255859 0 999.10901555 0 4425.59715769 0 1683
0.04050000 0.04050350 43115.07922757 0 3112.24227700 0 17999.06050194 0 -480.68726628 0 6896.95112953 0 1822
0.04150000 0.04152450 39668.48595802 0 1955.30612902 0 17148.81667912 0 -1420.73428678 0 2027.99594146 0 1887
0.04250000 0.04250150 40110.49316478 0 593.14776223 0 17463.60287371 0 4672.01174653 0 709.99289881 0 1920
0.04350000 0.04349210 39143.76848486 0 -77.16978578 0 14815.10277709 0 2145.66153731 0 -2150.26762443 0 2005
0.04450000 0.04448520 38404.91224972 0 783.43120040 0 12479.61730310 0 1117.29722512 0 -2872.98040999 0 2151
0.04550000 0.04548030 38599.67444328 0 238.38272442 0 12929.81803022 0 38.72512388 0 -2709.77434217 0 2274
0.04650000 0.04648670 38266.17601974 0 -365.73881894 0 13486.20235236 0 1363.57894607 0 -1958.80498367 0 2311
0.04750000 0.04749250 39221.16403535 0 -2208.23124486 0 11919.57911377 0 620.02583073 0 -3257.33402142 0 2568
0.04850000 0.04851840 40558.36870369 0 -955.54716801 0 13306.71996705 0 85.59161748 0 -3306.43978199 0 2493
0.04950000 0.04949480 40208.92613242 0 1906.20036845 0 11689.71765053 0 917.58680960 0 -1880.49043022 0 2644
0.05050000 0.05050630 38798.75484351 0 1783.41935854 0 10111.73420668 0 2406.64730561 0 -2933.12527841 0 2829
0.05150000 0.05149060 36909.59478296 0 1258.83475328 0 7553.17460456 0 2611.61818265 0 -3495.62152385 0 2784
0.05250000 0.05249300 35649.45349535 0 1107.28784349 0 5643.47538147 0 2203.85767655 0 -2323.43878459 0 3055
0.05350000 0.05348950 35288.05281327 0 -711.59949314 0 6759.27784274 0 1694.23178213 0 -2016.08211995 0 3009
0.05450000 0.05448610 35201.13506344 0 267.27263433 0 6881.41665781 0 -996.94659051 0 -1168.22991929 0 3336
0.05550000 0.05550870 35842.11194719 0 1354.31141019 0 8022.22042853 0 153.68940465 0 -44.90270607 0 3349
0.05650000 0.05647670 34992.42174061 0 866.37177115 0 9673.07084201 0 -3185.19782523 0 2562.72279625 0 3324
0.05750000 0.05747970 34940.60326046 0 721.09401167 0 12047.46446542 0 -1497.27726825 0 4930.15192735 0 3639
0.05850000 0.05849280 33916.41321473 0 1138.52287180 0 13078.51935254 0 -3.15253447 0 2689.33483055 0 3846
0.05950000 0.05951020 34095.45270705 0 501.16663827 0 12418.71951659 0 224.41498666 0 509.19628822 0 3787
0.06050000 0.06049470 32782.82859980 0 246.92945194 0 15057.91886037 0 -1834.00881064 0 -1539.76177858 0 3930
0.06150000 0.06148310 32839.51890287 0 631.53108345 0 12996.91631862 0 -481.42136142 0 -4826.81391982 0 4083
0.06250000 0.06249100 32583.96964606 0 356.25869443 0 13892.44594996 0 -479.86348532 0 -1928.21215019 0 4303
0.06350000 0.06350600 31850.42812682 0 693.47741911 0 12512.72355430 0 849.75996223 0 -2405.94974914 0 4470
0.06450000 0.06451750 31962.70150048 0 723.59524985 0 12736.60596214 0 3075.21642281 0 -692.31261054 0 4479
0.06550000 0.06550280 31402.22041816 0 25.44464533 0 12948.97315216 0 1471.52304072 0 -525.79813206 0 4636
0.06650000 0.06648880 31154.64323522 0 -83.73622801 0 12407.97936152 0 1750.45704755 0 2576.89537202 0 4653
0.06750000 0.06749660 31696.07991885 0 154.55968938 0 12596.09816019 0 2787.03702475 0 3761.66734459 0 5220
0.06850000 0.06852730 31081.56589141 0 -28.01021371 0 11473.47514683 0 1403.99293165 0 4398.00492424 0 5029
0.06950000 0.06949320 30826.79169734 0 701.39523859 0 12437.65319203 0 1556.62492928 0 5326.22005844 0 5040
0.07050000 0.07048030 30244.83030487 0 1031.20104180 0 10596.92348023 0 268.02665965 0 3944.80359709 0 5475
0.07150000 0.07148790 29166.27514429 0 1478.08892934 0 11589.18094118 0 402.68716686 0 5568.88112916 0 5509
0.07250000 0.07249820 28377.48272421 0 855.06028412 0 10884.17280300 0 43.14342438 0 4747.20390437 0 5916
0.07350000 0.07351270 27114.35190889 0 509.18964483 0 12065.51235488 0 -454.65401617 0 2701.34830298 0 5721
0.07450000 0.07449140 27117.34143659 0 1152.99440034 0 11472.03574460 0 -354.98759155 0 2226.99883542 0 6028
0.07550000 0.07549160 26628.94118884 0 -255.89028442 0 11144.18420672 0 1126.43189310 0 2944.90623202 0 6183
0.07650000 0.07648840 27067.95886790 0 -714.85918557 0 10024.63929966 0 1345.74143078 0 2162.59112195 0 6330
0.07750000 0.07749960 27369.67971921 0 -384.07458884 0 9756.13542280 0 1899.80056471 0 813.65311100 0 6583
0.07850000 0.07848650 27263.16395446 0 645.15225744 0 8965.53821378 0 -57.25178066 0 -2.81450746 0 6549
0.07950000 0.07947320 26411.70217590 0 1708.64794904 0 8897.21089732 0 -971.49906638 0 387.85578777 0 6828
0.08050000 0.08048110 25217.66266746 0 1234.34277078 0 9532.86199284 0 -1602.63043890 0 -142.26608713 0 7147
0.08150000 0.08149960 24169.44567688 0 625.63839218 0 10804.02024364 0 -20.93665900 0 392.02119637 0 7386
0.08250000 0.08250610 23677.39156194 0 641.57700376 0 9529.10847472 0 646.75442284 0 -224.15700149 0 7227
0.08350000 0.08350160 23417.41337520 0 397.45660062 0 10326.64803141 0 755.21338060 0 -1466.62907315 0 7798
0.08450000 0.08449610 23279.00931496 0 105.47762358 0 9840.75012907 0 1054.54925315 0 -943.65327669 0 7371
0.08550000 0.08548940 22227.58135018 0 757.66036439 0 9272.71772122 0 370.22864666 0 -396.65717877 0 8256
0.08650000 0.08650700 21729.76962634 0 647.59591953 0 9232.59161608 0 215.15298695 0 -197.29997041 0 8037
0.08750000 0.08749060 21562.24535183 0 558.21900636 0 10299.86407767 0 1357.46702277 0 563.13511858 0 8155
0.08850000 0.08849210 20528.64383001 0 640.39337223 0 8564.15536678 0 745.72550547 0 1487.55576706 0 8718
0.08950000 0.08949900 20622.09425148 0 214.65030340 0 9171.63846795 0 1531.10322057 0 2336.00587326 0 8571
0.09050000 0.09049190 20591.31318848 0 -93.05270356 0 8083.27322758 0 392.15738596 0 1053.23939712 0 8932
0.09150000 0.09150830 20463.53856008 0 -136.20177483 0 9072.10934016 0 342.31199409 0 1481.12274634 0 9285
0.09250000 0.09250820 20072.90694048 0 815.31838865 0 8004.62650439 0 14.11422462 0 736.52661801 0 9204
0.09350000 0.09350330 19529.36651513 0 981.23606882 0 7248.01026023 0 -15.42695945 0 186.58195998 0 9349
0.09450000 0.09448040 18701.15661869 0 414.15920261 0 7118.03223919 0 625.28518502 0 724.00049694 0 9564
0.09550000 0.09549270 18440.07119947 0 559.91860822 0 6705.88709246 0 1071.72464340 0 -348.07181746 0 10155
0.09650000 0.09649430 17942.25947562 0 213.75344509 0 6540.93159732 0 388.16470563 0 208.10434497 0 9913
0.09750000 0.09749140 17580.19445405 0 246.10677821 0 5658.42301997 0 1202.62056018 0 -379.70766394 0 10476
0.09850000 0.09850240 17579.30866807 0 -405.47849995 0 5143.67063915 0 291.42137476 0 72.82899156 0 10575
0.09950000 0.09950330 17910.81407314 0 -51.80109660 0 5668.44347393 0 478.46837239 0 96.39732072 0 10882
0.10050000 0.10051200 18078.00617790 0 272.08134500 0 6138.57438573 0 -162.93258140 0 395.40822053 0 10875
0.10150000 0.10150300 17701.87930381 0 399.75853695 0 6390.04902701 0 36.46747685 0 60.35679271 0 11118
0.10250000 0.10250800 17372.69908695 0 583.68424621 0 5942.22884972 0 -374.64428980 0 1019.22189358 0 11575
0.10350000 0.10349800 17001.99765202 0 80.24290953 0 6549.16940698 0 -32.26431163 0 663.07945855 0 11364
0.10450000 0.10450100 16802.25291230 0 355.57221030 0 6322.51891794 0 320.74089088 0 336.37944246 0 12093
0.10550000 0.10551000 16810.22498617 0 353.58251353 0 6541.83952795 0 278.38592675 0 -308.41517889 0 12067
0.10650000 0.10649700 16115.43660380 0 305.83311275 0 6278.94931978 0 -68.33805661 0 328.84804711 0 12054
0.10750000 0.10749900 16045.57023419 0 402.36717668 0 5924.29168352 0 73.70990572 0 420.69298148 0 12807
0.10850000 0.10850100 15692.80596547 0 114.72810807 0 5743.76849967 0 1003.98083847 0 379.18726467 0 12736
0.10950000 0.10950300 15791.90327259 0 -92.51226339 0 5757.85249684 0 1236.40222320 0 146.34623883 0 12933
0.11050000 0.11050200 15708.19649697 0 113.58433692 0 5474.74422355 0 88.01058829 0 -87.69890234 0 13428
0.11150000 0.11150900 15559.38445140 0 402.83775048 0 5143.80350705 0 -34.95256137 0 -170.81054051 0 13453
0.11250000 0.11250000 14878.76864480 0 530.92129675 0 4885.04327604 0 78.64705536 0 976.27788177 0 13668
0.11350000 0.11349100 14924.05445331 0 23.61450076 0 4759.39453400 0 387.91114939 0 275.30117706 0 13791
0.11450000 0.11448600 14710.58003081 0 -190.14503411 0 4231.51037594 0 1212.25348277 0 442.38698750 0 14205
0.11550000 0.11549300 14910.32477053 0 117.08983496 0 4341.14853630 0 512.43494323 0 -755.47247300 0 14776
0.11650000 0.11649800 14572.72958681 0 351.60610355 0 3581.89707883 0 563.39753268 0 -742.36616212 0 14553
0.11750000 0.11747300 14180.10494874 0 504.05651504 0 3497.96885671 0 -428.17012243 0 308.99093978 0 14568
0.11850000 0.11849100 13920.12676200 0 406.53922867 0 3748.77915850 0 -489.22292148 0 232.62511551 0 16015
0.11950000 0.11950300 13898.64645185 0 152.23671563 0 4652.23657440 0 -748.97744726 0 813.32537018 0 15270
0.12050000 0.12050700 13532.92756309 0 142.32144875 0 4682.35329791 0 221.95803778 0 682.19472012 0 15999
0.12150000 0.12150000 13769.32169797 0 112.27780259 0 4953.64740061 0 -73.67967827 0 543.31344269 0 15670
0.12250000 0.12250700 13655.16602909 0 -8.47119213 0 4811.04692927 0 274.01014398 0 -65.13737968 0 16887
0.12350000 0.12352200 13574.00588817 0 88.33500740 0 4476.92845555 0 457.05006726 0 188.60598096 0 16407
0.12450000 0.12449800 13451.87814542 0 130.21607603 0 4280.29503909 0 488.43346472 0 -259.10568755 0 16306
0.12550000 0.12549900 13337.05813705 0 124.21487598 0 4046.77970867 0 279.22631621 0 127.35498730 0 17523
0.12650000 0.12650100 13214.37677806 0 336.85001626 0 3636.81580993 0 691.54419120 0 -426.65432117 0 17154
0.12750000 0.12750600 12755.42891433 0 347.85369267 0 3552.12359739 0 88.84765604 0 -5.99605142 0 18007
0.12850000 0.12850300 12689.77002815 0 328.65317420 0 3670.77463015 0 150.91578728 0 324.46340649 0 17496
0.12950000 0.12949900 12338.44516166 0 75.82748784 0 3359.58694112 0 75.17410995 0 698.06136159 0 18405
0.13050000 0.13049000 12324.49403239 0 143.70548936 0 3851.71856234 0 -74.66367578 0 338.01593206 0 18100
0.13150000 0.13148800 12271.67904300 0 158.63651937 0 4012.22298291 0 -50.26016116 0 578.55333089 0 19059
0.13250000 0.13249300 12148.00117478 0 154.28509572 0 4097.41345006 0 88.67791730 0 898.34864523 0 18957
0.13350000 0.13349100 12285.07655603 0 -107.37021606 0 3860.23318012 0 338.82089008 0 587.88397901 0 19468
0.13450000 0.13450700 12241.23014975 0 82.29981531 0 4081.24785583 0 -120.07382650 0 575.13530422 0 19953
0.13550000 0.13551000 12012.47591900 0 108.27560006 0 4119.35879785 0 -149.83402114 0 296.93649975 0 19956
0.13650000 0.13649900 12031.96321068 0 249.32993196 0 4026.99346422 0 430.17864216 0 1331.01523877 0 19723
0.13750000 0.13749600 11888.79805077 0 76.54840691 0 3939.59960442 0 115.43009347 0 756.10691722 0 20946
0.13850000 0.13851100 11864.10676643 0 -11.80719502 0 3978.30845199 0 327.04990156 0 502.53628485 0 20955
0.13950000 0.13949800 11855.47035307 0 297.25316824 0 3994.86157759 0 -185.62088219 0 571.79921275 0 20506
0.14050000 0.14048300 11252.80371319 0 493.63967185 0 3866.53333295 0 133.08491539 0 970.97202372 0 21447
0.14150000 0.14148400 11105.87396285 0 319.36127921 0 3781.40929974 0 218.65516329 0 795.83552590 0 21771
0.14250000 0.14249400 10998.54991838 0 -89.56713571 0 3597.27653801 0 439.66098113 0 788.94632540 0 22470
0.14350000 0.14350900 10960.68256750 0 -104.34304246 0 3550.78384609 0 471.57695742 0 565.35954863 0 22519
0.14450000 0.14449900 11022.82045438 0 124.66994853 0 3178.46585174 0 33.46798406 0 789.96497928 0 22218
0.14550000 0.14550500 10976.38312409 0 160.51549290 0 3326.45854527 0 322.25226322 0 805.78290251 0 23559
0.14650000 0.14650700 10914.27845418 0 110.98344782 0 3132.46034212 0 179.84223587 0 1313.63168881 0 23044
0.14750000 0.14750500 10713.05002293 0 158.39514269 0 3282.13602902 0 -48.35793575 0 1032.80542167 0 23649
0.14850000 0.14849900 10597.27779463 0 250.20243116 0 3281.78171462 0 -146.99064813 0 916.71431041 0 23640
0.14950000 0.14949500 10307.51505412 0 387.15933854 0 3236.92772678 0 192.46357893 0 887.24753237 0 24457
0.15050000 0.15050000 9980.46072363 0 159.03290860 0 3122.89385348 0 116.85510167 0 931.09172418 0 24591
0.15150000 0.15149900 9832.31301756 0 174.37915080 0 2901.62451430 0 164.95217345 0 458.80503074 0 25020
0.15250000 0.15250500 9708.18118401 0 181.43443618 0 2998.69558598 0 184.00432277 0 260.37568320 0 25297
0.15350000 0.15350100 9512.24532402 0 308.12840568 0 2497.70610492 0 -146.03399927 0 320.85272136 0 25452
0.15450000 0.15450400 9314.36073487 0 174.80654254 0 2553.74314082 0 110.76864472 0 301.67988371 0 26061
0.15550000 0.15549900 9300.84142626 0 -39.69118422 0 2616.05818490 0 -141.74015170 0 -44.76662720 0 26128
0.15650000 0.15649500 9294.47483949 0 -104.23708031 0 2435.21390364 0 119.07178110 0 10.13988006 0 26331
0.15750000 0.15749700 9453.98275083 0 -31.04890253 0 2863.73501877 0 -89.30682535 0 1.99966186 0 27345
0.15850000 0.15849900 9339.49491220 0 92.52322499 0 2643.61720138 0 8.18096435 0 -167.02823435 0 26980
0.15950000 0.15949700 9382.02371183 0 192.04947398 0 3035.90966970 0 -128.21530693 0 48.52833883 0 27777
0.16050000 0.16050000 9204.30182617 0 162.88939934 0 2920.65784066 0 -98.92823273 0 -6.01050080 0 28224
0.16150000 0.16150500 9101.05239723 0 78.06221516 0 2924.28956320 0 245.59302234 0 138.92445950 0 28075
0.16250000 0.16249700 9159.08245161 0 111.65000177 0 2789.94904618 0 355.42494838 0 162.03572309 0 28590
0.16350000 0.16349900 8976.14550095 0 47.32167687 0 2781.71123651 0 181.96922946 0 201.24171804 0 29163
0.16450000 0.16449100 8884.96490607 0 160.52324352 0 2540.66672521 0 254.49517149 0 243.72622837 0 28996
0.16550000 0.16550500 8726.66387814 0 188.38342723 0 2652.23147008 0 32.98201972 0 82.36004876 0 30777
0.16650000 0.16650700 8677.39203270 0 210.54800705 0 2535.05305653 0 15.42618438 0 212.80233239 0 29211
0.16750000 0.16749900 8526.71983657 0 20.83534723 0 2346.57994347 0 58.04976311 0 75.74012720 0 30922
0.16850000 0.16850800 8335.32362975 0 57.14460056 0 2336.76986368 0 196.19827409 0 -57.32408294 0 30867
0.16950000 0.16949900 8463.39721093 0 128.61169616 0 2332.13055958 0 -157.62340165 0 -542.94805597 0 30852
0.17050000 0.17049200 8261.36049996 0 226.80660882 0 2259.35216854 0 38.41720253 0 -358.23510441 0 31257
0.17150000 0.17149500 8102.46156649 0 130.50727817 0 2203.66944703 0 -254.35898190 0 -412.67218939 0 32608
0.17250000 0.17250900 8150.50438388 0 96.38934865 0 2305.16944864 0 163.35665144 0 -366.47623578 0 32361
0.17350000 0.17350400 8124.82766262 0 -84.87457373 0 2289.71248320 0 63.04471028 0 -303.18793435 0 32508
0.17450000 0.17449800 8067.86055143 0 46.74801972 0 2071.80913077 0 403.01933661 0 -84.15653346 0 32791
0.17550000 0.17549800 8212.80835563 0 17.49338743 0 2052.69829813 0 282.05529520 0 79.81972528 0 33633
0.17650000 0.17650100 8013.97154654 0 104.94172306 0 1750.86672357 0 387.94879530 0 75.03692385 0 33984
0.17750000 0.17750300 7977.17821117 0 137.16395985 0 1862.42039612 0 337.63615132 0 74.51364578 0 34069
0.17850000 0.17849800 7728.20591529 0 179.84334310 0 1600.49348021 0 105.83459533 0 183.04545944 0 34536
