### header ###
fiducial parameters:
Omega_m = 0.31
Omega_nu = 0
Omega_de = 0.69
Omega_k = 0
H_0 = 100
w_de = -1
zeff = 0
beta = 0
fgrowth = 0
b_1 = 2
gamma = 0.55
Lx = 3500 Ly = 3500 Lz = 3500
nx = 700 ny = 700 nz = 700
xoffset = -685.467585 yoffset = -31.7331281 zoffset = 572.489161
bins = 400 dk = 0.001
kx_ny = 0.628318531 ky_ny = 0.628318531 kz_ny = 0.628318531
############################
A(data) = 7.99006139 (not used)
A(ran) = 7.99108804 (used)
Ngal = 475066
weighted Ngal = 0
Nran = 23820508
weighted Nran = 0
SN(data) = 3486.37049
SN(ran) = 69.605275
SN(data+ran) = 3555.97577
############################
13 columns: k_central k_mean P_0(k) sigma^{lin}_{P_0(k)} P^img_1(k) sigma^{lin}_{P_1(k)} P_2(k) sigma^{lin}_{P_2(k)} P^img_3(k) sigma^{lin}_{P_3(k)} P_4(k) sigma^{lin}_{P_4(k)} N_modes
### header ###
0.00050000 0 0 0 0 0 0 0 0 0 0 0 0
0.00150000 0.00179520 15188.12940023 0 -17259.31848081 0 12732.17703221 0 -3109.45205115 0 -31599.97213942 0 3
0.00250000 0.00253879 35118.42479705 0 -21877.58516267 0 13413.67862480 0 -22326.45721081 0 24448.57898556 0 6
0.00350000 0.00331552 50819.20283638 0 -27284.86571110 0 -30614.09233757 0 19713.16710712 0 -26441.81889941 0 7
0.00450000 0.00420575 60387.68449816 0 -14132.49395202 0 -8881.97537837 0 -12894.82948380 0 9289.38157007 0 24
0.00550000 0.00557378 91572.11228714 0 -14659.86878314 0 -19247.13295550 0 -13693.58699621 0 -7794.94988930 0 45
0.00650000 0.00659388 70917.02250770 0 -9252.17855868 0 8983.39787371 0 125.45276189 0 30885.36429563 0 40
0.00750000 0.00754703 101492.14026191 0 1486.53711318 0 -16513.15451128 0 -10884.85928714 0 -927.61279973 0 57
0.00850000 0.00846663 100596.38918408 0 -5428.65013533 0 -7293.84968498 0 19.22033793 0 1650.85041349 0 75
0.00950000 0.00948925 99144.36450736 0 443.93822021 0 -1374.46304136 0 1533.59449366 0 -5643.39787519 0 112
0.01050000 0.01054430 99137.72111247 0 -2979.49617475 0 16595.53260793 0 -13190.68200295 0 5253.88456040 0 105
0.01150000 0.01145670 92881.96831319 0 11403.94094696 0 26878.06849726 0 -19153.57181078 0 -6258.74232699 0 144
0.01250000 0.01249090 94348.49773542 0 18683.21945249 0 48608.61318634 0 -14012.46995099 0 28883.93086141 0 169
0.01350000 0.01339930 73122.62961157 0 16757.40999678 0 52974.65230883 0 -2686.83248514 0 34308.48423656 0 180
0.01450000 0.01448870 69303.45261188 0 2303.43109365 0 55595.47159340 0 25559.90822760 0 17584.40193748 0 267
0.01550000 0.01550050 82772.16069102 0 -9298.08441738 0 64000.36263999 0 18982.28294584 0 19047.05604603 0 238
0.01650000 0.01653350 79295.89359096 0 1247.54098197 0 58021.19651467 0 23084.91146089 0 9613.04776917 0 315
0.01750000 0.01747870 85814.39265820 0 -1419.94815172 0 42731.75534235 0 12939.56167606 0 25517.16905380 0 297
0.01850000 0.01844180 83593.17357633 0 -5907.52818374 0 32714.84452541 0 9640.64000262 0 16974.98117947 0 388
0.01950000 0.01947590 88018.78180634 0 -1271.44613125 0 36972.70703442 0 15447.88614048 0 10065.34116569 0 399
0.02050000 0.02045430 81942.06849937 0 5340.69158697 0 29793.07945227 0 8497.56640532 0 13605.11912091 0 462
0.02150000 0.02154770 80937.36574533 0 7150.48522323 0 32060.80229838 0 2688.58191246 0 10632.91960822 0 571
0.02250000 0.02255340 74123.78922168 0 7645.76138470 0 17424.29612061 0 -63.06242600 0 6991.27626466 0 510
0.02350000 0.02348930 66190.13631937 0 5187.39524986 0 31145.34248237 0 4707.50961990 0 11510.45671172 0 555
0.02450000 0.02439640 64870.31520099 0 4006.24392751 0 30185.15047410 0 7343.58656807 0 18723.85488457 0 592
0.02550000 0.02547300 63077.81653610 0 1611.47722643 0 27250.65222741 0 8239.14941638 0 5048.08325899 0 837
0.02650000 0.02652900 60156.38363270 0 -942.99779506 0 23105.83815480 0 12114.34130733 0 2641.97849730 0 723
0.02750000 0.02749970 60502.50450653 0 1473.91466288 0 14152.97775294 0 1286.75915647 0 2134.77744201 0 826
0.02850000 0.02848090 60479.58479415 0 2338.86253307 0 16708.35959783 0 5708.18204771 0 5863.72606676 0 831
0.02950000 0.02946900 57547.74390543 0 1818.35254334 0 15745.17806186 0 1331.45813177 0 5084.12367628 0 996
0.03050000 0.03053250 57132.53172473 0 -708.04749134 0 14104.70241673 0 91.31866677 0 3810.23056124 0 1041
0.03150000 0.03150510 58329.33931437 0 1395.57796479 0 19197.08604732 0 -1706.47777337 0 -1123.95169234 0 1036
0.03250000 0.03246190 57289.64801390 0 2782.65238412 0 19093.89198001 0 -5109.41286616 0 -3584.33299029 0 1059
0.03350000 0.03345080 56949.39547223 0 1693.50100869 0 25127.31249694 0 -2869.54798930 0 -3436.28493514 0 1302
0.03450000 0.03451200 53679.40578353 0 87.96629899 0 18469.63430674 0 1803.48241111 0 5066.44117354 0 1339
0.03550000 0.03553350 57877.80990827 0 -1516.22201602 0 24635.47982850 0 7605.44705003 0 -1357.26772092 0 1365
0.03650000 0.03647120 52976.64532730 0 1040.35563996 0 12086.77121853 0 8717.79494596 0 -4384.82885771 0 1308
0.03750000 0.03744890 51660.03518311 0 4724.54992779 0 16042.13781350 0 5451.83558350 0 -1859.50837469 0 1579
0.03850000 0.03847530 46460.47144827 0 4668.91149558 0 11733.12116382 0 880.55431201 0 -2411.49698388 0 1662
0.03950000 0.03950240 43464.85396859 0 1535.42142725 0 12443.74297068 0 1532.21045305 0 5682.98143642 0 1683
0.04050000 0.04050350 44166.17502260 0 -1462.05620300 0 10074.90765433 0 694.81052702 0 1439.15863528 0 1822
0.04150000 0.04152450 44031.42482956 0 -268.59688438 0 11023.47372155 0 2077.87676477 0 5191.06018938 0 1887
0.04250000 0.04250150 46628.43861577 0 843.61703642 0 12298.25262257 0 861.75461171 0 7104.54614756 0 1920
0.04350000 0.04349210 44174.14709647 0 54.81265823 0 9521.81181267 0 2497.40715214 0 5781.97909262 0 2005
0.04450000 0.04448520 44845.46215023 0 1806.80410856 0 10833.49477231 0 1641.25070787 0 2319.62990486 0 2151
0.04550000 0.04548030 42492.15023327 0 1978.38085395 0 12802.59701806 0 -1714.11767750 0 4789.40053425 0 2274
0.04650000 0.04648670 40355.96660601 0 1781.72529284 0 12252.30247457 0 1526.51927810 0 -224.54564009 0 2311
0.04750000 0.04749250 37520.23349671 0 2051.65749960 0 9422.67021624 0 -309.56227174 0 -195.04564508 0 2568
0.04850000 0.04851840 38124.00736907 0 1476.14020017 0 8018.61085064 0 3855.18420001 0 -4758.51982034 0 2493
0.04950000 0.04949480 36896.08654668 0 -950.61223284 0 7755.46597900 0 -2143.15919190 0 -2197.20320934 0 2644
0.05050000 0.05050630 36609.86695012 0 652.99478511 0 8618.18831189 0 305.05915724 0 -4222.86289026 0 2829
0.05150000 0.05149060 37243.09320650 0 821.23101010 0 8800.73773118 0 -3756.12010985 0 -5796.27346396 0 2784
0.05250000 0.05249300 36598.46245555 0 -409.16890581 0 9884.48581210 0 783.26511553 0 -3733.53256722 0 3055
0.05350000 0.05348950 38572.76869397 0 -241.10983802 0 13297.52993745 0 -2396.32789888 0 -1265.03525518 0 3009
0.05450000 0.05448610 37991.36091774 0 14.24332792 0 14747.34014920 0 -264.67617416 0 -3601.10756239 0 3336
0.05550000 0.05550870 38007.08361898 0 1712.35717785 0 14698.40047350 0 2113.23069791 0 -2313.67299410 0 3349
0.05650000 0.05647670 36250.23784001 0 1376.22354101 0 12830.16710685 0 888.86741349 0 445.30675956 0 3324
0.05750000 0.05747970 34863.20770998 0 882.17308590 0 12477.73500788 0 3593.86626196 0 526.50897531 0 3639
0.05850000 0.05849280 35259.26476874 0 244.49132602 0 12625.99343720 0 1683.44733775 0 -1162.47231038 0 3846
0.05950000 0.05951020 33404.98253136 0 885.39623966 0 10805.51500749 0 11.97615869 0 -1037.72485558 0 3787
0.06050000 0.06049470 33925.04962809 0 851.54924992 0 11240.07053965 0 -191.22901471 0 851.76626749 0 3930
0.06150000 0.06148310 32511.77808824 0 122.15210186 0 13039.54476918 0 -1428.30775696 0 1255.23624772 0 4083
0.06250000 0.06249100 33388.04187439 0 -378.38452112 0 11681.30268367 0 1636.74427167 0 -1234.57528960 0 4303
0.06350000 0.06350600 32683.95273917 0 895.25835937 0 10826.39741210 0 2297.86171426 0 -1705.74699994 0 4470
0.06450000 0.06451750 32461.39901031 0 -667.99999970 0 7131.77299429 0 1895.82560010 0 -2555.49256814 0 4479
0.06550000 0.06550280 32404.48726075 0 -246.14220965 0 7574.54419146 0 1902.94510496 0 -2613.05758488 0 4636
0.06650000 0.06648880 32412.45933462 0 1590.27372440 0 6139.17229127 0 -1558.37435660 0 -3261.18719046 0 4653
0.06750000 0.06749660 31084.99831211 0 1986.15362597 0 6554.68342474 0 -1099.35341552 0 -2146.63590189 0 5220
0.06850000 0.06852730 28641.22550139 0 1818.99473818 0 7137.82955596 0 -1238.06307192 0 -962.11084216 0 5029
0.06950000 0.06949320 28528.95212772 0 968.28698495 0 8414.88935590 0 465.59347309 0 -416.59622130 0 5040
0.07050000 0.07048030 28156.58984407 0 -172.90874607 0 8885.11991862 0 1216.17308576 0 -2172.89945636 0 5475
0.07150000 0.07148790 27698.74921282 0 -267.24938245 0 9024.76407923 0 915.98242974 0 -1305.41602379 0 5509
0.07250000 0.07249820 28439.37701994 0 525.41170792 0 8990.94919924 0 -258.53878452 0 -2349.85735161 0 5916
0.07350000 0.07351270 27377.65179308 0 846.50580597 0 10987.25614706 0 -739.87931796 0 -946.89636063 0 5721
0.07450000 0.07449140 26776.09238568 0 1375.45955060 0 9737.91037615 0 189.93687440 0 18.99612335 0 6028
0.07550000 0.07549160 26419.78497302 0 180.38256532 0 9626.33455896 0 1958.16278883 0 572.53220065 0 6183
0.07650000 0.07648840 25874.69442220 0 21.77649484 0 8993.51797860 0 853.48801400 0 -186.76797504 0 6330
0.07750000 0.07749960 26490.31568211 0 380.09851700 0 9928.24363979 0 2106.11119305 0 -297.63294899 0 6583
0.07850000 0.07848650 25295.39038769 0 778.67231520 0 8883.28191270 0 -510.58254329 0 388.26214209 0 6549
0.07950000 0.07947320 24920.70291582 0 1500.12285573 0 10045.96459726 0 -61.78412610 0 1457.42797123 0 6828
0.08050000 0.08048110 23894.07695864 0 146.30527122 0 9408.97375044 0 107.40420810 0 2553.18952458 0 7147
0.08150000 0.08149960 23857.20611699 0 -203.26684625 0 8801.16955185 0 1463.66169010 0 1136.83987843 0 7386
0.08250000 0.08250610 24267.10358178 0 -436.77110435 0 8791.37054438 0 1134.96865554 0 327.65777220 0 7227
0.08350000 0.08350160 24054.84711501 0 154.10904576 0 8230.53514767 0 271.76910544 0 -737.93391049 0 7798
0.08450000 0.08449610 24045.98925515 0 901.91171936 0 7826.26242389 0 -91.16354350 0 -447.99844172 0 7371
0.08550000 0.08548940 22928.34878796 0 538.26556980 0 7754.38089117 0 -391.27824337 0 1535.10032983 0 8256
0.08650000 0.08650700 22496.63884328 0 1063.78025035 0 8298.96211505 0 406.08415612 0 456.06463035 0 8037
0.08750000 0.08749060 21717.70079229 0 787.45820494 0 8593.85134194 0 702.76709963 0 1673.21650962 0 8155
0.08850000 0.08849210 20564.40743918 0 685.25178900 0 7888.67711889 0 1783.28649064 0 1653.46348214 0 8718
0.08950000 0.08949900 20794.49034891 0 -25.79984551 0 7898.42076473 0 585.61525966 0 1298.05292779 0 8571
0.09050000 0.09049190 20396.99388792 0 -399.09973362 0 7902.56181421 0 1184.63910467 0 1736.55020758 0 8932
0.09150000 0.09150830 20856.27392139 0 202.15961377 0 7843.34702108 0 -89.70332530 0 2507.97015002 0 9285
0.09250000 0.09250820 20548.57401468 0 287.06662941 0 7677.71611412 0 -176.84385031 0 3532.51451014 0 9204
0.09350000 0.09350330 20287.48859546 0 673.67456617 0 7712.90396240 0 533.14129788 0 3081.18440588 0 9349
0.09450000 0.09448040 19934.28143375 0 705.15650733 0 7105.28799332 0 341.87242280 0 2644.50298736 0 9564
0.09550000 0.09549270 18958.80961722 0 606.16106559 0 7537.42975867 0 136.88604450 0 2087.90829105 0 10155
0.09650000 0.09649430 18720.75463362 0 520.27082751 0 7446.86921398 0 267.27927773 0 2818.06167889 0 9913
0.09750000 0.09749140 18341.74895508 0 -100.99809313 0 6058.26681382 0 383.82878323 0 1290.16943252 0 10476
0.09850000 0.09850240 18346.28860826 0 169.58483415 0 5941.14376189 0 -197.12281321 0 195.34349061 0 10575
0.09950000 0.09950330 18029.17722545 0 418.29471593 0 6165.73479851 0 171.94213211 0 -385.15635498 0 10882
0.10050000 0.10051200 17840.83698028 0 157.00224423 0 5256.47548440 0 461.60522169 0 -754.66751499 0 10875
0.10150000 0.10150300 17777.06038933 0 -130.01123802 0 5340.07153678 0 0.39883178 0 -1700.27727148 0 11118
0.10250000 0.10250800 17600.12463873 0 458.30234720 0 5401.00254026 0 48.05787575 0 -2106.57623070 0 11575
0.10350000 0.10349800 17027.46399911 0 832.07081610 0 6262.60656835 0 -58.83379443 0 -1355.71759544 0 11364
0.10450000 0.10450100 16411.17839970 0 582.41535779 0 5811.56434454 0 -425.05990639 0 -476.13321908 0 12093
0.10550000 0.10551000 16084.87698730 0 150.11968712 0 5969.96502339 0 419.62782384 0 -385.38444487 0 12067
0.10650000 0.10649700 16134.14883274 0 -66.22401763 0 5761.98247400 0 638.80560085 0 -1246.81020853 0 12054
0.10750000 0.10749900 15941.82255064 0 256.36307269 0 5515.47930656 0 643.28324901 0 -711.98923898 0 12807
0.10850000 0.10850100 15690.70222375 0 -95.03143873 0 4287.01594026 0 316.47693859 0 -1443.89759030 0 12736
0.10950000 0.10950300 16054.42809404 0 -93.75856427 0 5160.81059797 0 -21.28543723 0 -773.93446741 0 12933
0.11050000 0.11050200 15621.38947039 0 282.72849255 0 4654.09672497 0 57.27680412 0 -1413.34904613 0 13428
0.11150000 0.11150900 15704.21046003 0 551.54793066 0 4908.79341277 0 0.69162945 0 -846.19910257 0 13453
0.11250000 0.11250000 15159.67352545 0 339.17741894 0 4266.15568030 0 384.03472847 0 47.38401406 0 13668
0.11350000 0.11349100 15031.01311106 0 405.58700873 0 4867.56007515 0 288.50270994 0 -554.20196692 0 13791
0.11450000 0.11448600 14706.37254737 0 217.41838460 0 5391.65749812 0 323.08268758 0 291.84876650 0 14205
0.11550000 0.11549300 14590.88819952 0 340.93016796 0 5418.04284816 0 135.47321585 0 626.24072665 0 14776
0.11650000 0.11649800 14310.86910485 0 391.25720595 0 5383.05430173 0 452.47608988 0 1117.04256165 0 14553
0.11750000 0.11747300 14124.41115491 0 -83.60745688 0 4994.59285779 0 485.44947319 0 255.55590021 0 14568
0.11850000 0.11849100 14039.15425380 0 -25.90602910 0 4758.22086757 0 386.56807639 0 285.53864859 0 16015
0.11950000 0.11950300 13877.49831145 0 155.52187440 0 4113.66762290 0 91.70542308 0 -71.44782976 0 15270
0.12050000 0.12050700 13808.73917433 0 262.88024308 0 4171.49837543 0 -48.08843537 0 18.94308692 0 15999
0.12150000 0.12150000 13454.31405688 0 193.60181392 0 4353.81527589 0 -63.73960939 0 -506.05617691 0 15670
0.12250000 0.12250700 13291.21871230 0 266.68137219 0 4169.54964626 0 18.83878562 0 -424.81852971 0 16887
0.12350000 0.12352200 13263.31645376 0 184.78492167 0 4143.60718921 0 306.10992087 0 -235.90695259 0 16407
0.12450000 0.12449800 13023.04700520 0 203.41300094 0 4397.18557220 0 -229.51489947 0 371.88506645 0 16306
0.12550000 0.12549900 13073.53680637 0 143.19394795 0 4077.17324029 0 377.97595233 0 614.97574338 0 17523
0.12650000 0.12650100 13013.08191286 0 129.32143218 0 4734.83611755 0 288.89799194 0 292.71130060 0 17154
0.12750000 0.12750600 12815.77308459 0 179.76915852 0 3938.62523984 0 315.45274855 0 270.56222204 0 18007
0.12850000 0.12850300 12586.68668409 0 121.55641079 0 4177.51064780 0 299.35580273 0 162.21066583 0 17496
0.12950000 0.12949900 12632.30466235 0 24.16833844 0 3795.70367108 0 25.99294685 0 326.91260474 0 18405
0.13050000 0.13049000 12537.96845489 0 142.14761325 0 3952.04489752 0 -42.69499522 0 -15.42873102 0 18100
0.13150000 0.13148800 12519.58839569 0 198.95085404 0 4030.64733141 0 88.25163280 0 138.43063381 0 19059
0.13250000 0.13249300 12283.52643056 0 269.38301944 0 4324.25216862 0 -227.67357185 0 431.41984977 0 18957
0.13350000 0.13349100 12163.83459927 0 222.28134966 0 4573.01409032 0 -172.37063108 0 887.88972721 0 19468
0.13450000 0.13450700 12032.73827342 0 71.85805939 0 4355.46505229 0 369.84997315 0 457.45420711 0 19953
0.13550000 0.13551000 12109.91237740 0 -39.28770871 0 4565.51812642 0 497.03444664 0 1214.44580308 0 19956
0.13650000 0.13649900 11988.67042064 0 110.25732476 0 4272.10151873 0 533.86653515 0 882.07786391 0 19723
0.13750000 0.13749600 11922.79008797 0 130.94684947 0 4022.12164130 0 657.41928611 0 874.02164037 0 20946
0.13850000 0.13851100 11683.29570214 0 192.53444181 0 3624.83555448 0 372.54940594 0 1252.21350304 0 20955
0.13950000 0.13949800 11487.86916909 0 192.15798276 0 2723.93584561 0 852.79267200 0 1222.48431090 0 20506
0.14050000 0.14048300 11270.29798640 0 43.17165881 0 2840.11774993 0 354.58123722 0 1005.33830549 0 21447
0.14150000 0.14148400 11191.79520344 0 281.30902050 0 2856.65980321 0 -27.39747125 0 847.41373660 0 21771
0.14250000 0.14249400 10944.05193562 0 346.28031531 0 3091.61453586 0 -298.43458530 0 870.65233193 0 22470
0.14350000 0.14350900 10638.66614480 0 408.93417253 0 3137.90792593 0 -543.47842033 0 1417.97727790 0 22519
0.14450000 0.14449900 10607.86293715 0 151.02429606 0 3413.02198070 0 -319.89496527 0 1234.03274569 0 22218
0.14550000 0.14550500 10513.01740276 0 -107.00272560 0 3300.22820777 0 147.85318223 0 842.38247220 0 23559
0.14650000 0.14650700 10543.87597203 0 52.81720385 0 3595.32780884 0 315.56125733 0 636.96095154 0 23044
0.14750000 0.14750500 10541.48434987 0 143.55601297 0 2984.12440652 0 373.48723185 0 257.69064443 0 23649
0.14850000 0.14849900 10207.32158684 0 186.55760087 0 2871.71816496 0 496.35571313 0 690.83334794 0 23640
0.14950000 0.14949500 10087.27544116 0 224.79808910 0 2655.04384059 0 142.53735909 0 472.60557640 0 24457
0.15050000 0.15050000 10009.96846927 0 28.32832160 0 2583.94844293 0 154.03486118 0 301.46950953 0 24591
0.15150000 0.15149900 9976.29752950 0 114.96284136 0 2602.43922537 0 79.07754735 0 392.12084729 0 25020
0.15250000 0.15250500 9799.02960915 0 92.84255084 0 2555.72508696 0 -272.30057703 0 295.47052395 0 25297
0.15350000 0.15350100 9773.09822443 0 79.71675266 0 2613.40082695 0 -18.35581081 0 488.23859181 0 25452
0.15450000 0.15450400 9734.74369125 0 176.05771524 0 2716.45095403 0 81.42975203 0 338.57951340 0 26061
0.15550000 0.15549900 9511.06058527 0 269.88459576 0 2802.06216953 0 -106.66291595 0 67.44241626 0 26128
0.15650000 0.15649500 9488.08551127 0 167.34268838 0 3120.33614644 0 -340.16728478 0 19.78546939 0 26331
0.15750000 0.15749700 9142.29680718 0 261.79958417 0 3124.01215828 0 -108.02082587 0 290.27428191 0 27345
0.15850000 0.15849900 9166.60056016 0 243.29330047 0 3383.92391107 0 -216.82380076 0 -142.55064588 0 26980
0.15950000 0.15949700 8983.18749954 0 131.69866032 0 3481.14999531 0 -75.53063881 0 571.87782626 0 27777
0.16050000 0.16050000 8825.51759412 0 143.71656168 0 3249.64982800 0 313.15634838 0 100.55663954 0 28224
0.16150000 0.16150500 8812.02043017 0 27.97699674 0 3216.25569635 0 379.33452659 0 684.74246206 0 28075
0.16250000 0.16249700 8713.64282415 0 28.14529607 0 3114.70033311 0 421.50347566 0 365.21066905 0 28590
0.16350000 0.16349900 8700.38925135 0 58.76536747 0 3048.53211999 0 315.69633969 0 598.57430863 0 29163
0.16450000 0.16449100 8714.07464482 0 36.00122125 0 2846.75007250 0 187.07689290 0 902.42658246 0 28996
0.16550000 0.16550500 8697.39972365 0 -110.52007103 0 2600.11403716 0 277.68947752 0 995.89029072 0 30777
0.16650000 0.16650700 8856.92977963 0 -114.89419295 0 2498.83548205 0 536.11310986 0 1150.68028445 0 29211
0.16750000 0.16749900 8848.27122162 0 -3.60276841 0 2197.16999236 0 427.51464081 0 917.86029603 0 30922
0.16850000 0.16850800 8770.76494789 0 16.00737071 0 2020.05708456 0 388.46144394 0 824.74758046 0 30867
0.16950000 0.16949900 8721.24951130 0 208.13091855 0 1925.95339593 0 -84.99138675 0 736.17008915 0 30852
0.17050000 0.17049200 8463.96189949 0 344.85973603 0 1952.05086553 0 -107.42037369 0 627.02354001 0 31257
0.17150000 0.17149500 8213.87129881 0 286.85071908 0 1730.11718686 0 -300.61029713 0 839.68193218 0 32608
0.17250000 0.17250900 8034.27819026 0 92.36788027 0 1897.47537650 0 -104.38522801 0 634.18622694 0 32361
0.17350000 0.17350400 8015.37773179 0 -29.46799600 0 1801.46724799 0 347.68096440 0 533.90639552 0 32508
0.17450000 0.17449800 8045.60517855 0 -15.04164254 0 1696.62340429 0 422.72475309 0 264.43369025 0 32791
0.17550000 0.17549800 8087.35891544 0 147.83103758 0 1600.54884183 0 43.06038194 0 283.17913617 0 33633
0.17650000 0.17650100 7924.96112732 0 179.41041520 0 1551.01126060 0 -167.89630462 0 363.62179044 0 33984
0.17750000 0.17750300 7768.79705808 0 243.36305612 0 1608.12231201 0 -256.32874848 0 571.38842950 0 34069
0.17850000 0.17849800 7620.85972618 0 84.73295869 0 1682.20723737 0 12.14789045 0 339.29478558 0 34536
