### header ###
fiducial parameters:
Omega_m = 0.31
Omega_nu = 0
Omega_de = 0.69
Omega_k = 0
H_0 = 100
w_de = -1
zeff = 0
beta = 0
fgrowth = 0
b_1 = 2
gamma = 0.55
Lx = 3500 Ly = 3500 Lz = 3500
nx = 700 ny = 700 nz = 700
xoffset = -685.467585 yoffset = -31.7331281 zoffset = 572.489161
bins = 400 dk = 0.001
kx_ny = 0.628318531 ky_ny = 0.628318531 kz_ny = 0.628318531
############################
A(data) = 8.02660863 (not used)
A(ran) = 8.0215095 (used)
Ngal = 476888
weighted Ngal = 0
Nran = 23820508
weighted Nran = 0
SN(data) = 3493.18768
SN(ran) = 69.8702569
SN(data+ran) = 3563.05794
############################
13 columns: k_central k_mean P_0(k) sigma^{lin}_{P_0(k)} P^img_1(k) sigma^{lin}_{P_1(k)} P_2(k) sigma^{lin}_{P_2(k)} P^img_3(k) sigma^{lin}_{P_3(k)} P_4(k) sigma^{lin}_{P_4(k)} N_modes
### header ###
0.00050000 0 0 0 0 0 0 0 0 0 0 0 0
0.00150000 0.00179520 52996.24334222 0 -35527.21502935 0 85950.47153022 0 4074.73732883 0 -176007.88978217 0 3
0.00250000 0.00253879 91198.53204776 0 -29791.30788030 0 34714.50638766 0 47627.05159117 0 96319.03938339 0 6
0.00350000 0.00331552 93789.89894831 0 -16102.81415350 0 22034.81217509 0 -85570.80151219 0 -27150.00479481 0 7
0.00450000 0.00420575 84603.41249278 0 10724.44344517 0 -2956.44359448 0 -33767.82261567 0 17386.76093947 0 24
0.00550000 0.00557378 90763.83257538 0 13513.44027141 0 41867.89256000 0 -60346.16328009 0 -11057.53219269 0 45
0.00650000 0.00659388 70963.19410219 0 20262.57586462 0 48736.05564500 0 -53391.52533825 0 55484.19472897 0 40
0.00750000 0.00754703 75602.71964770 0 18577.36802722 0 70046.62705371 0 12798.94315087 0 1298.51796543 0 57
0.00850000 0.00846663 59520.05712537 0 8160.66877806 0 59203.16718906 0 38869.17482936 0 5556.65728256 0 75
0.00950000 0.00948925 63350.63861963 0 21.75999707 0 50547.70943183 0 43506.70735640 0 -50097.28725821 0 112
0.01050000 0.01054430 59011.50524645 0 8384.78370472 0 38559.37118094 0 38553.83501853 0 -11014.08439010 0 105
0.01150000 0.01145670 51852.58291171 0 5376.64342566 0 20418.69564456 0 11841.29777730 0 -8557.79985233 0 144
0.01250000 0.01249090 53027.35657496 0 -2494.45084142 0 14329.58133380 0 14112.34232085 0 10044.04908506 0 169
0.01350000 0.01339930 55417.87150331 0 -4821.22239578 0 18048.11090089 0 -5235.83667094 0 4381.03105029 0 180
0.01450000 0.01448870 64691.27570867 0 -7800.39747311 0 21603.21295366 0 8390.04305900 0 12396.68559020 0 267
0.01550000 0.01550050 70286.78577902 0 -2429.97669400 0 21377.78042035 0 2891.93623008 0 9543.41391839 0 238
0.01650000 0.01653350 66813.95109965 0 5714.82544260 0 31076.69406849 0 6074.32168481 0 -5180.37539593 0 315
0.01750000 0.01747870 64225.79517330 0 6814.11906757 0 22533.62040817 0 -2951.71571178 0 -5244.30699943 0 297
0.01850000 0.01844180 56720.53051822 0 10655.55144015 0 25824.97968376 0 9998.42003449 0 3294.81384093 0 388
0.01950000 0.01947590 53401.04753759 0 -287.27811081 0 13873.62299776 0 8180.07856347 0 13354.55241027 0 399
0.02050000 0.02045430 56709.90108640 0 -9350.79975584 0 9499.92182650 0 10092.32442127 0 6735.51663368 0 462
0.02150000 0.02154770 64941.73169607 0 -10008.28547590 0 6760.34078592 0 6451.05753676 0 -7623.59459041 0 571
0.02250000 0.02255340 67489.69508334 0 -4310.22353308 0 485.29446064 0 1825.08451683 0 -9429.56827460 0 510
0.02350000 0.02348930 70933.85244142 0 1053.97127779 0 9936.11606273 0 -8695.27383728 0 -10272.99154534 0 555
0.02450000 0.02439640 72437.36342855 0 4922.20199813 0 12861.39106284 0 -10161.67039161 0 9821.04139089 0 592
0.02550000 0.02547300 67745.57650989 0 1026.58720405 0 12803.48280404 0 4357.64630028 0 1723.73952777 0 837
0.02650000 0.02652900 67325.93539927 0 -285.97932711 0 15408.35794088 0 8960.52245064 0 10454.04620077 0 723
0.02750000 0.02749970 65454.60178167 0 4144.68120471 0 12748.23190320 0 3179.70595212 0 -5673.58103265 0 826
0.02850000 0.02848090 63176.36022698 0 4259.93303375 0 16668.16705874 0 -973.79878824 0 5351.04421068 0 831
0.02950000 0.02946900 59402.02614280 0 3788.44022600 0 13327.42521446 0 -1378.15012553 0 7493.25118264 0 996
0.03050000 0.03053250 56537.28354248 0 3313.82502265 0 15271.61472937 0 -4432.51736070 0 302.24678674 0 1041
0.03150000 0.03150510 56859.04530171 0 819.33099916 0 17199.74937329 0 -4915.39251837 0 -1769.43501229 0 1036
0.03250000 0.03246190 53553.29200385 0 3861.16325541 0 20492.43732785 0 315.51475357 0 -8272.07851039 0 1059
0.03350000 0.03345080 53684.05615996 0 1632.86895798 0 19472.23331906 0 -4885.92906202 0 -795.47456811 0 1302
0.03450000 0.03451200 50590.22715913 0 -1596.75103442 0 19140.61719075 0 3454.33282460 0 -5472.17544420 0 1339
0.03550000 0.03553350 54666.50354112 0 -2030.89689056 0 21934.71835873 0 258.87759765 0 -4607.69261166 0 1365
0.03650000 0.03647120 53774.95994672 0 2198.54296064 0 18865.46991900 0 3083.13313505 0 -10170.42860054 0 1308
0.03750000 0.03744890 52105.58553381 0 4862.47787806 0 19706.52371223 0 2066.07366651 0 -5829.94440374 0 1579
0.03850000 0.03847530 48215.43493203 0 3523.86702446 0 17878.92577766 0 1861.19136807 0 339.18406233 0 1662
0.03950000 0.03950240 44400.90830876 0 1834.08631691 0 18874.99211835 0 3834.47895260 0 2570.98275056 0 1683
0.04050000 0.04050350 46685.57181184 0 634.95796798 0 19883.12729308 0 4841.88335389 0 -1384.56100160 0 1822
0.04150000 0.04152450 45165.12016774 0 -1475.68623485 0 19740.07285643 0 2234.64981187 0 -82.37444278 0 1887
0.04250000 0.04250150 45112.85879460 0 872.01201342 0 18197.80873244 0 1235.11783352 0 5254.93643125 0 1920
0.04350000 0.04349210 45942.06520026 0 960.54964436 0 18999.11287956 0 -997.19461058 0 3562.45407645 0 2005
0.04450000 0.04448520 46918.97641901 0 -269.41291472 0 21806.50083733 0 2875.34988750 0 8783.53133841 0 2151
0.04550000 0.04548030 45067.90515583 0 1043.09271866 0 18902.67293039 0 2584.10345547 0 4893.95649752 0 2274
0.04650000 0.04648670 45989.34402724 0 430.99910143 0 19190.88554542 0 2037.11953711 0 5559.17070030 0 2311
0.04750000 0.04749250 44156.43137676 0 2202.55114222 0 18719.31523140 0 2997.12331586 0 4380.46636173 0 2568
0.04850000 0.04851840 42111.04081301 0 2430.18706817 0 13896.87487988 0 1448.33759255 0 4445.92594606 0 2493
0.04950000 0.04949480 39259.69572572 0 2459.27406547 0 16472.96197219 0 -655.89684144 0 3234.38109207 0 2644
0.05050000 0.05050630 36687.26250060 0 2148.39640154 0 11353.34042254 0 594.54398239 0 -376.09033542 0 2829
0.05150000 0.05149060 34942.59627892 0 1606.74934373 0 15113.72337745 0 887.16559716 0 45.85271154 0 2784
0.05250000 0.05249300 34335.38998587 0 1124.61603183 0 13290.33292632 0 -506.66294031 0 842.23742475 0 3055
0.05350000 0.05348950 33653.55622354 0 -75.43608116 0 13959.87640810 0 1373.22294098 0 -312.20302121 0 3009
0.05450000 0.05448610 32792.46152239 0 -553.08587657 0 11956.44995542 0 3520.20208494 0 1401.55702019 0 3336
0.05550000 0.05550870 34416.43940354 0 -488.40356945 0 12364.02223199 0 2637.28383158 0 1114.72844577 0 3349
0.05650000 0.05647670 34379.23639215 0 -277.90317339 0 13048.73479877 0 3115.58611909 0 -272.41462198 0 3324
0.05750000 0.05747970 34802.75281647 0 1014.30024520 0 10960.28396381 0 -1834.52920990 0 542.43762180 0 3639
0.05850000 0.05849280 33778.56277074 0 84.73938064 0 12422.59483028 0 -2273.84584173 0 3676.41044348 0 3846
0.05950000 0.05951020 33825.73087447 0 1050.94964035 0 13670.22439085 0 -3775.80670338 0 3043.99246682 0 3787
0.06050000 0.06049470 34097.55644877 0 741.92548359 0 16449.93153657 0 301.76956954 0 2925.62931451 0 3930
0.06150000 0.06148310 33058.52948778 0 -64.48145515 0 15273.71847108 0 1527.30541316 0 2970.59402559 0 4083
0.06250000 0.06249100 34094.34547457 0 561.63149687 0 15969.28191619 0 1699.90081243 0 2627.57340271 0 4303
0.06350000 0.06350600 33767.26899943 0 -61.10849284 0 16252.62270830 0 137.18056834 0 -540.82881300 0 4470
0.06450000 0.06451750 33250.08070715 0 1125.70111966 0 14472.74649370 0 342.45482708 0 253.60052765 0 4479
0.06550000 0.06550280 32217.91858755 0 301.33664164 0 14197.82066845 0 590.47711749 0 -818.13961701 0 4636
0.06650000 0.06648880 31528.99853734 0 17.33914994 0 11329.31347769 0 3357.12888501 0 -12.81721249 0 4653
0.06750000 0.06749660 32471.80699564 0 -552.81460462 0 9509.20043470 0 4092.72985667 0 -2412.75922891 0 5220
0.06850000 0.06852730 31067.94693189 0 -131.19044061 0 7952.89660284 0 2460.53631050 0 -4254.41901599 0 5029
0.06950000 0.06949320 31151.21081452 0 1088.66530038 0 5722.78644414 0 2032.28093116 0 -2971.18085881 0 5040
0.07050000 0.07048030 29916.42515075 0 1420.05887497 0 5858.67708664 0 486.21789253 0 -834.32957036 0 5475
0.07150000 0.07148790 28520.20499112 0 1482.22997882 0 5816.28115491 0 -943.28567551 0 -131.36870504 0 5509
0.07250000 0.07249820 28001.24512687 0 1287.24633877 0 7951.21360947 0 -1736.36197806 0 706.66787967 0 5916
0.07350000 0.07351270 26207.86067599 0 1077.08032692 0 8321.67145325 0 47.78095691 0 1659.69720102 0 5721
0.07450000 0.07449140 26187.26615183 0 842.95158970 0 8833.77754844 0 126.05952529 0 1053.90373661 0 6028
0.07550000 0.07549160 25796.08091599 0 -115.20753974 0 8032.71699246 0 1141.26880836 0 433.71735717 0 6183
0.07650000 0.07648840 25787.55522588 0 -130.40209109 0 8239.49265845 0 1206.94983918 0 -941.00256213 0 6330
0.07750000 0.07749960 25442.65230777 0 217.49035472 0 6788.25411679 0 -60.89202889 0 -1315.62470728 0 6583
0.07850000 0.07848650 25400.90964321 0 311.37148962 0 7685.95392379 0 -281.79731003 0 -1900.47597652 0 6549
0.07950000 0.07947320 25314.76695612 0 319.12211699 0 7726.71115144 0 -262.35098595 0 -1132.84276917 0 6828
0.08050000 0.08048110 24952.48048805 0 558.45927581 0 8846.87610870 0 -430.16424813 0 -1191.01676377 0 7147
0.08150000 0.08149960 24576.13216747 0 1029.09508562 0 8950.18089925 0 -351.98588429 0 35.41195213 0 7386
0.08250000 0.08250610 23298.71805314 0 1098.03580887 0 9922.08742719 0 446.21579742 0 769.05710832 0 7227
0.08350000 0.08350160 22728.82549472 0 1029.49368931 0 9254.63661479 0 814.42817373 0 1172.54812597 0 7798
0.08450000 0.08449610 21836.06394460 0 233.53747507 0 9334.60094463 0 2012.39503579 0 281.13961394 0 7371
0.08550000 0.08548940 21908.03405592 0 -157.95557140 0 8076.81806221 0 1505.08325725 0 547.00938471 0 8256
0.08650000 0.08650700 21789.11728737 0 82.56067929 0 6753.13270247 0 1041.40751082 0 -402.40814428 0 8037
0.08750000 0.08749060 21741.50629065 0 179.73483432 0 7053.76846594 0 -886.89100351 0 -381.67964499 0 8155
0.08850000 0.08849210 21103.40821135 0 732.86500019 0 6727.54455981 0 276.09949168 0 -713.99554423 0 8718
0.08950000 0.08949900 21117.13789412 0 209.59246542 0 6621.10630133 0 -9.60907280 0 -21.06908400 0 8571
0.09050000 0.09049190 20336.42827116 0 203.29009814 0 6651.51090528 0 877.31676424 0 -465.41077973 0 8932
0.09150000 0.09150830 20701.70426693 0 180.60179735 0 6025.29343051 0 921.53741510 0 -434.66957710 0 9285
0.09250000 0.09250820 20040.90792175 0 543.20825560 0 6421.54979112 0 369.57980842 0 -159.54666447 0 9204
0.09350000 0.09350330 19209.59777437 0 863.88160530 0 5905.78982874 0 -56.68022726 0 114.98166431 0 9349
0.09450000 0.09448040 18710.12520180 0 591.82572665 0 5571.95923546 0 390.92614344 0 100.78196135 0 9564
0.09550000 0.09549270 18097.38274633 0 441.64514174 0 5050.88455717 0 701.85695453 0 1086.15298987 0 10155
0.09650000 0.09649430 18211.42769196 0 -63.84767528 0 5009.52942397 0 78.68625139 0 -2.70795848 0 9913
0.09750000 0.09749140 17794.22249280 0 299.28936878 0 5244.22949315 0 285.67483818 0 -226.39361110 0 10476
0.09850000 0.09850240 17823.23198382 0 537.90682648 0 5620.21242702 0 -682.40841599 0 215.75199972 0 10575
0.09950000 0.09950330 17479.98991445 0 310.37387315 0 5488.95001630 0 -560.29063833 0 946.91186189 0 10882
0.10050000 0.10051200 17349.44720483 0 72.23152891 0 5905.50194830 0 -93.43813119 0 335.03194053 0 10875
0.10150000 0.10150300 17120.58225083 0 221.83845667 0 6064.09085668 0 881.34709047 0 478.92565940 0 11118
0.10250000 0.10250800 17324.97736698 0 230.67085018 0 6255.81923324 0 117.21938116 0 246.06581061 0 11575
0.10350000 0.10349800 16955.27244129 0 443.70570139 0 6136.24919752 0 198.39170164 0 1286.74808415 0 11364
0.10450000 0.10450100 16755.30625506 0 383.59847888 0 5977.47205962 0 0.70684172 0 1239.24781068 0 12093
0.10550000 0.10551000 16409.62827423 0 -15.76931573 0 5673.43709242 0 25.16318683 0 627.61590939 0 12067
0.10650000 0.10649700 16572.61289556 0 -177.33324706 0 5735.32031584 0 744.57176922 0 -167.12456358 0 12054
0.10750000 0.10749900 16354.37737338 0 -32.93385511 0 5873.28148308 0 382.04171001 0 190.36094444 0 12807
0.10850000 0.10850100 16396.45220769 0 344.04592016 0 5598.10099436 0 205.06609904 0 -289.70737888 0 12736
0.10950000 0.10950300 16284.28955728 0 261.51613266 0 5287.19011345 0 715.66525082 0 141.51538351 0 12933
0.11050000 0.11050200 15829.43845373 0 147.25527669 0 5129.07731504 0 644.25429190 0 1328.52396569 0 13428
0.11150000 0.11150900 15679.62989893 0 345.88060438 0 4895.07480232 0 66.69603084 0 408.88877600 0 13453
0.11250000 0.11250000 15625.37550732 0 275.06422931 0 5446.81982036 0 420.56011359 0 1399.03253014 0 13668
0.11350000 0.11349100 15023.26248368 0 396.06038046 0 4827.34539141 0 633.72340376 0 1629.99015353 0 13791
0.11450000 0.11448600 14865.26040852 0 162.90600782 0 4258.62649942 0 464.63018083 0 1731.83339721 0 14205
0.11550000 0.11549300 14805.69130100 0 -236.78720241 0 3733.18932515 0 932.93415903 0 778.10984110 0 14776
0.11650000 0.11649800 15041.08892664 0 -302.58117095 0 3693.58361928 0 95.26595057 0 -596.95664197 0 14553
0.11750000 0.11747300 14771.25637081 0 533.27527301 0 2991.28820068 0 -429.52316053 0 -341.97982435 0 14568
0.11850000 0.11849100 14497.43777805 0 632.36593674 0 3141.86074589 0 -674.64671629 0 -1091.34812468 0 16015
0.11950000 0.11950300 13965.41257051 0 244.49686218 0 3060.84454519 0 -449.61943007 0 38.22897301 0 15270
0.12050000 0.12050700 14107.91339093 0 109.00183385 0 3980.21289186 0 24.17464967 0 -375.74266442 0 15999
0.12150000 0.12150000 13922.45195021 0 27.52092768 0 3979.62605864 0 11.32300225 0 -197.81261905 0 15670
0.12250000 0.12250700 14039.81859329 0 77.64345984 0 4654.45103936 0 173.14790828 0 -121.35932341 0 16887
0.12350000 0.12352200 14007.93029781 0 234.28485700 0 4559.72730054 0 -11.19102014 0 103.02920039 0 16407
0.12450000 0.12449800 13963.53027529 0 154.52647240 0 4608.68912089 0 376.68381203 0 40.86374342 0 16306
0.12550000 0.12549900 13877.38758820 0 65.72753459 0 4552.91782078 0 -96.26168474 0 362.24550046 0 17523
0.12650000 0.12650100 13595.48619832 0 305.54191060 0 4204.47175873 0 -200.07801671 0 102.95191557 0 17154
0.12750000 0.12750600 13544.55350415 0 231.15360354 0 4371.51992327 0 -144.91790892 0 98.36863743 0 18007
0.12850000 0.12850300 13203.19372999 0 317.59745787 0 4352.05477624 0 200.43897449 0 -404.89498843 0 17496
0.12950000 0.12949900 13021.82904947 0 325.53299306 0 3897.69085498 0 459.71406861 0 -724.72462698 0 18405
0.13050000 0.13049000 12764.28677418 0 151.67313430 0 4024.35825091 0 235.02116660 0 -573.94281483 0 18100
0.13150000 0.13148800 12622.00740026 0 128.81874864 0 3967.52400762 0 209.40312867 0 -681.03655495 0 19059
0.13250000 0.13249300 12455.70108149 0 48.64880573 0 3747.33975627 0 467.58759879 0 -384.91387107 0 18957
0.13350000 0.13349100 12615.36400537 0 -15.72746234 0 3574.37897028 0 207.32485330 0 -448.50001803 0 19468
0.13450000 0.13450700 12517.04176098 0 -13.75581346 0 3239.15326407 0 344.95274356 0 -100.61277622 0 19953
0.13550000 0.13551000 12551.03379818 0 59.87891117 0 3349.02394325 0 187.09350139 0 -89.50878456 0 19956
0.13650000 0.13649900 12407.31502203 0 257.59985137 0 3253.63586493 0 219.38372226 0 187.63161638 0 19723
0.13750000 0.13749600 12078.13480517 0 476.43992248 0 3208.33898410 0 208.98902372 0 592.70265477 0 20946
0.13850000 0.13851100 11762.68427109 0 348.90888522 0 3138.66084402 0 517.86702579 0 697.11357058 0 20955
0.13950000 0.13949800 11485.43325763 0 187.92724745 0 3408.98058214 0 596.02324499 0 953.43124674 0 20506
0.14050000 0.14048300 11246.93538104 0 232.38152436 0 2900.46192019 0 703.79239691 0 1118.49303621 0 21447
0.14150000 0.14148400 10991.49684747 0 254.18514640 0 2873.47866461 0 462.78663875 0 1527.79259545 0 21771
0.14250000 0.14249400 10847.67842040 0 223.38858215 0 2831.71385539 0 420.14490141 0 2125.77564193 0 22470
0.14350000 0.14350900 10741.24016192 0 -12.00671831 0 2791.27772516 0 185.66295702 0 1879.40534239 0 22519
0.14450000 0.14449900 10827.67072945 0 -57.96926731 0 2644.77979548 0 -19.75070229 0 2198.37687577 0 22218
0.14550000 0.14550500 10904.60124229 0 52.72408560 0 3005.30576390 0 -203.19044721 0 2089.25911468 0 23559
0.14650000 0.14650700 10801.76148938 0 65.07161007 0 2625.86826469 0 -126.49356043 0 2216.87873054 0 23044
0.14750000 0.14750500 10789.82552322 0 62.84618350 0 2616.37928232 0 -29.99847108 0 1524.47089801 0 23649
0.14850000 0.14849900 10734.84035817 0 212.59860161 0 2607.65429036 0 -298.61949313 0 978.51116969 0 23640
0.14950000 0.14949500 10647.81188510 0 182.00023197 0 2868.37432287 0 -205.34401439 0 947.52969761 0 24457
0.15050000 0.15050000 10244.72390008 0 368.78702997 0 2727.58971280 0 -129.88722798 0 987.15754814 0 24591
0.15150000 0.15149900 10153.45472660 0 110.09965485 0 2559.93257040 0 -10.31678259 0 684.01833202 0 25020
0.15250000 0.15250500 10043.82763857 0 45.77919130 0 2859.19536559 0 239.75790716 0 384.44772619 0 25297
0.15350000 0.15350100 10011.38572685 0 157.28791021 0 2615.41599006 0 209.82609148 0 418.05998264 0 25452
0.15450000 0.15450400 9751.85043310 0 313.48408920 0 2871.50779079 0 -202.08542920 0 644.57649655 0 26061
0.15550000 0.15549900 9526.44004444 0 294.99109228 0 2756.44419128 0 -26.89711290 0 1104.47547298 0 26128
0.15650000 0.15649500 9504.50576898 0 163.27914517 0 3061.34279981 0 49.78626565 0 1056.20235124 0 26331
0.15750000 0.15749700 9403.26043083 0 -53.22167588 0 2930.04717211 0 196.37432405 0 1453.97340589 0 27345
0.15850000 0.15849900 9463.62674575 0 -56.40275480 0 2860.82299734 0 421.06833330 0 996.20806644 0 26980
0.15950000 0.15949700 9428.00707680 0 -11.22910894 0 2648.16792688 0 217.34641449 0 1045.06802140 0 27777
0.16050000 0.16050000 9345.80613735 0 232.57529005 0 2952.50184684 0 9.21593884 0 760.69861032 0 28224
0.16150000 0.16150500 9311.18297764 0 187.79880848 0 2811.69509212 0 -245.47787016 0 803.18644234 0 28075
0.16250000 0.16249700 9022.07350430 0 270.43599753 0 3062.21751347 0 -234.80414903 0 574.67469550 0 28590
0.16350000 0.16349900 8821.68656973 0 307.77076959 0 3122.70562395 0 -274.60472783 0 585.20447641 0 29163
0.16450000 0.16449100 8686.09488001 0 190.20371743 0 3285.35807554 0 -155.76214385 0 539.09267247 0 28996
0.16550000 0.16550500 8452.88957468 0 114.89197848 0 3216.55464912 0 290.14252125 0 468.95503090 0 30777
0.16650000 0.16650700 8523.13240332 0 30.40571118 0 3144.01984923 0 410.83750516 0 184.75170469 0 29211
0.16750000 0.16749900 8384.08614825 0 -36.78547402 0 2702.77663288 0 301.80610821 0 304.01392978 0 30922
0.16850000 0.16850800 8434.97455312 0 171.75390259 0 2795.58485951 0 179.28751239 0 415.82005133 0 30867
0.16950000 0.16949900 8301.50874975 0 37.97674545 0 2365.25895543 0 130.21496880 0 511.74624463 0 30852
0.17050000 0.17049200 8269.06683804 0 86.83703258 0 2544.46453262 0 90.09727862 0 369.82450680 0 31257
0.17150000 0.17149500 8180.46609484 0 158.29327730 0 2158.50543410 0 -23.29218538 0 386.09196643 0 32608
0.17250000 0.17250900 8150.98049385 0 55.79034451 0 2273.49152734 0 181.76328422 0 211.84679076 0 32361
0.17350000 0.17350400 7956.24044493 0 69.41151850 0 2298.69213862 0 92.59752029 0 356.39599126 0 32508
0.17450000 0.17449800 8048.83829739 0 45.75571797 0 2098.57093985 0 199.95068497 0 33.57449982 0 32791
0.17550000 0.17549800 7800.20924359 0 132.85018210 0 2087.76435083 0 78.39272406 0 523.06105336 0 33633
0.17650000 0.17650100 7784.53083165 0 199.25202127 0 2010.56810219 0 156.79076283 0 285.07471818 0 33984
0.17750000 0.17750300 7597.09851712 0 48.32660107 0 2084.19906224 0 55.35819167 0 326.20840488 0 34069
0.17850000 0.17849800 7568.98588440 0 141.04923863 0 1947.97624999 0 281.22708530 0 316.50129771 0 34536
