### header ###
fiducial parameters:
Omega_m = 0.31
Omega_nu = 0
Omega_de = 0.69
Omega_k = 0
H_0 = 100
w_de = -1
zeff = 0
beta = 0
fgrowth = 0
b_1 = 2
gamma = 0.55
Lx = 3500 Ly = 3500 Lz = 3500
nx = 700 ny = 700 nz = 700
xoffset = -685.467585 yoffset = -31.7331281 zoffset = 572.489161
bins = 400 dk = 0.001
kx_ny = 0.628318531 ky_ny = 0.628318531 kz_ny = 0.628318531
############################
A(data) = 8.08504997 (not used)
A(ran) = 8.07992231 (used)
Ngal = 479979
weighted Ngal = 0
Nran = 23820508
weighted Nran = 0
SN(data) = 3493.77337
SN(ran) = 70.3790537
SN(data+ran) = 3564.15242
############################
13 columns: k_central k_mean P_0(k) sigma^{lin}_{P_0(k)} P^img_1(k) sigma^{lin}_{P_1(k)} P_2(k) sigma^{lin}_{P_2(k)} P^img_3(k) sigma^{lin}_{P_3(k)} P_4(k) sigma^{lin}_{P_4(k)} N_modes
### header ###
0.00050000 0 0 0 0 0 0 0 0 0 0 0 0
0.00150000 0.00179520 11751.27977653 0 -13234.41768598 0 14236.57380532 0 -43582.44205816 0 -41827.58929766 0 3
0.00250000 0.00253879 19470.01885410 0 -11092.14428007 0 -18472.84528093 0 22581.56357464 0 39241.75855951 0 6
0.00350000 0.00331552 32381.56754837 0 -16593.98248246 0 -844.18615392 0 -18250.95589157 0 -47169.98602265 0 7
0.00450000 0.00420575 41771.34188758 0 -18950.28392711 0 -22693.83694830 0 -2746.37944802 0 17636.88475713 0 24
0.00550000 0.00557378 67437.98732643 0 -14020.22057836 0 -19719.92122526 0 -16596.63984041 0 -22152.73243441 0 45
0.00650000 0.00659388 64865.44337807 0 1820.06875369 0 -34089.25220515 0 -30207.62729348 0 37036.15145563 0 40
0.00750000 0.00754703 81666.69978113 0 -5431.28534864 0 -17670.65534782 0 -22750.08435838 0 -33538.51476867 0 57
0.00850000 0.00846663 63207.91635272 0 3294.94670883 0 -6624.71587922 0 -24500.61891220 0 17283.12397917 0 75
0.00950000 0.00948925 72314.01773007 0 13322.88556128 0 9134.60154143 0 -24275.18637890 0 -4875.11140068 0 112
0.01050000 0.01054430 67162.61860819 0 -2855.66329398 0 11652.84680889 0 5264.75758337 0 24052.18975705 0 105
0.01150000 0.01145670 64082.85145989 0 -10016.10253722 0 16180.65259698 0 25254.64423235 0 21145.70449215 0 144
0.01250000 0.01249090 84478.40594558 0 -8439.91280999 0 23960.28946105 0 15961.42056557 0 2114.92476361 0 169
0.01350000 0.01339930 81486.55305633 0 2514.30351982 0 14739.47879858 0 19612.18750477 0 -5049.57802284 0 180
0.01450000 0.01448870 83251.14946268 0 2134.75529736 0 21948.78021125 0 317.34390163 0 15903.40158352 0 267
0.01550000 0.01550050 79238.20677866 0 -2946.74423794 0 8459.85406699 0 -11058.87194399 0 19978.12784003 0 238
0.01650000 0.01653350 84269.58189950 0 554.96152840 0 23410.54853381 0 14704.71169865 0 15694.24536769 0 315
0.01750000 0.01747870 87286.90113583 0 1088.79706104 0 18409.84375272 0 13278.04264577 0 5848.80057290 0 297
0.01850000 0.01844180 75693.51271122 0 2304.20615638 0 6019.32544743 0 4942.59722045 0 -2927.83270715 0 388
0.01950000 0.01947590 79171.99427624 0 2438.02627414 0 5989.80662947 0 2408.34137130 0 11490.30508055 0 399
0.02050000 0.02045430 83600.92420370 0 -3676.01183979 0 8553.80274307 0 3162.67671655 0 5291.87370685 0 462
0.02150000 0.02154770 79216.94791501 0 -3939.89855719 0 12127.18520412 0 380.02765412 0 11032.49766627 0 571
0.02250000 0.02255340 85259.11556854 0 75.61822090 0 17354.09758126 0 -5132.96370105 0 -1433.83284704 0 510
0.02350000 0.02348930 77222.04715243 0 3740.10952817 0 14794.95114592 0 -6262.52906208 0 903.49284734 0 555
0.02450000 0.02439640 79851.28140387 0 9696.10127764 0 22374.62182378 0 -5422.82609248 0 6540.57728292 0 592
0.02550000 0.02547300 68643.76349918 0 5159.60371457 0 22154.72545288 0 -1258.62437911 0 12165.16327825 0 837
0.02650000 0.02652900 68806.74812051 0 1030.44480201 0 23601.54613693 0 3132.31640190 0 5262.27738261 0 723
0.02750000 0.02749970 68740.86778784 0 -1250.80731779 0 26381.14255940 0 3069.40345228 0 8253.20019657 0 826
0.02850000 0.02848090 72173.28848162 0 1952.62662642 0 27019.68353169 0 3373.77058922 0 13338.60826253 0 831
0.02950000 0.02946900 66896.66136605 0 3696.18561561 0 28674.44247584 0 3153.17666185 0 22906.53630806 0 996
0.03050000 0.03053250 66051.62153589 0 2040.00941389 0 29377.42437858 0 5789.58577977 0 25653.80154207 0 1041
0.03150000 0.03150510 64534.38086599 0 1820.92132270 0 30049.51449507 0 12094.07895291 0 15578.42885009 0 1036
0.03250000 0.03246190 61820.00043670 0 1260.29630016 0 23366.81285077 0 2993.12620660 0 4291.31200229 0 1059
0.03350000 0.03345080 58934.33114246 0 4037.61182372 0 21120.90248456 0 4237.92125201 0 11745.63289087 0 1302
0.03450000 0.03451200 55304.15872742 0 857.24153211 0 16637.05382600 0 -587.49201871 0 2385.43273125 0 1339
0.03550000 0.03553350 54437.52786387 0 96.19226126 0 11191.90592669 0 4869.76346779 0 130.04002607 0 1365
0.03650000 0.03647120 54557.66258815 0 302.88787434 0 7595.84734441 0 892.68404385 0 -8456.52129722 0 1308
0.03750000 0.03744890 53352.32930839 0 1928.86541736 0 6527.00261269 0 1609.56171424 0 -9168.11746866 0 1579
0.03850000 0.03847530 49273.83846144 0 2062.69660744 0 7796.88754614 0 -3266.39118312 0 -4945.67532674 0 1662
0.03950000 0.03950240 50210.33569460 0 3498.78820874 0 12535.08965044 0 -2257.73560912 0 -6027.24215968 0 1683
0.04050000 0.04050350 46124.98000627 0 3199.34825635 0 13892.55667320 0 -1176.87740497 0 1619.52680657 0 1822
0.04150000 0.04152450 46328.82150618 0 806.75283817 0 14185.08749491 0 -1122.91089381 0 -1978.27013070 0 1887
0.04250000 0.04250150 43689.73288566 0 549.88265300 0 16223.17032428 0 -2162.07072269 0 -2203.42585589 0 1920
0.04350000 0.04349210 45556.52685008 0 2865.93841141 0 18265.34991383 0 -3135.52737609 0 -10047.27113159 0 2005
0.04450000 0.04448520 40847.68855121 0 4344.64739094 0 19110.83263698 0 -4166.01757464 0 -8801.97783156 0 2151
0.04550000 0.04548030 39455.45442851 0 2490.99627607 0 20614.23290086 0 -1297.84255362 0 -2472.99267592 0 2274
0.04650000 0.04648670 37467.97212356 0 1205.93118530 0 20622.86931422 0 3606.30048273 0 -4820.10409098 0 2311
0.04750000 0.04749250 38755.24060698 0 664.85435222 0 24939.74731451 0 1955.73794969 0 -5397.21580517 0 2568
0.04850000 0.04851840 37442.72722298 0 559.24873257 0 25381.86524452 0 275.99984075 0 -1349.20706845 0 2493
0.04950000 0.04949480 37159.71860061 0 320.76303553 0 24986.69397174 0 115.14110579 0 2074.48863337 0 2644
0.05050000 0.05050630 37182.97048273 0 1645.59105920 0 28503.59650389 0 3320.50163451 0 4694.02352827 0 2829
0.05150000 0.05149060 36912.03069442 0 -12.09153232 0 23931.83358627 0 3864.76176097 0 -244.03736070 0 2784
0.05250000 0.05249300 35965.78981542 0 73.63306379 0 21713.49330885 0 6973.66019588 0 3949.78614326 0 3055
0.05350000 0.05348950 35401.21197291 0 -900.30733949 0 15497.82232541 0 6520.50315803 0 -636.68857235 0 3009
0.05450000 0.05448610 37113.32555962 0 -1421.13289047 0 14379.07462574 0 4192.58008188 0 -4218.81041938 0 3336
0.05550000 0.05550870 37334.43988625 0 -573.65493439 0 12941.44397128 0 -975.07321283 0 -3741.15032670 0 3349
0.05650000 0.05647670 36809.50096660 0 517.09860645 0 10658.21987043 0 -527.75018292 0 -1743.54791687 0 3324
0.05750000 0.05747970 37240.21440204 0 30.29830963 0 12153.42661394 0 -196.56587527 0 517.14953914 0 3639
0.05850000 0.05849280 37281.51417362 0 -109.13005137 0 12356.49305111 0 -148.15988563 0 -2003.01677667 0 3846
0.05950000 0.05951020 36946.35490136 0 1370.73166790 0 13927.54521963 0 1091.72901265 0 -2484.17572399 0 3787
0.06050000 0.06049470 35079.00732069 0 1941.74253112 0 12812.89428014 0 -153.16679091 0 -2166.28927844 0 3930
0.06150000 0.06148310 34433.38006052 0 979.21094061 0 14019.66696212 0 -139.04625507 0 -384.75442959 0 4083
0.06250000 0.06249100 33104.92252877 0 645.82324032 0 13221.68451244 0 1074.85478963 0 -1695.20614671 0 4303
0.06350000 0.06350600 32974.82271216 0 985.09255956 0 14066.50289610 0 -164.76615839 0 -3747.09616513 0 4470
0.06450000 0.06451750 32367.50569585 0 815.39478769 0 15518.52757282 0 487.35944922 0 -178.32311290 0 4479
0.06550000 0.06550280 31668.28838355 0 -16.17522716 0 12664.52512757 0 1448.50367742 0 319.02689500 0 4636
0.06650000 0.06648880 32988.55239493 0 -506.13368318 0 14530.54402925 0 3127.65495315 0 1726.98371894 0 4653
0.06750000 0.06749660 32575.22250945 0 55.76974999 0 12424.36640225 0 642.18376716 0 311.16665161 0 5220
0.06850000 0.06852730 32839.18673313 0 995.62455493 0 14840.23695443 0 316.42489867 0 1518.58042120 0 5029
0.06950000 0.06949320 31089.75941178 0 1172.86922339 0 12653.89569574 0 -1065.77437605 0 1390.41826143 0 5040
0.07050000 0.07048030 31219.08416566 0 682.68633134 0 13368.83570928 0 -628.76410948 0 1507.53024103 0 5475
0.07150000 0.07148790 30036.55987503 0 493.66292374 0 14142.68049086 0 598.95298213 0 315.65758656 0 5509
0.07250000 0.07249820 30116.39133697 0 -154.64383904 0 12585.24728187 0 1777.39601384 0 -76.25255439 0 5916
0.07350000 0.07351270 29811.79168121 0 362.97295220 0 12940.44746205 0 1181.33955188 0 256.66091823 0 5721
0.07450000 0.07449140 29928.38326155 0 679.11218489 0 12411.52250546 0 456.19749825 0 2157.02174257 0 6028
0.07550000 0.07549160 28935.74934156 0 1093.78292891 0 13143.07100623 0 454.39160207 0 1757.69834799 0 6183
0.07650000 0.07648840 28390.21589775 0 1407.52500327 0 12275.44363344 0 651.17338768 0 2448.93251409 0 6330
0.07750000 0.07749960 26927.89395895 0 755.60534090 0 13058.14627487 0 596.15832735 0 783.27950955 0 6583
0.07850000 0.07848650 26145.08059427 0 764.48313094 0 11572.90462370 0 1077.69816264 0 710.16451985 0 6549
0.07950000 0.07947320 26100.90201824 0 591.07391579 0 11687.72463207 0 1403.15143497 0 -518.18369428 0 6828
0.08050000 0.08048110 24660.61400583 0 871.73188360 0 11142.63408124 0 147.48115212 0 134.73137009 0 7147
0.08150000 0.08149960 24895.79018498 0 507.46900555 0 10862.21638289 0 119.30651439 0 750.83538337 0 7386
0.08250000 0.08250610 24300.87417248 0 -212.18228220 0 11295.98577998 0 1512.71208905 0 2057.99086939 0 7227
0.08350000 0.08350160 24649.65240426 0 106.80862775 0 11544.11657917 0 1140.31658842 0 1887.28883766 0 7798
0.08450000 0.08449610 24170.22073962 0 702.48143365 0 11027.89157915 0 1402.07741946 0 2884.10809644 0 7371
0.08550000 0.08548940 24063.70497486 0 390.31827281 0 10796.97824506 0 2214.47603605 0 4448.40614681 0 8256
0.08650000 0.08650700 23158.21025119 0 121.85425633 0 9755.39357704 0 1457.70477935 0 4478.25713453 0 8037
0.08750000 0.08749060 23069.52092939 0 486.87005246 0 9668.49797186 0 1535.21105308 0 4858.60256437 0 8155
0.08850000 0.08849210 22526.31267379 0 328.66756822 0 8458.65825591 0 646.03582896 0 4116.59071665 0 8718
0.08950000 0.08949900 22040.90195374 0 551.57671870 0 8073.57387104 0 351.98588429 0 3970.67962019 0 8571
0.09050000 0.09049190 21498.69020737 0 377.46551816 0 8278.43402483 0 -446.96428658 0 2402.22944800 0 8932
0.09150000 0.09150830 21578.63239256 0 583.99980747 0 7843.45774433 0 -434.25547215 0 2371.75841010 0 9285
0.09250000 0.09250820 20603.82491553 0 676.41275210 0 8344.10398333 0 -649.15822456 0 2887.23049204 0 9204
0.09350000 0.09350330 20683.98854722 0 699.26935222 0 8225.32008268 0 97.82742219 0 1663.39535751 0 9349
0.09450000 0.09448040 19905.93628221 0 553.64392174 0 8935.68722607 0 -213.11346471 0 2594.11283711 0 9564
0.09550000 0.09549270 19473.56199804 0 952.02063256 0 8878.67582558 0 171.89230665 0 1476.78239501 0 10155
0.09650000 0.09649430 18717.54365943 0 725.96362013 0 8857.66055307 0 246.59617497 0 2581.65647169 0 9913
0.09750000 0.09749140 18199.02668817 0 584.47038127 0 8385.44804420 0 291.43244709 0 1124.63817648 0 10476
0.09850000 0.09850240 17555.72461620 0 161.38356316 0 8077.06165336 0 557.16270657 0 1532.29903165 0 10575
0.09950000 0.09950330 17499.14503638 0 61.87813014 0 7378.68583774 0 1263.34118948 0 369.51337448 0 10882
0.10050000 0.10051200 17241.82420760 0 -70.79888080 0 6608.16275361 0 1322.71099516 0 113.00414710 0 10875
0.10150000 0.10150300 17101.98074514 0 -154.86860724 0 5665.43180158 0 951.54230812 0 -1146.15170360 0 11118
0.10250000 0.10250800 16910.76169552 0 236.26458868 0 4787.78397483 0 789.52430075 0 -1253.91864106 0 11575
0.10350000 0.10349800 16554.67572935 0 394.29102295 0 4605.53350832 0 815.72031404 0 269.38523391 0 11364
0.10450000 0.10450100 16254.06211052 0 479.56231808 0 3941.94693728 0 1023.43048424 0 -254.06999422 0 12093
0.10550000 0.10551000 15900.07988607 0 274.54272281 0 3982.63773099 0 482.10673832 0 -188.85067934 0 12067
0.10650000 0.10649700 15307.48906178 0 600.66476355 0 3472.61323287 0 19.19830400 0 -56.02408129 0 12054
0.10750000 0.10749900 15183.58974706 0 398.63137428 0 3729.50224099 0 -306.09884854 0 300.25708997 0 12807
0.10850000 0.10850100 14637.05979401 0 177.38417976 0 3843.44753570 0 -173.34278120 0 491.27683774 0 12736
0.10950000 0.10950300 14932.35869692 0 -22.33487218 0 3597.27653801 0 337.23644040 0 -174.72460734 0 12933
0.11050000 0.11050200 14518.36447195 0 146.59204444 0 3885.65523791 0 521.79105771 0 155.63813381 0 13428
0.11150000 0.11150900 14563.09666422 0 45.86455893 0 3133.26862183 0 313.76643348 0 -930.42738470 0 13453
0.11250000 0.11250000 14540.95201458 0 -5.56943475 0 3364.25946220 0 180.35709897 0 -233.31492135 0 13668
0.11350000 0.11349100 14552.35650915 0 19.84548139 0 3306.22940782 0 -139.53454460 0 -850.26043131 0 13791
0.11450000 0.11448600 14380.18185822 0 335.68742215 0 3574.83293560 0 -666.46758995 0 -41.37307036 0 14205
0.11550000 0.11549300 14386.93597636 0 195.50625379 0 4382.90227319 0 -587.01258705 0 141.39690963 0 14776
0.11650000 0.11649800 14349.06862548 0 -91.06134594 0 4743.00749326 0 -423.42452402 0 386.35880945 0 14553
0.11750000 0.11747300 14673.04484967 0 -4.79006487 0 5445.94510670 0 -93.42318355 0 14.74446134 0 14568
0.11850000 0.11849100 14604.39643579 0 218.30417059 0 5145.49757275 0 -120.26205602 0 149.36123287 0 16015
0.11950000 0.11950300 14494.44825035 0 215.06330111 0 5190.96053845 0 231.10377808 0 514.54975727 0 15270
0.12050000 0.12050700 14506.84925414 0 303.42156040 0 5186.97450152 0 284.94406474 0 561.03802026 0 15999
0.12150000 0.12150000 13953.45445971 0 244.20455281 0 4345.16779021 0 589.17833378 0 853.72164005 0 15670
0.12250000 0.12250700 13924.00207569 0 162.23281048 0 4661.83628002 0 908.29602185 0 232.67826267 0 16887
0.12350000 0.12352200 13433.27663973 0 180.31723860 0 4003.11045958 0 610.27554149 0 144.92012339 0 16407
0.12450000 0.12449800 13578.87771109 0 192.41818240 0 3862.43657276 0 199.39485426 0 105.48315974 0 16306
0.12550000 0.12549900 13196.32888861 0 212.37051172 0 4070.09802474 0 122.13327891 0 749.84994646 0 17523
0.12650000 0.12650100 13246.59724328 0 105.83902426 0 4199.03524725 0 -206.22094251 0 1188.71372021 0 17154
0.12750000 0.12750600 13114.61513145 0 105.99370464 0 4494.37843946 0 -250.18582267 0 1538.17843613 0 18007
0.12850000 0.12850300 12962.03849544 0 448.71149944 0 4684.18023150 0 -107.25118857 0 1938.58691855 0 17496
0.12950000 0.12949900 12828.17408839 0 329.64414727 0 4923.38673688 0 87.78559865 0 1656.17620172 0 18405
0.13050000 0.13049000 12515.71308201 0 128.81874864 0 5293.29096443 0 57.24469438 0 1601.88859314 0 18100
0.13150000 0.13148800 12345.97434254 0 363.84877310 0 5309.62264353 0 -48.69508804 0 624.68617225 0 19059
0.13250000 0.13249300 12257.50646723 0 145.85684207 0 4870.17314381 0 125.70963983 0 1270.73750246 0 18957
0.13350000 0.13349100 11909.50329818 0 45.85503673 0 4685.36497026 0 323.84778523 0 1291.52025615 0 19468
0.13450000 0.13450700 12180.44308650 0 -211.97190803 0 4365.95054389 0 943.73410466 0 933.24307690 0 19953
0.13550000 0.13551000 12121.64904171 0 73.77622895 0 4167.15802410 0 419.81383889 0 511.35982049 0 19956
0.13650000 0.13649900 11883.37261161 0 408.22000758 0 3605.42576907 0 303.64189966 0 736.65062804 0 19723
0.13750000 0.13749600 11724.37402722 0 269.99753347 0 3746.09965589 0 226.38696771 0 1174.81795256 0 20946
0.13850000 0.13851100 11414.57037879 0 161.64929896 0 3764.83402949 0 -182.94137958 0 768.76812065 0 20955
0.13950000 0.13949800 11330.19926367 0 219.26081945 0 3794.64072790 0 -60.44094238 0 667.84830885 0 20506
0.14050000 0.14048300 11102.22009566 0 136.33464272 0 4099.84936152 0 33.60605595 0 697.21432874 0 21447
0.14150000 0.14148400 11013.97366685 0 110.93362236 0 4122.43690415 0 -194.23515090 0 804.11319593 0 21771
0.14250000 0.14249400 11084.06148295 0 82.29162179 0 4183.50077553 0 239.58074996 0 608.70327137 0 22470
0.14350000 0.14350900 11029.38634300 0 95.88068604 0 4098.40995930 0 228.97567725 0 544.93332381 0 22519
0.14450000 0.14449900 10898.64433154 0 89.83154283 0 3880.08585852 0 218.92311355 0 818.88035554 0 22218
0.14550000 0.14550500 10802.85764953 0 252.34160431 0 3923.53366111 0 -60.57325666 0 848.36817100 0 23559
0.14650000 0.14650700 10637.97966066 0 352.00249277 0 3880.62840244 0 459.08626779 0 1485.03127700 0 23044
0.14750000 0.14750500 10371.94491224 0 122.42669552 0 3743.86304628 0 558.60985943 0 942.43089203 0 23649
0.14850000 0.14849900 10144.66330069 0 116.56611399 0 3605.20432258 0 378.56721448 0 1789.50913719 0 23640
0.14950000 0.14949500 10182.84067667 0 104.51599217 0 3617.39495220 0 115.56074690 0 745.97020384 0 24457
0.15050000 0.15050000 9838.67960433 0 135.24180426 0 3456.49192794 0 41.54280910 0 1633.51115282 0 24591
0.15150000 0.15149900 9841.69127668 0 243.62768468 0 3489.08885220 0 -279.84968809 0 1129.27748058 0 25020
0.15250000 0.15250500 9763.26599999 0 29.63109134 0 3526.22542964 0 -252.58298100 0 1161.56437975 0 25297
0.15350000 0.15350100 9745.97102862 0 -97.15178893 0 3308.67639161 0 9.19551040 0 699.87168669 0 25452
0.15450000 0.15450400 9890.33199961 0 -88.21609063 0 3353.18713738 0 32.88148301 0 364.65816004 0 26061
0.15550000 0.15549900 9799.23998332 0 154.34820797 0 3308.59888533 0 304.18001465 0 174.43119073 0 26128
0.15650000 0.15649500 9703.80761571 0 256.81039461 0 2957.89406903 0 346.33014077 0 34.50036763 0 26331
0.15750000 0.15749700 9512.36711960 0 187.84974118 0 2749.23610782 0 467.38165355 0 530.75521188 0 27345
0.15850000 0.15849900 9336.94827750 0 94.41637109 0 2397.71193948 0 582.25923801 0 312.19527059 0 26980
0.15950000 0.15949700 9271.75442896 0 78.38253752 0 2151.91740083 0 505.25896952 0 925.68732244 0 27777
0.16050000 0.16050000 9178.71368351 0 101.07316349 0 2372.06843520 0 423.35033944 0 885.31984062 0 28224
0.16150000 0.16150500 9169.28006277 0 -47.35755121 0 1948.04268394 0 50.85917393 0 1110.87527673 0 28075
0.16250000 0.16249700 9188.46840168 0 174.27285648 0 2343.11430580 0 -86.25872505 0 1159.19490224 0 28590
0.16350000 0.16349900 9015.40796476 0 222.47511535 0 2286.05861601 0 -472.03978060 0 1202.10016091 0 29163
0.16450000 0.16449100 8928.84452933 0 40.45041354 0 2420.83095370 0 105.46079365 0 1252.34637094 0 28996
0.16550000 0.16550500 8855.84469180 0 54.10967633 0 2692.47937080 0 -193.03712535 0 964.03631945 0 30777
0.16650000 0.16650700 8894.63104564 0 146.54111174 0 2460.52523817 0 38.44233671 0 654.02672578 0 29211
0.16750000 0.16749900 8753.12673446 0 136.99233882 0 2528.91898858 0 -75.56197349 0 339.57712986 0 30922
0.16850000 0.16850800 8476.86115791 0 152.98963372 0 2241.73609976 0 20.57071866 0 477.26481068 0 30867
0.16950000 0.16949900 8518.47095458 0 189.85161750 0 2386.62854233 0 -26.00601219 0 212.18338943 0 30852
0.17050000 0.17049200 8425.52986005 0 24.43706377 0 2107.97134362 0 147.76571087 0 461.08039349 0 31257
0.17150000 0.17149500 8353.49331478 0 -57.27691484 0 2201.05637837 0 208.27818047 0 275.46726193 0 32608
0.17250000 0.17250900 8496.01627984 0 32.44390474 0 2031.72731492 0 172.51457130 0 340.07317001 0 32361
0.17350000 0.17350400 8442.37086610 0 92.53573672 0 2318.84376979 0 98.30917905 0 554.97038626 0 32508
0.17450000 0.17449800 8295.98365967 0 283.44597919 0 2294.08605150 0 -156.80626408 0 477.36667607 0 32791
0.17550000 0.17549800 8193.14390675 0 256.86686347 0 2355.52638192 0 -37.68100365 0 790.23846570 0 33633
0.17650000 0.17650100 7932.25778938 0 180.27737823 0 2446.54089193 0 -128.85639454 0 692.54845106 0 33984
0.17750000 0.17750300 7893.96969015 0 49.91625475 0 2317.16077642 0 75.46719439 0 596.49824772 0 34069
0.17850000 0.17849800 7914.87423941 0 -103.42470384 0 2440.68363210 0 32.06489906 0 130.05220562 0 34536
