### header ###
fiducial parameters:
Omega_m = 0.31
Omega_nu = 0
Omega_de = 0.69
Omega_k = 0
H_0 = 100
w_de = -1
zeff = 0
beta = 0
fgrowth = 0
b_1 = 2
gamma = 0.55
Lx = 3500 Ly = 3500 Lz = 3500
nx = 700 ny = 700 nz = 700
xoffset = -685.467585 yoffset = -31.7331281 zoffset = 572.489161
bins = 400 dk = 0.001
kx_ny = 0.628318531 ky_ny = 0.628318531 kz_ny = 0.628318531
############################
A(data) = 7.99932761 (not used)
A(ran) = 7.99263612 (used)
Ngal = 474935
weighted Ngal = 0
Nran = 23820508
weighted Nran = 0
SN(data) = 3494.92692
SN(ran) = 69.6187592
SN(data+ran) = 3564.54568
############################
13 columns: k_central k_mean P_0(k) sigma^{lin}_{P_0(k)} P^img_1(k) sigma^{lin}_{P_1(k)} P_2(k) sigma^{lin}_{P_2(k)} P^img_3(k) sigma^{lin}_{P_3(k)} P_4(k) sigma^{lin}_{P_4(k)} N_modes
### header ###
0.00050000 0 0 0 0 0 0 0 0 0 0 0 0
0.00150000 0.00179520 33029.18782701 0 -14506.29563790 0 11406.81975142 0 35639.26695651 0 -69543.94350694 0 3
0.00250000 0.00253879 56273.65148854 0 -4874.41384421 0 36334.83040162 0 -10846.05078865 0 75175.66007945 0 6
0.00350000 0.00331552 53037.21094405 0 9989.82791043 0 51573.11743328 0 -24498.62589374 0 50428.34977028 0 7
0.00450000 0.00420575 48012.25777161 0 15938.50085319 0 60497.41123711 0 1444.46227887 0 41469.62103627 0 24
0.00550000 0.00557378 54617.67458867 0 -6583.77042204 0 71350.83619409 0 37736.58672366 0 -13667.89920263 0 45
0.00650000 0.00659388 76760.77410048 0 -20474.27871515 0 77555.76702246 0 43879.51253305 0 21130.53540715 0 40
0.00750000 0.00754703 79297.99733268 0 -5108.23919973 0 40014.71755510 0 17722.69527447 0 -14480.16495133 0 57
0.00850000 0.00846663 87742.52730211 0 9206.31698928 0 21217.23171048 0 10024.73895058 0 -186.38708707 0 75
0.00950000 0.00948925 105409.63950599 0 -27120.10951780 0 20147.75585625 0 -19992.74330879 0 -33656.10285825 0 112
0.01050000 0.01054430 108931.63530756 0 8857.59411912 0 46743.25862414 0 5044.52904273 0 21628.01496125 0 105
0.01150000 0.01145670 98460.75917306 0 25889.86350720 0 39077.00236621 0 -8304.86366417 0 -25061.87505726 0 144
0.01250000 0.01249090 91268.17697087 0 16160.39024256 0 51302.39909147 0 15708.41794346 0 -59.11458859 0 169
0.01350000 0.01339930 83572.24688242 0 2341.75240984 0 51525.50643656 0 1050.71379983 0 -30334.18396616 0 180
0.01450000 0.01448870 72882.80305600 0 8106.95693037 0 53543.76980451 0 23538.54460871 0 -6473.97724914 0 267
0.01550000 0.01550050 76571.21589959 0 632.38254523 0 52269.34521788 0 8218.37773502 0 10796.62393066 0 238
0.01650000 0.01653350 79544.79945289 0 -13250.47255697 0 36629.90785804 0 13845.05639973 0 -7198.95986129 0 315
0.01750000 0.01747870 74739.85337459 0 -1741.13415006 0 37357.58104512 0 1769.65645879 0 -22457.66425992 0 297
0.01850000 0.01844180 81775.31928760 0 9529.04204077 0 28178.18087747 0 -10359.67677634 0 -24494.75058005 0 388
0.01950000 0.01947590 72264.41371488 0 3802.98926081 0 28959.99773291 0 -199.51997153 0 2037.28562198 0 399
0.02050000 0.02045430 71372.31650424 0 2217.56521468 0 30640.77664038 0 -3739.55591192 0 -1052.19416966 0 462
0.02150000 0.02154770 72074.85551399 0 3554.26055608 0 31862.05406788 0 17064.00267101 0 1844.71574874 0 571
0.02250000 0.02255340 67713.90966091 0 2502.09074554 0 29962.48602199 0 26540.14114380 0 13250.47255697 0 510
0.02350000 0.02348930 66717.51115048 0 -1553.35859346 0 17062.67399203 0 28611.10877788 0 22335.86868691 0 555
0.02450000 0.02439640 69998.35171750 0 -1982.46654180 0 10163.60804846 0 24222.03921977 0 20926.47246075 0 592
0.02550000 0.02547300 69519.25222259 0 -240.43442620 0 5179.89928596 0 13096.45651874 0 24167.34193516 0 837
0.02650000 0.02652900 66116.83752907 0 1231.99543792 0 6355.91304960 0 -880.68496545 0 26797.01907959 0 723
0.02750000 0.02749970 66867.09825878 0 2138.01056086 0 2238.20402814 0 -7514.01179168 0 27982.42217468 0 826
0.02850000 0.02848090 61591.35692919 0 3204.55224901 0 14396.12600596 0 -8754.31147321 0 23550.50271952 0 831
0.02950000 0.02946900 59610.18584939 0 5689.41445714 0 12313.64315406 0 -1721.34790561 0 20668.15512273 0 996
0.03050000 0.03053250 54513.04111913 0 4156.22963950 0 15546.09766162 0 3336.71151805 0 23245.79234051 0 1041
0.03150000 0.03150510 54410.84356105 0 2541.22034145 0 15390.75294441 0 6523.78056617 0 19752.69530672 0 1036
0.03250000 0.03246190 54902.89767600 0 -1186.89785893 0 18958.69889398 0 5972.73310460 0 20320.81629317 0 1059
0.03350000 0.03345080 54141.01100522 0 -28.39143385 0 16176.33439030 0 3487.72695625 0 16515.92259249 0 1302
0.03450000 0.03451200 54073.58054708 0 817.86391612 0 14483.48664877 0 -2644.18188994 0 16083.43758507 0 1339
0.03550000 0.03553350 52942.98545985 0 1624.02217045 0 15742.29925741 0 -4924.04000405 0 16821.62948073 0 1365
0.03650000 0.03647120 52246.64695200 0 2049.42088998 0 18677.35112033 0 -2010.15842618 0 8112.58167137 0 1308
0.03750000 0.03744890 51469.81264273 0 2530.36946313 0 17517.63581883 0 126.85673268 0 8282.70794221 0 1579
0.03850000 0.03847530 48005.72509996 0 438.40095057 0 17651.83239563 0 -1742.06422534 0 1692.59307805 0 1662
0.03950000 0.03950240 48542.28996068 0 517.78176889 0 16978.08143042 0 961.02464710 0 -4615.56503460 0 1683
0.04050000 0.04050350 47384.45695439 0 1264.47056661 0 17151.80620682 0 1850.66158716 0 -7975.77202591 0 1822
0.04150000 0.04152450 45135.44633723 0 3745.76748615 0 12514.16295653 0 -3922.48179025 0 -7489.80768962 0 1887
0.04250000 0.04250150 45516.22358774 0 1613.84670394 0 18234.90102058 0 50.40066896 0 -5760.76451827 0 1920
0.04350000 0.04349210 43597.38969667 0 47.34692177 0 19973.14529386 0 -4764.77568386 0 -4719.98812997 0 2005
0.04450000 0.04448520 43155.93610615 0 1515.10371121 0 21263.40330498 0 1911.09433602 0 -895.42665871 0 2151
0.04550000 0.04548030 43486.88789498 0 -43.58875328 0 21718.25440853 0 2511.70152349 0 288.58353791 0 2274
0.04650000 0.04648670 44285.53468415 0 110.51453486 0 25126.09454121 0 5363.52272075 0 1863.77121975 0 2311
0.04750000 0.04749250 44170.93612227 0 158.44164646 0 23613.61497098 0 769.98939807 0 4293.52646725 0 2568
0.04850000 0.04851840 43646.99371186 0 1967.86214537 0 22979.39220537 0 3910.31330528 0 5116.38843080 0 2493
0.04950000 0.04949480 42463.25146549 0 2001.06804750 0 21729.10528685 0 -387.84139375 0 6675.94752615 0 2644
0.05050000 0.05050630 40589.26048994 0 1110.60954093 0 22710.11326578 0 2289.34709648 0 3292.89832874 0 2829
0.05150000 0.05149060 40158.54705449 0 1323.12067118 0 21821.00558284 0 1126.23259125 0 474.81229073 0 2784
0.05250000 0.05249300 38108.39539107 0 304.80449377 0 17115.82115116 0 3669.39058955 0 1616.21618145 0 3055
0.05350000 0.05348950 38366.26983610 0 -310.07713485 0 18662.51420508 0 2526.71559594 0 -1070.70045336 0 3009
0.05450000 0.05448610 38581.07293758 0 -1007.99677068 0 14889.61952312 0 3670.44246041 0 -401.63197431 0 3336
0.05550000 0.05550870 37702.15179348 0 300.08325447 0 14213.76481619 0 5202.19894814 0 -2424.68412274 0 3349
0.05650000 0.05647670 37380.72220399 0 985.30514819 0 10491.96891328 0 3791.19723488 0 1941.41036138 0 3324
0.05750000 0.05747970 37261.14109595 0 520.39040862 0 9823.66553187 0 2677.29921347 0 -588.90927629 0 3639
0.05850000 0.05849280 37102.36395805 0 161.57179268 0 8410.27219645 0 1657.47166373 0 2332.41844002 0 3846
0.05950000 0.05951020 35725.07747386 0 1641.07355067 0 10544.35208199 0 -3289.32196782 0 617.29982436 0 3787
0.06050000 0.06049470 34524.72674027 0 3179.25198680 0 11219.03312249 0 -3691.46880524 0 2151.69595433 0 3930
0.06150000 0.06148310 33026.97336205 0 718.25949652 0 12119.98819299 0 -1046.03684982 0 1349.15170683 0 4083
0.06250000 0.06249100 32959.10001091 0 186.60521187 0 12292.60573691 0 1849.53221003 0 2446.78448307 0 4303
0.06350000 0.06350600 32711.30138147 0 -110.58705859 0 13709.19897421 0 959.88530488 0 1168.13026837 0 4470
0.06450000 0.06451750 32114.17090400 0 740.40525339 0 11099.67346095 0 4257.64106251 0 960.67254717 0 4479
0.06550000 0.06550280 31001.40225973 0 889.92482051 0 9545.82768520 0 1651.59225925 0 1992.22125997 0 4636
0.06650000 0.06648880 30943.49400093 0 641.83831062 0 9077.02545238 0 2812.73589066 0 1924.79080182 0 4653
0.06750000 0.06749660 29693.42852890 0 953.55193508 0 8378.77143234 0 505.52249085 0 2148.00887017 0 5220
0.06850000 0.06852730 28873.30142958 0 741.50141355 0 7743.12033683 0 -712.98685544 0 225.97507722 0 5029
0.06950000 0.06949320 28791.80911892 0 354.18374076 0 9520.85959273 0 -1345.95180495 0 299.80533911 0 5040
0.07050000 0.07048030 27921.85655792 0 479.87234318 0 8913.79723990 0 -1239.23673835 0 -52.81067118 0 5475
0.07150000 0.07148790 27889.30392295 0 499.59879707 0 10373.68326724 0 357.55969260 0 1476.56094852 0 5509
0.07250000 0.07249820 27825.19516225 0 135.69244788 0 10436.90624195 0 386.05432052 0 878.79602683 0 5916
0.07350000 0.07351270 27609.83844453 0 980.55733531 0 11154.37074555 0 477.24377326 0 425.46736795 0 5721
0.07450000 0.07449140 26910.62113223 0 1043.36066892 0 11784.38602773 0 -713.60026224 0 3103.43977877 0 6028
0.07550000 0.07549160 26376.16001323 0 53.58595536 0 11175.07599296 0 1138.58930575 0 1669.38548523 0 6183
0.07650000 0.07648840 26616.87235479 0 -965.46354212 0 11947.81354206 0 1072.35798038 0 1477.11456476 0 6330
0.07750000 0.07749960 27698.41704308 0 -258.29297890 0 11435.38634945 0 1552.95998976 0 -358.05241106 0 6583
0.07850000 0.07848650 26529.40098872 0 1068.37083622 0 11210.95032538 0 -724.11675635 0 -434.00523761 0 6549
0.07950000 0.07947320 25658.11974875 0 1615.92830101 0 10152.20355389 0 -93.95343719 0 -1114.47378230 0 6828
0.08050000 0.08048110 24802.45048676 0 781.74709980 0 9842.75421986 0 240.68466075 0 1366.42453354 0 7147
0.08150000 0.08149960 24540.70072805 0 240.18529890 0 9905.12462556 0 1187.45147518 0 704.04263145 0 7386
0.08250000 0.08250610 24672.35067014 0 -215.81843367 0 9700.44162897 0 919.13029168 0 799.36206135 0 7227
0.08350000 0.08350160 24625.29328966 0 2.56429507 0 10024.05246644 0 554.10563769 0 269.40848579 0 7798
0.08450000 0.08449610 23923.64006590 0 1119.64455799 0 10145.27227856 0 -480.09600414 0 126.85894714 0 7371
0.08550000 0.08548940 23581.94812200 0 760.05530825 0 10759.47628090 0 -200.37475501 0 1635.16092922 0 8256
0.08650000 0.08650700 22866.12232248 0 464.40430540 0 11056.76820228 0 -488.46003830 0 176.95789525 0 8037
0.08750000 0.08749060 22056.95682473 0 617.66521108 0 9778.39079569 0 -105.94996896 0 -404.23064894 0 8155
0.08850000 0.08849210 22154.17183664 0 491.19490253 0 10226.42134715 0 549.86161559 0 -1976.55392035 0 8718
0.08950000 0.08949900 21120.01669858 0 535.28711443 0 8911.46097936 0 1451.58178372 0 -979.92842726 0 8571
0.09050000 0.09049190 21136.40373931 0 -41.27674114 0 7708.51932177 0 1332.13354358 0 -2425.14916038 0 8932
0.09150000 0.09150830 20823.94273292 0 176.24151584 0 6974.94458556 0 1492.42758998 0 -1841.19474944 0 9285
0.09250000 0.09250820 20717.86986116 0 656.36298632 0 6637.17224464 0 303.86666786 0 -1917.77094789 0 9204
0.09350000 0.09350330 19689.25088551 0 935.50515286 0 6782.35256766 0 300.62247669 0 -1631.87244875 0 9349
0.09450000 0.09448040 19344.68013715 0 459.79711105 0 6984.04603656 0 -305.66813511 0 -1080.66665293 0 9564
0.09550000 0.09549270 19036.31589095 0 -85.40958846 0 6428.39248786 0 86.98052991 0 -695.71070703 0 10155
0.09650000 0.09649430 19234.95339820 0 131.42517390 0 6803.14639367 0 637.90984978 0 -1192.09077927 0 9913
0.09750000 0.09749140 18991.03008245 0 -29.99060973 0 5768.53729029 0 494.51327828 0 -1945.29674739 0 10476
0.09850000 0.09850240 18836.57115123 0 373.59906233 0 6308.14704033 0 666.76543549 0 -985.69267956 0 10575
0.09950000 0.09950330 18064.27649513 0 877.85045029 0 5358.47374063 0 470.44425859 0 -1067.71646182 0 10882
0.10050000 0.10051200 17431.93602473 0 801.95852152 0 6037.10760109 0 873.70829358 0 -499.92653789 0 10875
0.10150000 0.10150300 16732.27581944 0 145.14489158 0 5052.85543099 0 1313.10021722 0 527.94505584 0 11118
0.10250000 0.10250800 16793.39505244 0 -111.95449071 0 5333.33956330 0 1025.18987666 0 797.33028975 0 11575
0.10350000 0.10349800 16878.76267679 0 157.82713243 0 5002.83066746 0 284.26976016 0 1087.90463166 0 11364
0.10450000 0.10450100 16715.33516247 0 258.63511374 0 4959.27214162 0 87.36163933 0 1874.45601320 0 12093
0.10550000 0.10551000 16419.26119682 0 330.48010779 0 4776.63414374 0 -98.20631715 0 2178.49098039 0 12067
0.10650000 0.10649700 16126.28748212 0 375.52232515 0 4969.54725905 0 -48.92561385 0 1258.45829424 0 12054
0.10750000 0.10749900 16020.98967309 0 364.63601539 0 4933.82793919 0 255.02221415 0 1006.57397694 0 12807
0.10850000 0.10850100 15552.18744027 0 307.25147756 0 4865.68885225 0 33.71035725 0 620.25834955 0 12736
0.10950000 0.10950300 15237.40124568 0 300.21722960 0 4646.45682085 0 -94.72429244 0 719.17407055 0 12933
0.11050000 0.11050200 15077.51687530 0 353.64119685 0 5085.19769178 0 208.06227013 0 706.95022395 0 13428
0.11150000 0.11150900 15078.18121478 0 -34.72369642 0 4898.47400604 0 -188.95143750 0 900.18332945 0 13453
0.11250000 0.11250000 15006.76471970 0 8.98896725 0 5407.50199493 0 189.96123352 0 1139.56367034 0 13668
0.11350000 0.11349100 15176.17128943 0 143.18287562 0 5386.99604937 0 -81.07001220 0 1429.88002708 0 13791
0.11450000 0.11448600 15119.14881661 0 80.80006892 0 5705.14823071 0 -250.98081559 0 1199.32100738 0 14205
0.11550000 0.11549300 14865.59257827 0 443.91053940 0 5833.29931816 0 19.14404961 0 1249.43434951 0 14776
0.11650000 0.11649800 14799.38007585 0 327.35881943 0 6035.92286234 0 -141.09131347 0 1592.99751631 0 14553
0.11750000 0.11747300 14573.61537280 0 -7.29885438 0 5863.31639074 0 701.89238597 0 1524.34910243 0 14568
0.11850000 0.11849100 14402.76940085 0 142.00367303 0 5749.59254253 0 552.93861465 0 1073.35559685 0 16015
0.11950000 0.11950300 14523.23629487 0 114.17449183 0 5110.40937540 0 524.54363766 0 1090.27964533 0 15270
0.12050000 0.12050700 14007.59812807 0 276.69518275 0 4706.33595346 0 715.16810343 0 1094.15385179 0 15999
0.12150000 0.12150000 13977.81357431 0 171.01648575 0 4362.61777412 0 823.18084650 0 1836.35614350 0 15670
0.12250000 0.12250700 13902.85393529 0 -362.12259766 0 4051.33043417 0 788.59090377 0 941.25611837 0 16887
0.12350000 0.12352200 14034.50387738 0 -133.66621244 0 3805.83484829 0 866.83459433 0 703.29635676 0 16407
0.12450000 0.12449800 13972.49885839 0 219.14898897 0 3359.52050717 0 -77.20853892 0 669.69849433 0 16306
0.12550000 0.12549900 13761.12817761 0 441.25650314 0 3464.32006158 0 -135.34145519 0 1186.56568919 0 17523
0.12650000 0.12650100 13416.88959899 0 374.84580611 0 3489.53174519 0 -272.04591356 0 1173.13495919 0 17154
0.12750000 0.12750600 13141.52088075 0 574.51746849 0 3696.90531672 0 -106.29420754 0 1278.36633426 0 18007
0.12850000 0.12850300 12773.58752703 0 263.59330080 0 3293.49623428 0 -117.75749614 0 1213.52680012 0 17496
0.12950000 0.12949900 12532.10012274 0 80.19773445 0 3418.46956451 0 499.13486666 0 1480.31446663 0 18405
0.13050000 0.13049000 12657.32811644 0 23.88156523 0 3103.29583855 0 334.18933661 0 703.19559860 0 18100
0.13150000 0.13148800 12446.84322163 0 2.47057891 0 3157.56130248 0 522.19741203 0 427.34191254 0 19059
0.13250000 0.13249300 12433.99932484 0 53.75226168 0 2667.77701413 0 -125.38189901 0 227.91384130 0 18957
0.13350000 0.13349100 12176.12487982 0 209.15400136 0 2656.48324281 0 -336.17681891 0 100.29887582 0 19468
0.13450000 0.13450700 12186.97575814 0 101.43201754 0 2444.04961884 0 87.50912269 0 -167.36040410 0 19953
0.13550000 0.13551000 12000.18563845 0 121.49772747 0 2572.56609301 0 275.31889278 0 -66.47392000 0 19956
0.13650000 0.13649900 12005.50035436 0 -12.07979565 0 2199.45089128 0 312.55733561 0 -558.47145537 0 19723
0.13750000 0.13749600 11868.64641960 0 76.45761385 0 2165.45885408 0 347.82379739 0 -541.49204526 0 20946
0.13850000 0.13851100 11943.05244238 0 323.09043821 0 2015.99354136 0 84.83515625 0 -412.79398496 0 20955
0.13950000 0.13949800 11611.21486757 0 284.84773552 0 2166.93147328 0 -351.16763948 0 -282.03315055 0 20506
0.14050000 0.14048300 11421.98883642 0 347.95334359 0 2450.25012074 0 -365.43765171 0 88.15552502 0 21447
0.14150000 0.14148400 11411.58085109 0 97.07627568 0 2838.67834771 0 -267.46418555 0 245.88090278 0 21771
0.14250000 0.14249400 11117.27845741 0 217.36191575 0 3185.16460826 0 44.44375821 0 191.53903981 0 22470
0.14350000 0.14350900 11166.43957960 0 249.26017632 0 3133.86652737 0 -370.42684127 0 -29.27821635 0 22519
0.14450000 0.14449900 10887.52771742 0 143.01568352 0 3532.34842527 0 47.87385371 0 247.03906796 0 22218
0.14550000 0.14550500 10900.24981864 0 45.32732973 0 3402.09359610 0 -157.39974069 0 56.10645938 0 23559
0.14650000 0.14650700 10761.55787796 0 12.85242248 0 3609.35644438 0 19.67961796 0 100.48987342 0 23044
0.14750000 0.14750500 10941.13991419 0 1.39616480 0 3557.59332586 0 204.86568996 0 -199.57976209 0 23649
0.14850000 0.14849900 10722.05182301 0 187.98593077 0 3173.10684653 0 356.57425569 0 125.49815842 0 23640
0.14950000 0.14949500 10712.70678086 0 282.09404833 0 3392.20601004 0 173.47786356 0 9.77505803 0 24457
0.15050000 0.15050000 10429.97496662 0 157.15393508 0 3084.19607823 0 391.23395407 0 390.41460204 0 24591
0.15150000 0.15149900 10372.93034915 0 101.59965254 0 2864.07826084 0 389.83441221 0 440.46815361 0 25020
0.15250000 0.15250500 10423.04369128 0 -49.07664036 0 2943.35610654 0 209.98774742 0 724.14775886 0 25297
0.15350000 0.15350100 10283.22237347 0 34.22322734 0 2986.75961983 0 445.06649011 0 576.55366903 0 25452
0.15450000 0.15450400 10235.04668819 0 309.30207211 0 2876.00315467 0 -66.11008341 0 627.92372002 0 26061
0.15550000 0.15549900 9916.17480573 0 372.87161059 0 2631.39335478 0 -43.37627537 0 829.77884486 0 26128
0.15650000 0.15649500 9681.36401330 0 298.66046073 0 2868.35217822 0 -175.50188454 0 505.37301446 0 26331
0.15750000 0.15749700 9428.69356094 0 129.03908790 0 2934.07749834 0 -168.75219533 0 734.24018293 0 27345
0.15850000 0.15849900 9464.21357896 0 80.49336552 0 3074.54101099 0 -13.24117180 0 322.56450278 0 26980
0.15950000 0.15949700 9321.28093788 0 165.45485700 0 3147.86194594 0 -19.31079882 0 192.27977834 0 27777
0.16050000 0.16050000 9240.57476227 0 59.47344264 0 3130.93236129 0 565.28204236 0 609.31114200 0 28224
0.16150000 0.16150500 9270.13786954 0 -107.19881647 0 2659.06309450 0 578.64523118 0 605.14684064 0 28075
0.16250000 0.16249700 9197.69164825 0 31.56387636 0 2403.00451074 0 497.16288561 0 462.84864377 0 28590
0.16350000 0.16349900 9186.56396181 0 108.41134676 0 2284.82958795 0 386.46731824 0 234.09441301 0 29163
0.16450000 0.16449100 9082.00799855 0 126.77147578 0 1983.28589384 0 -3.59121998 0 660.56936252 0 28996
0.16550000 0.16550500 8923.47445179 0 184.64983930 0 2080.75556922 0 -245.99826943 0 778.33460929 0 30777
0.16650000 0.16650700 8844.03052122 0 178.89887379 0 2226.27913431 0 162.77756886 0 772.94903050 0 29211
0.16750000 0.16749900 8792.21204107 0 22.61987382 0 2341.99600099 0 -28.82657622 0 825.59793501 0 30922
0.16850000 0.16850800 8734.25949297 0 114.50333988 0 2310.81633430 0 93.10762229 0 930.62447208 0 30867
0.16950000 0.16949900 8747.40234253 0 125.37968455 0 2461.72104925 0 -101.08146773 0 830.71667077 0 30852
0.17050000 0.17049200 8646.58882505 0 183.63782881 0 2557.06483827 0 -132.11719420 0 1013.20187057 0 31257
0.17150000 0.17149500 8500.25698025 0 58.05087035 0 2524.33504610 0 120.03728782 0 1195.85536971 0 32608
0.17250000 0.17250900 8470.37277556 0 112.71626665 0 2434.71564902 0 116.03353517 0 883.25485204 0 32361
0.17350000 0.17350400 8302.12879994 0 75.35746765 0 2276.72464618 0 199.86099914 0 952.41812902 0 32508
0.17450000 0.17449800 8212.85264493 0 75.24452994 0 2115.34551195 0 408.78358891 0 650.52454944 0 32791
0.17550000 0.17549800 8185.86938935 0 -58.90941841 0 1875.50788406 0 403.96934208 0 674.57363895 0 33633
0.17650000 0.17650100 8128.45938516 0 138.28005020 0 1666.71705495 0 108.10807579 0 114.91412313 0 33984
0.17750000 0.17750300 8061.17286724 0 115.73901133 0 1821.28670942 0 -50.43067496 0 349.94082589 0 34069
0.17850000 0.17849800 7909.90276557 0 269.36973265 0 1860.57131788 0 -283.30868237 0 154.95940030 0 34536
