### header ###
fiducial parameters:
Omega_m = 0.31
Omega_nu = 0
Omega_de = 0.69
Omega_k = 0
H_0 = 100
w_de = -1
zeff = 0
beta = 0
fgrowth = 0
b_1 = 2
gamma = 0.55
Lx = 3500 Ly = 3500 Lz = 3500
nx = 700 ny = 700 nz = 700
xoffset = -685.467585 yoffset = -31.7331281 zoffset = 572.489161
bins = 400 dk = 0.001
kx_ny = 0.628318531 ky_ny = 0.628318531 kz_ny = 0.628318531
############################
A(data) = 8.04352241 (not used)
A(ran) = 8.04401058 (used)
Ngal = 478040
weighted Ngal = 0
Nran = 23820508
weighted Nran = 0
SN(data) = 3482.4963
SN(ran) = 70.0662495
SN(data+ran) = 3552.56255
############################
13 columns: k_central k_mean P_0(k) sigma^{lin}_{P_0(k)} P^img_1(k) sigma^{lin}_{P_1(k)} P_2(k) sigma^{lin}_{P_2(k)} P^img_3(k) sigma^{lin}_{P_3(k)} P_4(k) sigma^{lin}_{P_4(k)} N_modes
### header ###
0.00050000 0 0 0 0 0 0 0 0 0 0 0 0
0.00150000 0.00179520 5710.65117614 0 -5668.33275068 0 10918.34199739 0 -11070.17678763 0 -1921.92306970 0 3
0.00250000 0.00253879 16992.25400618 0 -10666.11443802 0 -5165.91493971 0 5484.64288194 0 -19294.30105923 0 6
0.00350000 0.00331552 27712.14672585 0 -18670.15410920 0 -18830.14920283 0 32533.70129138 0 38503.23449411 0 7
0.00450000 0.00420575 39399.31774168 0 -18785.85990356 0 -17057.13782962 0 -374.73951179 0 -2196.94854587 0 24
0.00550000 0.00557378 52209.99755685 0 -10448.56539999 0 -14537.40887064 0 12618.90714931 0 2655.76354170 0 45
0.00650000 0.00659388 69560.55199417 0 -16610.03735344 0 -34341.25831802 0 42801.51098870 0 38683.71338865 0 40
0.00750000 0.00754703 74421.08114306 0 -36114.60186098 0 -44021.79190697 0 30617.08186527 0 -4527.39611207 0 57
0.00850000 0.00846663 98975.17938413 0 -24210.08110896 0 -50007.82287367 0 6823.03228905 0 -5983.87186337 0 75
0.00950000 0.00948925 108432.27345824 0 5795.84164329 0 -24071.23415574 0 -30118.60580194 0 -18645.68427135 0 112
0.01050000 0.01054430 90339.31964183 0 11083.95075971 0 -24450.57200402 0 -53616.29353207 0 9946.81192851 0 105
0.01150000 0.01145670 85625.27735029 0 15316.34692163 0 -15367.61178554 0 -33945.20125926 0 16808.45341419 0 144
0.01250000 0.01249090 77027.94929836 0 60.55642673 0 -6575.64333562 0 -14035.94327961 0 9017.95459947 0 169
0.01350000 0.01339930 79444.04129704 0 -4886.56018454 0 208.30143235 0 5791.81131706 0 235.17285745 0 180
0.01450000 0.01448870 82194.40678199 0 -395.80350252 0 -16362.79234024 0 -1787.30574455 0 -7928.89180263 0 267
0.01550000 0.01550050 82379.42532971 0 -306.59488869 0 -12639.50167348 0 2870.65522178 0 686.77091197 0 238
0.01650000 0.01653350 79331.76792337 0 6476.97784916 0 -16537.07073289 0 4071.37134209 0 -3969.39523051 0 315
0.01750000 0.01747870 72910.37314480 0 7130.03463929 0 -17621.38350238 0 -14217.30796013 0 -2513.67239730 0 297
0.01850000 0.01844180 67831.71919698 0 8942.96174347 0 -136.57380494 0 -11040.17078737 0 -961.27045271 0 388
0.01950000 0.01947590 63725.32609149 0 4239.31636494 0 2154.40867391 0 -14360.58384329 0 12936.90431811 0 399
0.02050000 0.02045430 66470.04469079 0 -2029.63464553 0 14559.22135053 0 -8483.02844283 0 10041.19242526 0 462
0.02150000 0.02154770 69075.69489036 0 -5732.75153648 0 24625.40401291 0 -7239.32955758 0 16286.72546874 0 571
0.02250000 0.02255340 76518.29018696 0 -5462.91898065 0 27033.74538421 0 12494.89711135 0 4123.73236616 0 510
0.02350000 0.02348930 79333.42877210 0 1658.05849694 0 35829.04660391 0 2649.69590770 0 14196.38126623 0 555
0.02450000 0.02439640 76070.74681779 0 3104.14840756 0 26709.76916002 0 9712.35545047 0 499.29873707 0 592
0.02550000 0.02547300 77299.44270291 0 -1244.72861146 0 25066.74688018 0 -3542.37995155 0 -5820.30040882 0 837
0.02650000 0.02652900 72717.49324646 0 2849.76174485 0 21080.26705248 0 2631.17190828 0 -7791.24066049 0 723
0.02750000 0.02749970 73319.60627010 0 9940.94359635 0 31050.45265867 0 -7884.64679266 0 -23509.64584094 0 826
0.02850000 0.02848090 63293.61614681 0 5280.87888830 0 16498.31759602 0 -3613.30926434 0 -10900.46019281 0 831
0.02950000 0.02946900 60614.66715694 0 -2679.52475076 0 17339.26066600 0 -2310.74990035 0 -21451.96499664 0 996
0.03050000 0.03053250 65453.27310269 0 825.55807464 0 21153.56584278 0 3088.12675354 0 -24053.18626628 0 1041
0.03150000 0.03150510 61003.52720457 0 2801.32032377 0 24484.78548771 0 2480.79866492 0 -14648.35356532 0 1036
0.03250000 0.03246190 56400.42960772 0 4116.66822292 0 15658.26031203 0 2378.16928617 0 -5739.66066717 0 1059
0.03350000 0.03345080 56648.44968365 0 1710.62989518 0 19090.01666632 0 7392.14978472 0 -5358.52910226 0 1302
0.03450000 0.03451200 54100.15412664 0 248.17730295 0 16545.70714625 0 5076.09624078 0 -8405.28965028 0 1339
0.03550000 0.03553350 53693.57835930 0 1960.69835121 0 14601.07473835 0 2535.92777019 0 -10121.03495953 0 1365
0.03650000 0.03647120 50914.64627632 0 3449.01810868 0 10658.66276342 0 -318.17875492 0 -2910.81454390 0 1308
0.03750000 0.03744890 48671.94688430 0 5129.78594383 0 11661.48322225 0 -3217.37400115 0 -5175.27105418 0 1579
0.03850000 0.03847530 44153.55257231 0 396.32058009 0 11557.95698519 0 299.71233159 0 -8370.32324850 0 1662
0.03950000 0.03950240 45824.03421770 0 1097.44343949 0 12210.00619376 0 504.50826590 0 -10490.35235385 0 1683
0.04050000 0.04050350 45159.03038909 0 240.56397240 0 14872.23597316 0 -2239.27804365 0 -9715.82108814 0 1822
0.04150000 0.04152450 44026.11011365 0 2354.88418708 0 18276.09006891 0 -5197.19425733 0 -8970.33253042 0 1887
0.04250000 0.04250150 43922.58387659 0 1132.99778172 0 22026.50793148 0 -2214.22137258 0 -4873.22910546 0 1920
0.04350000 0.04349210 42864.06962393 0 1727.11658684 0 21731.76264481 0 -524.00773713 0 -6308.14704033 0 2005
0.04450000 0.04448520 42228.85034908 0 1934.44586907 0 24345.82781124 0 2828.97899116 0 -3750.37357327 0 2151
0.04550000 0.04548030 40204.60792574 0 1581.50444315 0 20700.15414145 0 4782.91215191 0 -1616.71443607 0 2274
0.04650000 0.04648670 38983.44122149 0 985.59302864 0 18052.42910757 0 6095.49196986 0 -1642.19185548 0 2311
0.04750000 0.04749250 38554.61008126 0 -1941.32178278 0 13397.62375381 0 6585.88523608 0 -1067.74303540 0 2568
0.04850000 0.04851840 39444.60355019 0 -257.93534281 0 13645.20093676 0 6021.76135889 0 -2930.19111233 0 2493
0.04950000 0.04949480 38890.98730925 0 1023.93206056 0 9306.14506985 0 1637.29788791 0 -537.99429785 0 2644
0.05050000 0.05050630 38234.39844751 0 1395.02434855 0 9024.83051318 0 -561.58720757 0 1257.35106176 0 2829
0.05150000 0.05149060 36634.33678797 0 883.25706650 0 11539.57692599 0 -3330.03490618 0 1740.42552127 0 2784
0.05250000 0.05249300 37278.52464591 0 103.85364570 0 12901.02998569 0 619.55968585 0 268.16506371 0 3055
0.05350000 0.05348950 36796.10345357 0 -601.25824016 0 12492.46119989 0 1025.55969230 0 2137.23549812 0 3009
0.05450000 0.05448610 38099.20536147 0 -1376.54463843 0 11627.04829206 0 2879.61273256 0 -1664.70189183 0 3336
0.05550000 0.05550870 37932.45614970 0 283.54673735 0 9745.09631496 0 2022.37120045 0 71.55600637 0 3349
0.05650000 0.05647670 37336.98652096 0 2809.04880649 0 11200.43161680 0 -606.72021800 0 629.93999037 0 3324
0.05750000 0.05747970 35007.81227211 0 1761.86154212 0 10424.59381676 0 -284.20000452 0 1552.15171005 0 3639
0.05850000 0.05849280 33778.34132424 0 511.00439887 0 11778.84986532 0 1006.07682955 0 1442.62427295 0 3846
0.05950000 0.05951020 33864.04111834 0 1.00551325 0 11775.52816788 0 694.53593336 0 1730.72616473 0 3787
0.06050000 0.06049470 34358.75259124 0 -444.45529778 0 12711.69323130 0 -65.92882945 0 1148.25544532 0 3930
0.06150000 0.06148310 34696.12632846 0 626.86742024 0 13462.39685400 0 -1939.14053479 0 2176.46474495 0 4083
0.06250000 0.06249100 34856.34286859 0 1476.68274409 0 15225.99675111 0 -1443.67614380 0 4497.92158340 0 4303
0.06350000 0.06350600 33617.12827488 0 915.87392095 0 14481.60435356 0 82.17104418 0 4405.25729700 0 4470
0.06450000 0.06451750 33082.33498614 0 790.42005183 0 16311.74892283 0 2228.95863692 0 6439.58660825 0 4479
0.06550000 0.06550280 33406.20048709 0 -353.75745626 0 15267.40724594 0 3573.96929426 0 2428.89160617 0 4636
0.06650000 0.06648880 33123.74548097 0 89.95433491 0 13239.62167865 0 3886.78461504 0 2602.49458700 0 4653
0.06750000 0.06749660 32088.92600342 0 12.27522219 0 11166.10740986 0 1483.00504156 0 2328.00058242 0 5220
0.06850000 0.06852730 31822.85803802 0 773.63108571 0 10492.54467417 0 1604.68989132 0 1816.07164443 0 5029
0.06950000 0.06949320 31069.49705736 0 1562.18323634 0 9050.79511488 0 1012.01823905 0 1165.01894509 0 5040
0.07050000 0.07048030 29551.70277122 0 898.59445084 0 7213.81892119 0 379.14297537 0 1039.96035796 0 5475
0.07150000 0.07148790 29098.40179315 0 400.38190884 0 7598.87008909 0 -152.92098530 0 -181.01258060 0 5509
0.07250000 0.07249820 29145.68062012 0 -396.05595153 0 7440.97873717 0 -224.09831817 0 -2285.71537394 0 5916
0.07350000 0.07351270 28408.37451045 0 1005.81220099 0 9226.85615182 0 -321.53699104 0 -693.12642641 0 5721
0.07450000 0.07449140 28349.35901917 0 709.18572633 0 8599.64216782 0 -881.47663667 0 -566.38595315 0 6028
0.07550000 0.07549160 27354.73208071 0 689.38176616 0 9201.30122614 0 1382.68977870 0 314.14842868 0 6183
0.07650000 0.07648840 27202.26616795 0 761.64418686 0 8473.53946046 0 1263.34118948 0 1656.72981796 0 6330
0.07750000 0.07749960 25811.69289398 0 665.03704558 0 8306.45807895 0 1503.37811923 0 -333.60028893 0 6583
0.07850000 0.07848650 25839.37370603 0 991.57429851 0 9263.30624513 0 -800.48700955 0 1521.58102123 0 6549
0.07950000 0.07947320 24778.97715814 0 1262.55505442 0 9148.81840650 0 -1195.96609296 0 1004.53556194 0 6828
0.08050000 0.08048110 24050.86107807 0 881.52535490 0 10091.37220134 0 -1690.67756586 0 3459.00534567 0 7147
0.08150000 0.08149960 23918.65751974 0 -384.49201549 0 10095.52432315 0 1032.57954624 0 3172.79682143 0 7386
0.08250000 0.08250610 24181.84668068 0 -482.51862881 0 10435.01287441 0 1556.34812116 0 2604.78655824 0 7227
0.08350000 0.08350160 24645.66636733 0 -26.93996279 0 10348.72624710 0 2604.03364015 0 1921.61304460 0 7798
0.08450000 0.08449610 24167.56338166 0 591.39390598 0 9337.16972399 0 1288.24284800 0 3092.00206723 0 7371
0.08550000 0.08548940 23471.88921330 0 966.32054006 0 8787.68346022 0 707.67546123 0 3860.88644729 0 8256
0.08650000 0.08650700 23023.68150464 0 269.19921885 0 8522.93310148 0 739.14411559 0 2583.50554993 0 8037
0.08750000 0.08749060 21967.27099370 0 625.98827764 0 8364.59885657 0 675.81595379 0 1836.75474719 0 8155
0.08850000 0.08849210 21434.69216992 0 1031.29958549 0 7022.83239040 0 -769.17890390 0 1607.61298507 0 8718
0.08950000 0.08949900 20915.73230567 0 804.77864265 0 7527.63075120 0 -992.81661335 0 760.55577733 0 8571
0.09050000 0.09049190 20245.52448440 0 415.63071458 0 8083.26215525 0 -469.74005873 0 376.12465962 0 8932
0.09150000 0.09150830 20016.88097689 0 220.09235105 0 7399.88933977 0 -189.91362252 0 -676.59101653 0 9285
0.09250000 0.09250820 19530.80591735 0 233.55519079 0 8014.70231998 0 435.61847534 0 -763.38918525 0 9204
0.09350000 0.09350330 19985.87846740 0 -52.65178332 0 7875.60070328 0 240.17754827 0 -1710.67418448 0 9349
0.09450000 0.09448040 19464.15052195 0 157.89799531 0 8800.56057398 0 151.86247105 0 -324.80886302 0 9564
0.09550000 0.09549270 19617.50222068 0 473.76817050 0 8054.15301331 0 -164.09517551 0 -265.41580546 0 10155
0.09650000 0.09649430 19490.72410151 0 179.64514849 0 8249.33595521 0 1321.63697965 0 774.48033302 0 9913
0.09750000 0.09749140 19108.06455578 0 228.42095378 0 7692.12120871 0 839.40623129 0 -80.59334861 0 10476
0.09850000 0.09850240 19083.26254819 0 353.25698718 0 7663.28887488 0 596.37645215 0 -481.63505729 0 10575
0.09950000 0.09950330 18489.45376816 0 721.88789736 0 7348.40302937 0 -95.49249034 0 -801.04505472 0 10882
0.10050000 0.10051200 17743.84341487 0 860.22884535 0 7182.38459103 0 -608.78631381 0 -696.37504652 0 10875
0.10150000 0.10150300 17048.05852327 0 695.51361965 0 7073.28897460 0 502.81420020 0 313.23053296 0 11118
0.10250000 0.10250800 16800.70278682 0 105.27356063 0 6705.49956110 0 927.40464002 0 -884.95113220 0 11575
0.10350000 0.10349800 16573.94157454 0 -31.94797531 0 5810.30209951 0 1312.52445633 0 -224.39727094 0 11364
0.10450000 0.10450100 16417.82179459 0 158.64980616 0 5422.37212716 0 1119.54490706 0 -1211.73308350 0 12093
0.10550000 0.10551000 16389.91953605 0 161.10011165 0 5005.48802542 0 523.93023086 0 -376.72588686 0 12067
0.10650000 0.10649700 15909.04846918 0 169.87825076 0 5022.62798423 0 36.59525148 0 125.08626794 0 12054
0.10750000 0.10749900 16020.21461035 0 54.02109773 0 5033.40135628 0 244.09050786 0 676.57662251 0 12807
0.10850000 0.10850100 16121.85855219 0 -120.45914340 0 4788.43724200 0 247.80859453 0 602.81500903 0 12736
0.10950000 0.10950300 15984.45100119 0 167.62946159 0 4830.41242538 0 570.86138684 0 1046.03352813 0 12933
0.11050000 0.11050200 16055.09243353 0 197.90341211 0 4677.99080193 0 344.40577072 0 1265.88782419 0 13428
0.11150000 0.11150900 15578.09668035 0 270.13261583 0 4449.72375347 0 797.84072392 0 1191.59252466 0 13453
0.11250000 0.11250000 15260.43168130 0 372.25931103 0 4719.84418974 0 219.87090455 0 1125.95578313 0 13668
0.11350000 0.11349100 15058.69392310 0 485.16823614 0 4444.88514752 0 -180.80995706 0 1178.56039835 0 13791
0.11450000 0.11448600 14771.03492432 0 497.87262163 0 4790.89529810 0 -283.00419343 0 1874.31207298 0 14205
0.11550000 0.11549300 14471.30709147 0 41.23654860 0 4903.91051753 0 -310.03506001 0 1214.01398242 0 14776
0.11650000 0.11649800 14298.24665456 0 224.43491684 0 5846.75219281 0 -23.13506909 0 1639.55664217 0 14553
0.11750000 0.11747300 14203.46755411 0 440.42497154 0 5678.76288066 0 160.61292935 0 1653.66278399 0 14568
0.11850000 0.11849100 13752.71321074 0 380.55469678 0 5449.05642997 0 577.15046733 0 1792.39901397 0 16015
0.11950000 0.11950300 13671.33162333 0 -108.81681530 0 4935.61058348 0 563.29788175 0 2182.46594500 0 15270
0.12050000 0.12050700 13775.96509286 0 -90.59254371 0 5073.88177582 0 126.99402951 0 1300.26739275 0 15999
0.12150000 0.12150000 13683.62190388 0 -73.21873739 0 4432.57272232 0 387.36860548 0 580.26179061 0 15670
0.12250000 0.12250700 13724.25733596 0 82.52369772 0 4216.23056769 0 101.01315149 0 265.13235394 0 16887
0.12350000 0.12352200 13590.39292890 0 48.17092419 0 3574.58934445 0 17.09223710 0 -282.00436250 0 16407
0.12450000 0.12449800 13743.63390439 0 22.10102468 0 3537.16488656 0 -16.15784361 0 -615.53821748 0 16306
0.12550000 0.12549900 13711.85633216 0 -52.79428414 0 3640.66897897 0 157.89135191 0 -1398.58963714 0 17523
0.12650000 0.12650100 13686.05781534 0 373.39200986 0 3240.31585818 0 -37.86115038 0 -691.45339813 0 17154
0.12750000 0.12750600 13431.39434451 0 228.77083924 0 3741.70394294 0 -175.74215399 0 -876.14863397 0 18007
0.12850000 0.12850300 13229.10297007 0 325.25507771 0 3946.94055578 0 -356.99832573 0 -172.44481566 0 17496
0.12950000 0.12949900 13183.70643831 0 385.78083410 0 4102.69494900 0 -38.23251615 0 -31.82440816 0 18405
0.13050000 0.13049000 12993.48389793 0 -100.59295676 0 4160.52570153 0 293.41328600 0 409.02718006 0 18100
0.13150000 0.13148800 13067.11485797 0 -57.95011219 0 4101.46592095 0 680.88486410 0 684.28517505 0 19059
0.13250000 0.13249300 13008.21008994 0 -11.59062034 0 3765.89697267 0 923.93678789 0 719.47413055 0 18957
0.13350000 0.13349100 13096.67796524 0 -41.63637025 0 3686.17623397 0 625.76129499 0 393.55139166 0 19468
0.13450000 0.13450700 12820.97707726 0 323.16683725 0 3308.35529419 0 -141.76672528 0 500.62187989 0 19953
0.13550000 0.13551000 12606.17397577 0 629.60782063 0 3551.35960698 0 -535.80419200 0 195.36563526 0 19956
0.13650000 0.13649900 11998.52478973 0 481.92625943 0 3432.44283843 0 -578.78474248 0 489.95148046 0 19723
0.13750000 0.13749600 11768.33115675 0 354.23356623 0 3838.13281979 0 -466.93876055 0 96.93432847 0 20946
0.13850000 0.13851100 11616.52958348 0 50.48991190 0 3817.23934285 0 286.17530726 0 -117.43750596 0 20955
0.13950000 0.13949800 11568.36497052 0 31.21277294 0 3638.17770589 0 109.07956157 0 -1105.40554827 0 20506
0.14050000 0.14048300 11383.34642280 0 201.94923960 0 3187.87732784 0 494.98828102 0 -727.29562081 0 21447
0.14150000 0.14148400 11190.68797096 0 106.99076749 0 3277.06490425 0 381.86344558 0 -769.83659999 0 21771
0.14250000 0.14249400 11163.00715891 0 101.83516088 0 3205.91414497 0 108.98987574 0 -948.11210190 0 22470
0.14350000 0.14350900 11114.51037621 0 99.10538992 0 3187.76660459 0 18.00968993 0 -882.87174960 0 22519
0.14450000 0.14449900 10879.51135425 0 185.36732595 0 3137.80827501 0 -256.28556641 0 -499.14261729 0 22218
0.14550000 0.14550500 10915.05351692 0 207.47765138 0 3386.62555833 0 -36.79709996 0 -619.60618962 0 23559
0.14650000 0.14650700 10793.64547529 0 56.63316988 0 3263.66739122 0 143.30688566 0 -253.97587946 0 23044
0.14750000 0.14750500 10706.30697712 0 149.54614070 0 3440.53670787 0 522.06011520 0 -229.23698412 0 23649
0.14850000 0.14849900 10491.20492286 0 179.43366708 0 3049.49541225 0 465.28898416 0 -4.55442366 0 23640
0.14950000 0.14949500 10328.71855615 0 166.92858343 0 3148.79202123 0 247.98021557 0 224.41387942 0 24457
0.15050000 0.15050000 10416.01276502 0 124.18055177 0 2993.27014682 0 550.04320171 0 695.08290621 0 24591
0.15150000 0.15149900 10145.54908668 0 -8.94109052 0 2741.18652768 0 358.52409209 0 523.38104355 0 25020
0.15250000 0.15250500 10064.75433247 0 72.53247470 0 2591.78764890 0 381.88116130 0 611.03399574 0 25297
0.15350000 0.15350100 9993.09424625 0 238.49123320 0 2292.63557695 0 298.14006146 0 674.14071105 0 25452
0.15450000 0.15450400 9789.79529025 0 188.76652967 0 2392.77368261 0 -31.08433397 0 860.18344881 0 26061
0.15550000 0.15549900 9689.61289529 0 236.92449924 0 1997.44739728 0 166.12030372 0 910.44183840 0 26128
0.15650000 0.15649500 9419.87999039 0 72.55140837 0 2217.90845675 0 -50.90135949 0 577.37634276 0 26331
0.15750000 0.15749700 9459.54105789 0 131.48607169 0 2200.58026841 0 -134.10024758 0 474.50337287 0 27345
0.15850000 0.15849900 9345.70648643 0 75.39887815 0 2443.52921958 0 -259.69252076 0 460.00748522 0 26980
0.15950000 0.15949700 9363.66579728 0 90.51824841 0 2456.55027356 0 -160.69486456 0 368.89000259 0 27777
0.16050000 0.16050000 9204.52327266 0 122.38683515 0 2646.36313793 0 -235.59914196 0 385.84394635 0 28224
0.16150000 0.16150500 9293.94336790 0 118.52591549 0 2861.38768591 0 -170.35768243 0 -102.02172956 0 28075
0.16250000 0.16249700 9062.96359986 0 182.22057124 0 2967.73736579 0 -220.34480005 0 -7.47594514 0 28590
0.16350000 0.16349900 8924.21629756 0 310.36612253 0 3126.35949114 0 -294.42861818 0 -281.90138988 0 29163
0.16450000 0.16449100 8731.87894313 0 89.95245261 0 2930.96617507 0 162.70670598 0 -43.45964998 0 28996
0.16550000 0.16550500 8846.47750500 0 -92.49266537 0 2866.63596787 0 320.41647176 0 -92.78331390 0 30777
0.16650000 0.16650700 8802.35429060 0 -112.63433145 0 2598.06565707 0 418.56045172 0 -315.73177113 0 29211
0.16750000 0.16749900 8957.78758641 0 96.68088296 0 2604.79763056 0 273.29819350 0 -244.49132602 0 30922
0.16850000 0.16850800 8674.20320315 0 273.09224826 0 2705.53364176 0 73.59851813 0 29.17911904 0 30867
0.16950000 0.16949900 8401.25932405 0 458.83824772 0 2706.47478937 0 242.51934497 0 524.09077957 0 30852
0.17050000 0.17049200 8132.99903834 0 238.64735298 0 2626.20043444 0 91.30770517 0 706.87050321 0 31257
0.17150000 0.17149500 8044.46472909 0 43.56284404 0 2474.68674162 0 345.16090327 0 687.15290718 0 32608
0.17250000 0.17250900 8137.79335499 0 -123.44202771 0 2371.74733778 0 128.95936716 0 396.62285456 0 32361
0.17350000 0.17350400 8081.72310210 0 -54.06738005 0 2323.51629087 0 62.21694328 0 553.09584167 0 32508
0.17450000 0.17449800 8269.34364616 0 16.38283325 0 2184.32609557 0 11.29676084 0 377.77000709 0 32791
0.17550000 0.17549800 8065.13675953 0 84.97167802 0 2063.43845320 0 16.63760744 0 472.94660400 0 33633
0.17650000 0.17650100 8157.74568431 0 114.79897095 0 1976.66464360 0 327.27688422 0 188.32695838 0 33984
0.17750000 0.17750300 8005.52336270 0 74.80130478 0 1833.17838627 0 188.46757690 0 347.85369267 0 34069
