### header ###
fiducial parameters:
Omega_m = 0.31
Omega_nu = 0
Omega_de = 0.69
Omega_k = 0
H_0 = 100
w_de = -1
zeff = 0
beta = 0
fgrowth = 0
b_1 = 2
gamma = 0.55
Lx = 3500 Ly = 3500 Lz = 3500
nx = 700 ny = 700 nz = 700
xoffset = -685.467585 yoffset = -31.7331281 zoffset = 572.489161
bins = 400 dk = 0.001
kx_ny = 0.628318531 ky_ny = 0.628318531 kz_ny = 0.628318531
############################
A(data) = 8.08283501 (not used)
A(ran) = 8.08478254 (used)
Ngal = 480338
weighted Ngal = 0
Nran = 23820508
weighted Nran = 0
SN(data) = 3481.34136
SN(ran) = 70.421388
SN(data+ran) = 3551.76275
############################
13 columns: k_central k_mean P_0(k) sigma^{lin}_{P_0(k)} P^img_1(k) sigma^{lin}_{P_1(k)} P_2(k) sigma^{lin}_{P_2(k)} P^img_3(k) sigma^{lin}_{P_3(k)} P_4(k) sigma^{lin}_{P_4(k)} N_modes
### header ###
0.00050000 0 0 0 0 0 0 0 0 0 0 0 0
0.00150000 0.00179520 88923.39074402 0 -79399.64127451 0 22601.93665230 0 3462.78100843 0 -151531.40853807 0 3
0.00250000 0.00253879 149855.05856052 0 -65639.50960614 0 12922.28884935 0 12018.23352790 0 145813.66000172 0 6
0.00350000 0.00331552 150791.77724018 0 -6899.74135539 0 6576.50697696 0 -86655.33572817 0 89589.83397486 0 7
0.00450000 0.00420575 143692.20256646 0 33143.34349589 0 1257.79395475 0 -90814.32237655 0 21450.19342467 0 24
0.00550000 0.00557378 118281.21710767 0 20506.05628738 0 35767.70592441 0 -54797.82131347 0 -1800.16071367 0 45
0.00650000 0.00659388 92706.91485780 0 29186.20532896 0 80072.39573049 0 -31153.97889573 0 33794.61764173 0 40
0.00750000 0.00754703 74643.41342542 0 23821.22106133 0 72929.97115973 0 -4565.50705410 0 -19022.36476168 0 57
0.00850000 0.00846663 66474.80579046 0 17895.20209514 0 66560.94847755 0 32318.01240391 0 -18501.19043247 0 75
0.00950000 0.00948925 61405.34187224 0 4338.10364697 0 68601.68866487 0 35027.29956379 0 -20108.78127289 0 112
0.01050000 0.01054430 59434.80022427 0 -7182.40673568 0 52814.21432221 0 44403.89783646 0 -6301.65865799 0 105
0.01150000 0.01145670 74574.87573479 0 -15681.73364065 0 30877.39222176 0 45027.38044700 0 16180.54187373 0 144
0.01250000 0.01249090 73486.24475862 0 -9124.20462843 0 18517.46674995 0 38122.78941334 0 9035.21635386 0 169
0.01350000 0.01339930 94566.51181109 0 -5590.39465628 0 22647.00101431 0 21612.51370651 0 12010.70434703 0 180
0.01450000 0.01448870 84633.08632329 0 4896.65814477 0 15277.15089178 0 -3416.02258072 0 4660.97263868 0 267
0.01550000 0.01550050 76653.81544274 0 8712.14806030 0 20912.52133147 0 -13282.91446869 0 1899.92236028 0 238
0.01650000 0.01653350 68863.32770034 0 6348.42815802 0 22762.59608542 0 -13027.36521187 0 -12247.76282139 0 315
0.01750000 0.01747870 68342.37481762 0 -2411.89558757 0 35836.24361504 0 -25186.88160446 0 -11828.01098752 0 297
0.01850000 0.01844180 73573.60540144 0 4443.97721689 0 36508.77662452 0 -20241.64917071 0 -35638.60261703 0 388
0.01950000 0.01947590 68149.05202629 0 7630.64766132 0 33794.17474873 0 -8038.76248181 0 -29621.67986408 0 399
0.02050000 0.02045430 62636.91656182 0 3680.80615644 0 36620.71782844 0 -5853.27379213 0 -30403.60744277 0 462
0.02150000 0.02154770 64711.20589334 0 -4194.15235200 0 30066.23370554 0 13744.74113687 0 -29147.56291534 0 571
0.02250000 0.02255340 69597.42283581 0 -5775.71215677 0 29339.55702770 0 23024.12439764 0 -30771.54079649 0 510
0.02350000 0.02348930 70437.92301280 0 -191.43606718 0 22390.45524827 0 16537.29217939 0 -16265.24515859 0 555
0.02450000 0.02439640 70072.53629378 0 2037.25240501 0 23178.14043587 0 4041.44284811 0 -18437.08167177 0 592
0.02550000 0.02547300 67631.53156426 0 6356.63275071 0 24719.07588088 0 -1789.40948627 0 -2570.32948340 0 837
0.02650000 0.02652900 61166.29037941 0 6591.63177266 0 23024.34584413 0 -4012.18976593 0 9494.05349435 0 723
0.02750000 0.02749970 60265.11386242 0 4078.24725580 0 25043.16282832 0 3665.63707144 0 9598.15549229 0 826
0.02850000 0.02848090 61341.45455804 0 -3114.30172942 0 22984.92836778 0 5204.70129355 0 10843.91382996 0 831
0.02950000 0.02946900 60844.75006667 0 -3071.54041097 0 33445.83940994 0 3777.26825026 0 4782.60212682 0 996
0.03050000 0.03053250 63012.60054292 0 1898.36116248 0 24997.54485007 0 5107.13196725 0 735.67072730 0 1041
0.03150000 0.03150510 59605.97836596 0 2487.05452844 0 27512.06981638 0 351.22300111 0 3817.10647495 0 1036
0.03250000 0.03246190 60503.72246226 0 3557.07292659 0 26523.53265657 0 -1853.87256136 0 2252.89700317 0 1059
0.03350000 0.03345080 57247.79462609 0 1746.28278110 0 24685.08384368 0 488.82653226 0 980.78542520 0 1302
0.03450000 0.03451200 53064.55958636 0 3106.58431902 0 20002.26550813 0 2160.12199352 0 -3273.64355588 0 1339
0.03550000 0.03553350 54737.25569671 0 -382.35062787 0 15136.53236658 0 5483.18133507 0 -2974.91223227 0 1365
0.03650000 0.03647120 53372.70238606 0 -813.77822827 0 14122.52885969 0 1927.94641440 0 -13534.25624207 0 1308
0.03750000 0.03744890 51730.56589220 0 2188.72180853 0 12563.65624847 0 3243.13930101 0 -15400.60731350 0 1579
0.03850000 0.03847530 50289.39209381 0 1340.34920860 0 12194.17276927 0 -3397.62037688 0 -12736.05234590 0 1662
0.03950000 0.03950240 48506.19418177 0 1949.22742270 0 15667.56106488 0 -1873.64773349 0 -8971.94908985 0 1683
0.04050000 0.04050350 47820.81727549 0 1833.61020694 0 21612.18153676 0 -1382.95551450 0 -4146.13167927 0 1822
0.04150000 0.04152450 47689.05661015 0 2379.01078286 0 20794.15817916 0 -514.33163248 0 -3358.45756399 0 1887
0.04250000 0.04250150 46097.74208721 0 1524.76985078 0 24055.84362424 0 2697.17403652 0 -2041.47096076 0 1920
0.04350000 0.04349210 44534.88343906 0 1512.54600418 0 21404.46472317 0 3730.72019672 0 -4750.11592580 0 2005
0.04450000 0.04448520 44629.21964652 0 921.80647259 0 18497.86873502 0 3649.60434510 0 -5455.81054811 0 2151
0.04550000 0.04548030 42230.17902806 0 -1543.10562068 0 14022.76721307 0 4501.63081222 0 -3374.71173683 0 2274
0.04650000 0.04648670 43446.91680238 0 -596.03431731 0 9992.38561746 0 6175.31235948 0 -4792.91046122 0 2311
0.04750000 0.04749250 44685.02416360 0 -1600.30525069 0 6221.10749493 0 5738.81917048 0 -4929.76439598 0 2568
0.04850000 0.04851840 43667.14534303 0 1099.05335552 0 6493.77456591 0 1812.91603186 0 -5466.78322201 0 2493
0.04950000 0.04949480 42870.49157232 0 2370.37436950 0 6101.47102526 0 -1676.39426684 0 168.25726241 0 2644
0.05050000 0.05050630 41382.70328644 0 2628.91315402 0 10594.07789275 0 -1803.31632624 0 2981.51133787 0 2829
0.05150000 0.05149060 39354.47482616 0 1862.36503450 0 13536.58143028 0 -1331.17025132 0 7832.42970881 0 2784
0.05250000 0.05249300 38298.17503846 0 1310.71966738 0 15410.35095934 0 1726.87299569 0 7053.14841575 0 3055
0.05350000 0.05348950 37377.17906005 0 1051.88968072 0 14406.64471453 0 2103.21024395 0 6267.82163334 0 3009
0.05450000 0.05448610 35469.63894029 0 880.66171357 0 13305.72345782 0 1794.49168336 0 3286.14421060 0 3336
0.05550000 0.05550870 35489.12623197 0 1353.14881609 0 12450.05419583 0 631.05275902 0 3451.27686295 0 3349
0.05650000 0.05647670 34307.48772733 0 1138.93254782 0 12615.91762161 0 -972.81224410 0 3541.35022535 0 3324
0.05750000 0.05747970 34639.54674864 0 233.97261744 0 11771.09923795 0 -1899.19158684 0 2489.71188640 0 3639
0.05850000 0.05849280 34866.30796092 0 -619.06696740 0 12836.47833200 0 -82.30435497 0 864.25252818 0 3846
0.05950000 0.05951020 34845.93488326 0 499.59326091 0 14692.86431110 0 -1076.85777319 0 -360.19933484 0 3787
0.06050000 0.06049470 35324.59148517 0 694.03657151 0 16769.25738434 0 -765.49071250 0 1483.27077736 0 3930
0.06150000 0.06148310 34418.65386851 0 379.71984349 0 17170.40771252 0 1626.07055054 0 3669.84455487 0 4083
0.06250000 0.06249100 33780.99868220 0 348.50363813 0 16904.89336336 0 1044.99937299 0 998.97946935 0 4303
0.06350000 0.06350600 33061.74046198 0 1545.51938749 0 14248.08902313 0 3077.68555124 0 -830.08997719 0 4470
0.06450000 0.06451750 31946.97879924 0 690.44360211 0 13908.61154419 0 863.20951519 0 617.53566488 0 4479
0.06550000 0.06550280 31980.74938994 0 -162.88054148 0 10451.08989005 0 -386.17390163 0 -1842.58986237 0 4636
0.06650000 0.06648880 31561.32972581 0 -213.27733512 0 11925.66889242 0 558.17139536 0 -3221.42647204 0 4653
0.06750000 0.06749660 31492.57058868 0 426.37972751 0 9950.93083334 0 -101.79053942 0 -4411.05919520 0 5220
0.06850000 0.06852730 31142.02078492 0 725.20073695 0 10780.63549362 0 817.24054424 0 -4173.91214224 0 5029
0.06950000 0.06949320 30342.70965627 0 1169.73575547 0 11003.73176639 0 469.74780936 0 -4250.31118348 0 5040
0.07050000 0.07048030 29953.84960864 0 931.86678692 0 11197.33136585 0 863.87828361 0 -3545.60199808 0 5475
0.07150000 0.07148790 28534.26684364 0 576.68210799 0 11272.40172812 0 414.33193088 0 -1073.02121264 0 5509
0.07250000 0.07249820 28673.22452011 0 703.09705491 0 10453.37078896 0 800.08951309 0 -3826.13041968 0 5916
0.07350000 0.07351270 28350.35552840 0 -47.80620181 0 11069.24671235 0 -787.27661881 0 -1937.64577094 0 5721
0.07450000 0.07449140 28238.19287799 0 834.48679737 0 10386.02890941 0 433.34643429 0 -3781.32072114 0 6028
0.07550000 0.07549160 27370.67622845 0 296.55782625 0 9606.07220454 0 368.28545365 0 -2858.03277149 0 6183
0.07650000 0.07648840 27347.97796257 0 -317.54320347 0 9520.13989162 0 1982.28938461 0 -3073.43377851 0 6330
0.07750000 0.07749960 27516.60946956 0 -185.54780485 0 8984.58261247 0 2215.26217112 0 -4905.89246367 0 6583
0.07850000 0.07848650 27094.08955448 0 174.16656216 0 7955.07785083 0 467.27314476 0 -4838.47307785 0 6549
0.07950000 0.07947320 26971.62964198 0 698.59947657 0 7907.34505854 0 750.08910868 0 -3508.34362506 0 6828
0.08050000 0.08048110 26004.79423882 0 739.39102844 0 6765.78836973 0 192.59976852 0 -1285.34189890 0 7147
0.08150000 0.08149960 26074.54988517 0 535.13653081 0 6695.72269828 0 1940.77923886 0 -1999.45148808 0 7386
0.08250000 0.08250610 24634.15114952 0 766.91239901 0 6391.21162112 0 861.92512551 0 -1196.23182876 0 7227
0.08350000 0.08350160 24350.58891091 0 1200.21786569 0 5798.91974959 0 421.92976017 0 -1207.65846797 0 7798
0.08450000 0.08449610 23138.05862002 0 842.91062210 0 5488.16388123 0 848.91625108 0 -203.30781386 0 7371
0.08550000 0.08548940 22352.03428115 0 591.07391579 0 6201.28803350 0 -528.63929061 0 775.93634373 0 8256
0.08650000 0.08650700 22357.90261330 0 847.05942221 0 6953.35355216 0 -548.87174975 0 305.43118735 0 8037
0.08750000 0.08749060 21768.30131671 0 374.08624463 0 7493.98195608 0 144.81493630 0 1651.50368065 0 8155
0.08850000 0.08849210 21138.83965077 0 22.64755463 0 7001.10848910 0 186.12910190 0 547.29172900 0 8718
0.08950000 0.08949900 21778.26640904 0 237.86896854 0 7793.86480147 0 764.53184917 0 -263.88782464 0 8571
0.09050000 0.09049190 20919.60761936 0 405.44417574 0 6430.62909747 0 247.63918796 0 -628.05769515 0 8932
0.09150000 0.09150830 20731.04592770 0 632.88744324 0 6900.68250300 0 -355.81358698 0 -1140.99200024 0 9285
0.09250000 0.09250820 19867.29386859 0 524.33547795 0 6056.10771048 0 -482.03476821 0 -1237.86377008 0 9204
0.09350000 0.09350330 19492.60639673 0 491.44181538 0 6666.45854379 0 95.98177637 0 -2365.52469123 0 9349
0.09450000 0.09448040 19085.14484340 0 614.60592773 0 5964.20741449 0 -150.18058491 0 -2156.68957283 0 9564
0.09550000 0.09549270 18821.84495922 0 45.53261063 0 6347.92990340 0 933.58964066 0 -2310.91598522 0 10155
0.09650000 0.09649430 18867.68438397 0 56.77257044 0 5799.05261749 0 357.68923880 0 -2240.66208425 0 9913
0.09750000 0.09749140 18645.24137836 0 310.89427242 0 5912.87611663 0 605.09037178 0 -1139.84047846 0 10476
0.09850000 0.09850240 18486.90713345 0 493.03623015 0 5743.40311295 0 244.61422882 0 -1256.71993924 0 10575
0.09950000 0.09950330 18152.74437043 0 480.91424894 0 5991.88822653 0 277.96850011 0 141.25518387 0 10882
0.10050000 0.10051200 17667.33365038 0 419.73854709 0 6125.61976569 0 694.70312547 0 -342.94311661 0 10875
0.10150000 0.10150300 17159.33538770 0 544.65097953 0 6290.25416342 0 28.62162749 0 472.32987551 0 11118
0.10250000 0.10250800 17007.97670743 0 443.55622500 0 6043.33024764 0 121.76346326 0 884.82158600 0 11575
0.10350000 0.10349800 16651.33712502 0 159.20010071 0 5981.91206187 0 638.36713679 0 1531.83399401 0 11364
0.10450000 0.10450100 16514.70463676 0 -108.35864250 0 6069.19519842 0 770.29388701 0 1094.50705895 0 12093
0.10550000 0.10551000 16596.86128691 0 28.86876178 0 5444.39498123 0 704.33161913 0 802.64943459 0 12067
0.10650000 0.10649700 16202.13290713 0 614.44870072 0 5205.74209209 0 454.97068466 0 819.89790219 0 12054
0.10750000 0.10749900 15989.65499386 0 368.45375299 0 4407.18388151 0 412.35219920 0 1716.55358896 0 12807
0.10850000 0.10850100 15652.39197988 0 -10.99433136 0 4220.40483415 0 824.94688231 0 1302.71437654 0 12736
0.10950000 0.10950300 15529.04628140 0 -93.06554746 0 3892.18790955 0 173.91189869 0 942.26923609 0 12933
0.11050000 0.11050200 15687.15907981 0 358.83522442 0 4869.29843015 0 -409.94950471 0 313.19510152 0 13428
0.11150000 0.11150900 15465.26969044 0 381.17031804 0 4522.25855335 0 -325.16982081 0 870.11310971 0 13453
0.11250000 0.11250000 15097.11489022 0 398.59926454 0 4749.72839443 0 -713.48621729 0 890.09311985 0 13668
0.11350000 0.11349100 14669.83387547 0 310.46688068 0 4933.85008384 0 -66.67300040 0 848.04043018 0 13791
0.11450000 0.11448600 14550.58493718 0 133.85776366 0 5612.41751035 0 -80.48417549 0 -192.93636720 0 14205
0.11550000 0.11549300 14430.00731990 0 384.65034973 0 5518.55741286 0 290.02404737 0 -87.87716677 0 14776
0.11650000 0.11649800 13993.31482905 0 322.64090182 0 5290.76647437 0 49.57312340 0 96.61467046 0 14553
0.11750000 0.11747300 13888.45991302 0 45.02284079 0 5000.39475600 0 185.33300174 0 -110.19543046 0 14568
0.11850000 0.11849100 13906.17563273 0 -135.84303150 0 4424.29062336 0 695.62655736 0 -954.09669346 0 16015
0.11950000 0.11950300 13869.30479108 0 81.67135016 0 4486.02990655 0 204.51359003 0 -471.71868318 0 15270
0.12050000 0.12050700 13797.66684951 0 -125.66424330 0 3751.53616738 0 381.29543531 0 -861.72693089 0 15999
0.12150000 0.12150000 14222.73339930 0 -249.54252060 0 4084.00486471 0 867.02282385 0 -610.92548696 0 15670
0.12250000 0.12250700 14005.16221661 0 271.73256677 0 3329.90203828 0 281.14293563 0 -821.35723460 0 16887
0.12350000 0.12352200 13814.82895298 0 585.19118962 0 3764.81188484 0 -90.89802915 0 155.30707130 0 16407
0.12450000 0.12449800 13350.67709658 0 453.42720258 0 3492.62092382 0 -181.19527396 0 384.42890324 0 16306
0.12550000 0.12549900 13144.62113170 0 158.27999052 0 4062.95637523 0 234.76650313 0 786.02766057 0 17523
0.12650000 0.12650100 12937.79010409 0 91.86076780 0 3906.27190672 0 -119.59771653 0 40.99771855 0 17154
0.12750000 0.12750600 12881.87486376 0 187.76226981 0 4092.23160205 0 454.95518340 0 387.90893493 0 18007
0.12850000 0.12850300 12842.23594091 0 -135.92496671 0 3798.33888439 0 92.42290973 0 -58.45246357 0 17496
0.12950000 0.12949900 12921.95667960 0 -8.84672110 0 3687.49384063 0 -29.90324908 0 -54.25660608 0 18405
0.13050000 0.13049000 13079.18369203 0 286.15537708 0 4009.53240798 0 -316.03626007 0 260.11769803 0 18100
0.13150000 0.13148800 12629.20441140 0 230.21024147 0 4222.04353822 0 -235.84494757 0 406.00664985 0 19059
0.13250000 0.13249300 12762.07230922 0 8.94299496 0 4081.72396580 0 125.81482691 0 705.87620844 0 18957
0.13350000 0.13349100 12581.37196818 0 -67.26359821 0 3833.84783008 0 677.55320156 0 546.16124463 0 19468
0.13450000 0.13450700 12664.30368107 0 207.58837463 0 3931.29536081 0 631.18009075 0 220.46216670 0 19953
0.13550000 0.13551000 12360.47908805 0 383.02936138 0 3520.74462886 0 363.50663826 0 615.09421726 0 19956
0.13650000 0.13649900 12083.00662809 0 182.25378821 0 3367.48150872 0 235.18946594 0 803.92053748 0 19723
0.13750000 0.13749600 11887.69081829 0 193.40361930 0 3190.10286512 0 106.51620765 0 1066.01685996 0 20946
0.13850000 0.13851100 11814.39202799 0 99.00739985 0 3395.59414143 0 42.33769130 0 618.01177485 0 20955
0.13950000 0.13949800 11922.12574848 0 79.43651212 0 3324.83091352 0 -20.39300785 0 693.05334907 0 20506
0.14050000 0.14048300 11753.93713448 0 80.37566671 0 3266.04794106 0 -349.02293017 0 250.42830659 0 21447
0.14150000 0.14148400 11628.59841754 0 208.75871936 0 3589.59234458 0 -161.89842627 0 334.52372082 0 21771
0.14250000 0.14249400 11529.61183366 0 244.05839812 0 3566.18544991 0 -235.55706712 0 207.04583071 0 22470
0.14350000 0.14350900 11309.71546276 0 310.16682068 0 3723.62283651 0 203.24913053 0 87.17739584 0 22519
0.14450000 0.14449900 10995.19500396 0 291.29625749 0 3303.58312219 0 333.43531129 0 -16.25660875 0 22218
0.14550000 0.14550500 10827.71501875 0 50.85618440 0 3114.87749031 0 648.95670825 0 -109.78641878 0 23559
0.14650000 0.14650700 10787.25674387 0 55.22919909 0 2864.20005641 0 317.45573211 0 130.99556770 0 23044
0.14750000 0.14750500 10526.41491579 0 52.84045573 0 2599.83722904 0 486.54009718 0 -306.28375637 0 23649
0.14850000 0.14849900 10545.12714473 0 132.47925922 0 2610.28950367 0 37.32148527 0 18.34617789 0 23640
0.14950000 0.14949500 10426.90793264 0 283.55780968 0 2522.61883576 0 -98.22270419 0 51.86310162 0 24457
0.15050000 0.15050000 10176.85054894 0 291.37929993 0 2724.86592089 0 -298.10463002 0 122.28939869 0 24591
0.15150000 0.15149900 10065.02006827 0 170.65995689 0 2877.97402849 0 -340.45073629 0 264.41154560 0 25020
0.15250000 0.15250500 10008.04188475 0 151.37528876 0 3072.55906485 0 -180.72691462 0 189.18063462 0 25297
0.15350000 0.15350100 9893.65369705 0 216.76622467 0 3216.21140705 0 90.63306842 0 333.80180524 0 25452
0.15450000 0.15450400 9737.73321896 0 90.47395911 0 3048.04493770 0 -9.95415288 0 386.64004650 0 26061
0.15550000 0.15549900 9745.47277400 0 164.47384902 0 3393.65648459 0 294.30128645 0 540.23533639 0 26128
0.15650000 0.15649500 9648.78923369 0 106.33960407 0 3069.01592091 0 289.37853083 0 555.37784781 0 26331
0.15750000 0.15749700 9482.62685513 0 105.84599983 0 2740.04607822 0 382.62632876 0 175.93370521 0 27345
0.15850000 0.15849900 9332.68543244 0 104.28391624 0 2692.00326083 0 200.24299435 0 -100.94915345 0 26980
0.15950000 0.15949700 9196.56227112 0 137.37654849 0 2455.76413850 0 -68.34857532 0 -188.19409048 0 27777
0.16050000 0.16050000 9086.10475873 0 152.48030678 0 2580.57138386 0 26.23687017 0 -133.68614263 0 28224
0.16150000 0.16150500 8934.01530502 0 -57.39594233 0 2131.59968479 0 196.77071328 0 -320.47736955 0 28075
0.16250000 0.16249700 9022.53854194 0 0.63915327 0 2148.63999268 0 444.07994597 0 -112.21690480 0 28590
0.16350000 0.16349900 9011.97554407 0 64.87507630 0 2117.55997692 0 34.26054107 0 -138.62218503 0 29163
0.16450000 0.16449100 9086.49229010 0 113.74267116 0 2124.28087808 0 145.55788930 0 325.52524244 0 28996
0.16550000 0.16550500 8891.49757772 0 137.92019964 0 2388.93158590 0 175.62589458 0 760.40076478 0 30777
0.16650000 0.16650700 8853.17626152 0 128.16991040 0 2147.75420670 0 -19.22365963 0 1074.28124320 0 29211
0.16750000 0.16749900 8656.21067532 0 211.39946883 0 2396.59363467 0 413.06636415 0 908.12107912 0 30922
0.16850000 0.16850800 8445.01715173 0 158.10172609 0 2146.66911886 0 229.01775208 0 1189.14554087 0 30867
0.16950000 0.16949900 8473.36230326 0 -64.16844053 0 2335.61834189 0 314.27243872 0 1029.18034252 0 30852
0.17050000 0.17049200 8365.52893186 0 -21.34223826 0 1760.31141664 0 215.04115647 0 845.50929673 0 31257
0.17150000 0.17149500 8490.70156393 0 82.48173361 0 1977.46185099 0 -148.46880349 0 461.29298213 0 32608
0.17250000 0.17250900 8377.66419986 0 76.89729587 0 1721.68007535 0 -394.12604531 0 189.85272474 0 32361
0.17350000 0.17350400 8365.94968020 0 241.87050673 0 2059.30847605 0 -598.86772523 0 81.40461785 0 32508
0.17450000 0.17449800 8236.41455215 0 234.05455264 0 2232.04781554 0 -462.06915210 0 176.13189982 0 32791
0.17550000 0.17549800 8134.30557267 0 70.40725267 0 2493.52076613 0 26.30142182 0 -316.09937232 0 33633
0.17650000 0.17650100 8063.63092335 0 21.86274825 0 2372.04629055 0 294.53823420 0 -167.12677805 0 33984
0.17750000 0.17750300 8096.40500481 0 94.26866627 0 2385.02305524 0 362.64410416 0 -406.39750291 0 34069
