### header ###
fiducial parameters:
Omega_m = 0.31
Omega_nu = 0
Omega_de = 0.69
Omega_k = 0
H_0 = 100
w_de = -1
zeff = 0
beta = 0
fgrowth = 0
b_1 = 2
gamma = 0.55
Lx = 3500 Ly = 3500 Lz = 3500
nx = 700 ny = 700 nz = 700
xoffset = -685.467585 yoffset = -31.7331281 zoffset = 572.489161
bins = 400 dk = 0.001
kx_ny = 0.628318531 ky_ny = 0.628318531 kz_ny = 0.628318531
############################
A(data) = 8.04352651 (not used)
A(ran) = 8.03978038 (used)
Ngal = 477881
weighted Ngal = 0
Nran = 23820508
weighted Nran = 0
SN(data) = 3489.88739
SN(ran) = 70.0294029
SN(data+ran) = 3559.91679
############################
13 columns: k_central k_mean P_0(k) sigma^{lin}_{P_0(k)} P^img_1(k) sigma^{lin}_{P_1(k)} P_2(k) sigma^{lin}_{P_2(k)} P^img_3(k) sigma^{lin}_{P_3(k)} P_4(k) sigma^{lin}_{P_4(k)} N_modes
### header ###
0.00050000 0 0 0 0 0 0 0 0 0 0 0 0
0.00150000 0.00179520 54162.93420836 0 -32124.02527309 0 -716.38716639 0 96720.41115807 0 -134848.73673381 0 3
0.00250000 0.00253879 92318.71914966 0 -20270.43721524 0 31853.74982427 0 -11801.10523821 0 121033.79705759 0 6
0.00350000 0.00331552 75816.30479345 0 17904.50284799 0 33464.33019239 0 -89799.32236043 0 65098.40509225 0 7
0.00450000 0.00420575 59197.52030340 0 31553.02548219 0 26949.04209935 0 -12810.45836868 0 45221.92119406 0 24
0.00550000 0.00557378 40923.20180647 0 -2696.10002102 0 28206.96892200 0 44080.80739825 0 19739.96213318 0 45
0.00650000 0.00659388 55797.54152134 0 -7946.40822050 0 30665.57864798 0 45610.22762545 0 -20577.36205921 0 40
0.00750000 0.00754703 45802.99680054 0 -4116.76787385 0 -2093.95378040 0 32956.44265296 0 639.45001016 0 57
0.00850000 0.00846663 72147.26851830 0 -25915.99419377 0 -23323.63078398 0 42153.66926356 0 30123.14545511 0 75
0.00950000 0.00948925 84291.39437939 0 -25388.84080916 0 -42949.10507854 0 -4965.17369075 0 -11261.21868005 0 112
0.01050000 0.01054430 104259.55712708 0 -13491.40634502 0 -40981.33151177 0 -29482.83291085 0 -6225.69143740 0 105
0.01150000 0.01145670 99707.28150114 0 3160.20758811 0 -28743.53378271 0 -48269.46787714 0 -3235.38867363 0 144
0.01250000 0.01249090 102416.45793777 0 11914.81801410 0 -14979.08390766 0 -49361.86344375 0 6346.11404213 0 169
0.01350000 0.01339930 97789.11194956 0 12490.46818142 0 14068.60663782 0 -27326.60837567 0 -21427.49515879 0 180
0.01450000 0.01448870 84351.51710316 0 3049.65042480 0 11715.18399762 0 -5874.76517460 0 -22681.54666775 0 267
0.01550000 0.01550050 91978.57733123 0 3239.70688031 0 29208.46070184 0 -136.33685719 0 -12776.13416174 0 238
0.01650000 0.01653350 83336.51708703 0 -1836.73260254 0 26251.92852877 0 2590.37039132 0 -8350.49271475 0 315
0.01750000 0.01747870 85723.71031793 0 -2785.77477972 0 42118.12710090 0 20888.16221687 0 944.90112770 0 297
0.01850000 0.01844180 86629.98010434 0 2979.90585077 0 23603.20698565 0 13692.59048698 0 -9437.75072264 0 388
0.01950000 0.01947590 85597.15364525 0 6398.77401897 0 30413.90470485 0 1432.83633781 0 25703.29483401 0 399
0.02050000 0.02045430 83930.54731355 0 6650.49225140 0 33839.57128049 0 -5442.88914505 0 21770.95867466 0 462
0.02150000 0.02154770 72451.31455782 0 9254.70304874 0 33856.40121422 0 8422.76177884 0 47859.34896586 0 571
0.02250000 0.02255340 73395.89458810 0 2330.53614480 0 36479.10279401 0 17270.72297537 0 35826.16779945 0 510
0.02350000 0.02348930 69244.88001359 0 -321.42958949 0 37002.82375793 0 21972.91787936 0 28632.92125777 0 555
0.02450000 0.02439640 72296.63418010 0 222.97004827 0 34261.98047232 0 18652.77055924 0 36615.62455902 0 592
0.02550000 0.02547300 67257.39770864 0 -2411.10945251 0 20948.06349414 0 16509.72209059 0 33341.31666365 0 837
0.02650000 0.02652900 74296.62821210 0 -2839.78558019 0 17252.78580917 0 8442.97984396 0 28345.92659847 0 723
0.02750000 0.02749970 70563.48317624 0 -1778.48110167 0 1909.97603122 0 6230.67398357 0 22821.61157670 0 826
0.02850000 0.02848090 70974.59859676 0 5523.04170441 0 5133.84948704 0 -244.47693200 0 22762.26391568 0 831
0.02950000 0.02946900 66369.84015118 0 1979.95312407 0 -1414.34555536 0 -265.60071328 0 12054.10786032 0 996
0.03050000 0.03053250 67625.99540185 0 -2643.21859768 0 1868.06728178 0 -1847.84921666 0 5177.28621730 0 1041
0.03150000 0.03150510 65746.24681739 0 95.95033097 0 3025.99993899 0 -7367.58029595 0 -383.43793017 0 1036
0.03250000 0.03246190 63486.27459866 0 3437.89042224 0 9897.00861147 0 -14211.88252097 0 -7186.32633867 0 1059
0.03350000 0.03345080 62729.59192055 0 8227.91100668 0 14134.92986348 0 -13561.27271463 0 -3843.12643828 0 1302
0.03450000 0.03451200 59401.80469631 0 5626.66759239 0 20292.13897188 0 -9131.92203883 0 -6641.13613692 0 1339
0.03550000 0.03553350 52905.89317170 0 1450.27524940 0 19781.26190475 0 2540.45635104 0 -4540.45038303 0 1365
0.03650000 0.03647120 55795.32705638 0 -1166.91231264 0 19262.08059401 0 5302.77994680 0 -17904.83501774 0 1308
0.03750000 0.03744890 53191.89132177 0 -121.60623625 0 17586.17350946 0 6753.98527148 0 -18186.29351463 0 1579
0.03850000 0.03847530 55401.04156959 0 981.63024359 0 13794.45587531 0 -434.64743245 0 -18556.10916357 0 1662
0.03950000 0.03950240 50237.79506015 0 4296.10631893 0 15434.48862745 0 -2667.11267464 0 -14238.12393079 0 1683
0.04050000 0.04050350 48908.67318892 0 4074.90341371 0 13665.46329117 0 -2059.89530926 0 -11148.17024365 0 1822
0.04150000 0.04152450 45228.12169596 0 -37.11487569 0 13166.10144185 0 910.30564880 0 -10681.60462045 0 1887
0.04250000 0.04250150 46144.79946769 0 -397.02035102 0 16744.78754649 0 2819.77788924 0 -14857.62050440 0 1920
0.04350000 0.04349210 45548.55477621 0 845.34542632 0 15871.62401129 0 1669.40762988 0 -12818.87333554 0 2005
0.04450000 0.04448520 44486.82954935 0 2995.51782876 0 17361.84820863 0 -1842.83345352 0 -7409.75478119 0 2151
0.04550000 0.04548030 41901.88459719 0 2232.09210484 0 15769.64789971 0 -1717.24007310 0 -4152.90794205 0 2274
0.04650000 0.04648670 41280.72717486 0 998.25423207 0 16674.92117688 0 1189.53307224 0 -2702.80984986 0 2311
0.04750000 0.04749250 42040.39938067 0 412.49835389 0 19204.50450495 0 4200.29749228 0 -940.66817792 0 2568
0.04850000 0.04851840 40479.42302774 0 -116.19186941 0 15738.86683671 0 2381.23632015 0 -3620.62807105 0 2493
0.04950000 0.04949480 39296.01295112 0 1108.56116084 0 15926.43201914 0 5659.82920522 0 215.75310695 0 2644
0.05050000 0.05050630 39543.25796432 0 657.17237326 0 13083.39117546 0 1916.04366522 0 -919.39934918 0 2829
0.05150000 0.05149060 38093.55847582 0 521.25737165 0 12273.78278472 0 5052.89972029 0 932.39604405 0 2784
0.05250000 0.05249300 37566.07292146 0 594.29153339 0 8992.80934981 0 3347.56239637 0 2002.91712574 0 3055
0.05350000 0.05348950 37802.57777958 0 155.49972975 0 6038.64665424 0 3200.53299510 0 269.77940867 0 3009
0.05450000 0.05448610 36305.71018735 0 301.88693618 0 5988.45580584 0 540.01388989 0 746.23261794 0 3336
0.05550000 0.05550870 35365.44836375 0 1775.77945441 0 4106.07200807 0 1172.31560715 0 -2343.07001650 0 3349
0.05650000 0.05647670 34487.30228238 0 1492.09542024 0 4116.29176388 0 -302.96980955 0 -1547.74492477 0 3324
0.05750000 0.05747970 33210.33106105 0 203.88911091 0 3030.49530286 0 181.75774806 0 -3544.67192279 0 3639
0.05850000 0.05849280 32736.21411231 0 -281.32784346 0 3105.97534115 0 325.85409048 0 -5043.22250840 0 3846
0.05950000 0.05951020 32904.84561930 0 210.24794705 0 6514.62375355 0 -3782.95942521 0 -5505.00488728 0 3787
0.06050000 0.06049470 31918.85509420 0 1925.01224832 0 7066.93346015 0 -2331.62123264 0 -4376.98965173 0 3930
0.06150000 0.06148310 31776.35427378 0 1199.68639410 0 8912.21389745 0 -2671.24265180 0 -305.69692315 0 4083
0.06250000 0.06249100 31415.61793119 0 -139.81799611 0 9817.58682555 0 1042.80040928 0 -2516.98302242 0 4303
0.06350000 0.06350600 31911.65808307 0 -872.10391371 0 11056.25887533 0 280.69782817 0 -1993.49457732 0 4470
0.06450000 0.06451750 32407.25534195 0 678.33269322 0 11430.62524978 0 507.89418283 0 -3507.13674166 0 4479
0.06550000 0.06550280 30865.54483420 0 1496.44684389 0 10850.13647651 0 85.24627167 0 -326.58375669 0 4636
0.06650000 0.06648880 30660.81754831 0 1157.50083654 0 9131.85560488 0 805.02666273 0 421.02072230 0 4653
0.06750000 0.06749660 29942.44511407 0 118.00662345 0 10245.44360119 0 2331.97554703 0 1123.15448495 0 5220
0.06850000 0.06852730 29429.90719822 0 -127.03388988 0 8054.07550703 0 2663.77990487 0 -1313.47667626 0 5029
0.06950000 0.06949320 29464.34212840 0 -76.87969087 0 8244.81844668 0 2038.44821609 0 51.76754746 0 5040
0.07050000 0.07048030 29450.28027588 0 -267.50404592 0 6034.47238779 0 627.79195936 0 -1025.17769710 0 5475
0.07150000 0.07148790 29624.44794528 0 -194.46766972 0 6200.77870656 0 227.24064395 0 379.11418733 0 5509
0.07250000 0.07249820 29409.53412055 0 645.21426246 0 6468.21964023 0 -742.94081577 0 1083.40262439 0 5916
0.07350000 0.07351270 28891.34931904 0 1412.80650221 0 7601.30600055 0 -1175.50443670 0 2962.33407128 0 5721
0.07450000 0.07449140 28261.11259036 0 698.58176085 0 7203.27806797 0 379.78406298 0 1347.55729205 0 6028
0.07550000 0.07549160 27584.59354394 0 702.44489498 0 9523.08513002 0 627.01136046 0 2950.97386602 0 6183
0.07650000 0.07648840 26962.32888913 0 610.21685817 0 9596.04067825 0 1137.62601349 0 3556.14285130 0 6330
0.07750000 0.07749960 26745.75421568 0 849.94154836 0 9570.97293486 0 595.85383842 0 3964.24659947 0 6583
0.07850000 0.07848650 27030.31296352 0 -89.76699117 0 10057.50195972 0 792.23480587 0 6063.12756442 0 6549
0.07950000 0.07947320 26518.99300340 0 283.64195934 0 10096.44332611 0 -47.95601036 0 4467.22909901 0 6828
0.08050000 0.08048110 26220.26167979 0 739.48957213 0 10617.52907672 0 468.12682101 0 4470.26291601 0 7147
0.08150000 0.08149960 25726.76816262 0 516.59703013 0 9488.17408987 0 1114.06410628 0 4365.82874832 0 7386
0.08250000 0.08250610 24351.91758989 0 1166.48049197 0 8915.93419859 0 1908.82450944 0 4300.91170791 0 7227
0.08350000 0.08350160 23745.04346658 0 454.33291875 0 8005.85553245 0 1469.93969827 0 1771.87092375 0 7798
0.08450000 0.08449610 23862.74227940 0 -91.79953784 0 7625.91977862 0 804.78639328 0 2823.52033503 0 7371
0.08550000 0.08548940 22442.27372842 0 734.81372936 0 6604.01063181 0 -391.58273230 0 1243.11205204 0 8256
0.08650000 0.08650700 22284.71454625 0 788.00407055 0 6643.78242256 0 -833.46592903 0 777.25173592 0 8037
0.08750000 0.08749060 21731.09830532 0 328.56791730 0 6827.78231639 0 -883.76528621 0 -35.77025256 0 8155
0.08850000 0.08849210 21345.78140163 0 601.35346216 0 7564.90019654 0 -351.54963469 0 -1437.46456958 0 8718
0.08950000 0.08949900 21068.41966492 0 896.26040477 0 7362.34308631 0 -618.24650813 0 -1983.44090639 0 8571
0.09050000 0.09049190 20415.81684011 0 600.46324724 0 7941.21530016 0 -895.11552638 0 -1379.19092406 0 8932
0.09150000 0.09150830 19756.90279015 0 790.53520401 0 7904.98665335 0 -108.94237546 0 -479.85241299 0 9285
0.09250000 0.09250820 19398.27018928 0 570.77391547 0 8084.60190656 0 238.59088412 0 -420.50143027 0 9204
0.09350000 0.09350330 19289.98285255 0 -130.91806142 0 8436.86792066 0 1457.79335795 0 63.72964430 0 9349
0.09450000 0.09448040 19024.02561041 0 24.03757429 0 7168.25630457 0 1810.19223995 0 1234.75244680 0 9564
0.09550000 0.09549270 19038.08746293 0 64.04520556 0 6903.81597092 0 1664.48044534 0 906.97398626 0 10155
0.09650000 0.09649430 18990.03357321 0 526.24545398 0 6512.27642069 0 1635.16092922 0 1934.16906095 0 9913
0.09750000 0.09749140 17925.20809540 0 579.75689260 0 5611.74209854 0 757.31269339 0 1532.49833350 0 10476
0.09850000 0.09850240 17765.87734126 0 589.54150604 0 5308.53755570 0 295.44616483 0 2480.75437562 0 10575
0.09950000 0.09950330 17128.88649445 0 459.20917060 0 5333.18455075 0 340.95009814 0 1870.44783161 0 10882
0.10050000 0.10051200 16767.04291937 0 323.78356574 0 5165.58276997 0 346.00682889 0 1906.32216403 0 10875
0.10150000 0.10150300 16213.09450870 0 201.98467104 0 4525.62454010 0 331.95161976 0 1750.58991545 0 11118
0.10250000 0.10250800 15919.34573126 0 244.38392447 0 5197.63715032 0 37.84265960 0 857.24042488 0 11575
0.10350000 0.10349800 16297.79779356 0 56.75463328 0 5067.60376765 0 -556.24813254 0 579.83329164 0 11364
0.10450000 0.10450100 15871.95618103 0 385.10652952 0 5402.65231666 0 -242.65110563 0 971.69947546 0 12093
0.10550000 0.10551000 15754.03592171 0 546.68718006 0 5121.35990464 0 -364.29498779 0 1513.15498204 0 12067
0.10650000 0.10649700 15579.75752907 0 -64.63082082 0 5022.20723589 0 995.26470437 0 1065.19640069 0 12054
0.10750000 0.10749900 15421.97690040 0 -264.87215431 0 4980.16561855 0 1135.23439133 0 516.48077072 0 12807
0.10850000 0.10850100 15713.95410587 0 95.06332703 0 4003.19903818 0 1036.23784236 0 -254.35233850 0 12736
0.10950000 0.10950300 15160.67003468 0 330.62626248 0 3921.10882198 0 -436.22413151 0 680.50619059 0 12933
0.11050000 0.11050200 15121.14183508 0 711.70578746 0 4248.86070893 0 -476.17750838 0 1133.95000165 0 13428
0.11150000 0.11150900 15043.08194511 0 -44.32617012 0 4791.70357782 0 -432.81164100 0 937.02981198 0 13453
0.11250000 0.11250000 14783.21448162 0 -3.12976977 0 5326.16469681 0 -422.25085759 0 1698.92644785 0 13668
0.11350000 0.11349100 14781.33218640 0 375.35070412 0 5485.84976535 0 -66.36120374 0 1449.16801691 0 13791
0.11450000 0.11448600 14813.55265162 0 -20.03470742 0 5577.44003625 0 676.38396406 0 1545.59689376 0 14205
0.11550000 0.11549300 14631.41290835 0 -105.26448133 0 5325.00210271 0 742.29751370 0 1374.26373952 0 14776
0.11650000 0.11649800 14638.38847299 0 313.92255326 0 4388.20591678 0 1081.87796526 0 1899.51268426 0 14553
0.11750000 0.11747300 14068.82808432 0 317.86762259 0 4278.05842948 0 752.16406235 0 1465.25610488 0 14568
0.11850000 0.11849100 14025.97818727 0 208.19403080 0 3751.89048177 0 350.60295092 0 1218.16610422 0 16015
0.11950000 0.11950300 13799.21697498 0 61.03309031 0 3735.87990008 0 250.11938872 0 1257.29570013 0 15270
0.12050000 0.12050700 13672.54957906 0 143.70991829 0 3235.12293784 0 -637.39387944 0 656.89888684 0 15999
0.12150000 0.12150000 13873.73372101 0 -72.45773651 0 3818.24692441 0 -271.83111046 0 212.15017246 0 15670
0.12250000 0.12250700 13843.39555101 0 37.31727778 0 3796.30157662 0 -759.23374174 0 -260.11880527 0 16887
0.12350000 0.12352200 13852.91775035 0 265.77897771 0 3793.48920612 0 -405.41317323 0 -274.37220901 0 16407
0.12450000 0.12449800 13635.90018391 0 192.84889583 0 3797.46417073 0 -40.15577897 0 -696.75150556 0 16306
0.12550000 0.12549900 13642.21140905 0 91.14128813 0 3565.49896578 0 400.92777445 0 -1117.04256165 0 17523
0.12650000 0.12650100 13466.16144444 0 -28.14607114 0 3520.76677351 0 -22.69605141 0 -1452.86617340 0 17154
0.12750000 0.12750600 13275.71745756 0 347.85590713 0 3416.23295490 0 283.68292695 0 -1093.23484883 0 18007
0.12850000 0.12850300 13225.78127262 0 384.13770110 0 3632.14328886 0 -148.18867368 0 -764.41116083 0 17496
0.12950000 0.12949900 12700.73162972 0 117.55708706 0 3341.31760517 0 -9.62337825 0 -857.33564687 0 18405
0.13050000 0.13049000 12701.28524597 0 136.53837350 0 3603.79813732 0 37.09704924 0 -1022.32878792 0 18100
0.13150000 0.13148800 12465.11255758 0 361.81921596 0 3974.18954716 0 42.68226205 0 -1320.89513389 0 19059
0.13250000 0.13249300 12395.91052747 0 267.47082895 0 3729.13685427 0 101.98873403 0 -809.64603664 0 18957
0.13350000 0.13349100 12090.09291598 0 17.44511209 0 3590.78815566 0 456.31929382 0 -1145.06661577 0 19468
0.13450000 0.13450700 12099.28294558 0 95.48307886 0 3340.08857712 0 79.05451691 0 -378.76208740 0 19953
0.13550000 0.13551000 12096.18269463 0 241.40104016 0 3387.89887568 0 277.07496349 0 -819.55908905 0 19956
0.13650000 0.13649900 11678.75604896 0 307.88813623 0 3287.28466006 0 72.54277196 0 -476.18193731 0 19723
0.13750000 0.13749600 11645.98196750 0 178.28657423 0 3419.42178444 0 -134.50549466 0 -360.91571425 0 20946
0.13850000 0.13851100 11385.22871802 0 180.21205152 0 3415.96721910 0 20.70657609 0 -127.87870826 0 20955
0.13950000 0.13949800 11507.13501427 0 141.55302941 0 3553.60728892 0 157.55364601 0 -158.89671901 0 20506
0.14050000 0.14048300 11174.85454647 0 127.74916206 0 3344.83860446 0 -128.48768613 0 59.01670924 0 21447
0.14150000 0.14148400 11389.43620145 0 -66.20021213 0 3408.53768915 0 424.63583635 0 136.19845313 0 21771
0.14250000 0.14249400 11241.50994188 0 -9.71019635 0 3098.57902817 0 392.42533622 0 198.11157182 0 22470
0.14350000 0.14350900 11277.05210454 0 162.64470096 0 3075.71467742 0 461.36384501 0 -185.25217377 0 22519
0.14450000 0.14449900 11077.52881131 0 78.86805896 0 2867.32245201 0 493.75371680 0 -78.51440891 0 22218
0.14550000 0.14550500 10908.05580764 0 294.01229877 0 2710.80406837 0 146.06389454 0 138.80930732 0 23559
0.14650000 0.14650700 10672.58067572 0 254.81516168 0 2586.88260900 0 122.87733914 0 77.74410727 0 23044
0.14750000 0.14750500 10556.50949464 0 198.28651455 0 2468.56374599 0 36.53634671 0 -178.69292855 0 23649
0.14850000 0.14849900 10239.48669044 0 95.98244071 0 2614.90666312 0 193.07920019 0 348.91774308 0 23640
0.14950000 0.14949500 10263.13717625 0 184.56568963 0 2179.98574424 0 -63.19629041 0 -219.20656506 0 24457
0.15050000 0.15050000 10226.85316782 0 71.99247742 0 2771.51362536 0 -27.77858067 0 -97.02246418 0 24591
0.15150000 0.15149900 10174.97932604 0 -77.99279168 0 2707.16127351 0 -207.86407552 0 -278.84985716 0 25020
0.15250000 0.15250500 10221.28378844 0 62.15205946 0 2719.28546919 0 -290.76257144 0 -123.26708497 0 25297
0.15350000 0.15350100 10308.99874565 0 192.52890564 0 2842.37650419 0 -248.79513867 0 -568.99459287 0 25452
0.15450000 0.15450400 10057.12550067 0 212.59749438 0 3276.38949244 0 -177.76506773 0 -364.93828986 0 26061
0.15550000 0.15549900 9982.80805649 0 202.63683097 0 3207.02137745 0 -219.29514366 0 -602.64117353 0 26128
0.15650000 0.15649500 9755.49322796 0 231.58763867 0 3220.70677092 0 48.80946516 0 -641.46849497 0 26331
0.15750000 0.15749700 9618.66143786 0 144.31889615 0 3126.99061366 0 313.65681746 0 -735.91321121 0 27345
0.15850000 0.15849900 9463.75961364 0 17.13220819 0 3009.56860896 0 525.40506453 0 -740.61784203 0 26980
0.15950000 0.15949700 9450.88249988 0 154.35595860 0 2784.18036495 0 273.40227335 0 -793.93662219 0 27777
0.16050000 0.16050000 9327.59216302 0 129.09777122 0 2635.54547658 0 362.41712150 0 -362.60202932 0 28224
0.16150000 0.16150500 9094.66366581 0 84.55115112 0 2242.75475364 0 258.52771219 0 -89.49450126 0 28075
0.16250000 0.16249700 9168.07317936 0 -20.97231189 0 2354.43022176 0 266.16208015 0 71.61557548 0 28590
0.16350000 0.16349900 9163.25671806 0 56.71665520 0 2360.16568602 0 226.03597501 0 -84.44463535 0 29163
0.16450000 0.16449100 9100.04481568 0 217.75387605 0 2394.35702506 0 -300.47078584 0 63.59478338 0 28996
0.16550000 0.16550500 8887.60011938 0 399.05765879 0 2539.29375693 0 -115.90177450 0 488.43125026 0 30777
0.16650000 0.16650700 8654.28409080 0 209.07538785 0 2666.40404585 0 -403.17434916 0 407.90998248 0 29211
0.16750000 0.16749900 8479.97248118 0 135.30380928 0 2853.92493898 0 196.13516184 0 461.86431409 0 30922
0.16850000 0.16850800 8409.78501416 0 54.12296312 0 2834.94697424 0 158.41618011 0 240.10447092 0 30867
0.16950000 0.16949900 8300.21328775 0 183.04435220 0 2688.86979291 0 196.63895262 0 241.95244194 0 30852
0.17050000 0.17049200 8217.77982948 0 39.19403684 0 2531.74243141 0 308.65877004 0 391.69456278 0 31257
0.17150000 0.17149500 8130.36382503 0 14.58468770 0 2377.51601901 0 225.63294239 0 307.40095394 0 32608
0.17250000 0.17250900 8099.28380927 0 36.27094309 0 2170.77356999 0 343.47569543 0 372.68338107 0 32361
0.17350000 0.17350400 8160.52483784 0 -18.46708767 0 2026.43474366 0 404.51742216 0 310.83337463 0 32508
0.17450000 0.17449800 8126.43314972 0 3.76708171 0 1756.58004318 0 194.06352986 0 164.81930555 0 32791
0.17550000 0.17549800 8142.94198603 0 66.24361565 0 1758.92737604 0 -83.53305085 0 77.04655080 0 33633
0.17650000 0.17650100 8065.64608647 0 216.91791552 0 1971.01775794 0 -403.13891772 0 26.34028568 0 33984
0.17750000 0.17750300 7815.92087251 0 322.48035311 0 2025.99185067 0 -245.18223909 0 393.30558605 0 34069
