### header ###
fiducial parameters:
Omega_m = 0.31
Omega_nu = 0
Omega_de = 0.69
Omega_k = 0
H_0 = 100
w_de = -1
zeff = 0
beta = 0
fgrowth = 0
b_1 = 2
gamma = 0.55
Lx = 3500 Ly = 3500 Lz = 3500
nx = 700 ny = 700 nz = 700
xoffset = -685.467585 yoffset = -31.7331281 zoffset = 572.489161
bins = 400 dk = 0.001
kx_ny = 0.628318531 ky_ny = 0.628318531 kz_ny = 0.628318531
############################
A(data) = 8.01217348 (not used)
A(ran) = 7.99800037 (used)
Ngal = 474617
weighted Ngal = 0
Nran = 23820508
weighted Nran = 0
SN(data) = 3505.90185
SN(ran) = 69.6654839
SN(data+ran) = 3575.56734
############################
13 columns: k_central k_mean P_0(k) sigma^{lin}_{P_0(k)} P^img_1(k) sigma^{lin}_{P_1(k)} P_2(k) sigma^{lin}_{P_2(k)} P^img_3(k) sigma^{lin}_{P_3(k)} P_4(k) sigma^{lin}_{P_4(k)} N_modes
### header ###
0.00050000 0 0 0 0 0 0 0 0 0 0 0 0
0.00150000 0.00179520 46436.55522667 0 -26243.95645490 0 15138.96827804 0 -61536.54892134 0 -90292.15153810 0 3
0.00250000 0.00253879 68718.94458470 0 -11147.83807391 0 -7579.38279741 0 39606.48093904 0 93695.78418736 0 6
0.00350000 0.00331552 80978.00117741 0 -15630.24733024 0 12438.87114776 0 -55892.32062179 0 -46384.29385352 0 7
0.00450000 0.00420575 76274.92048744 0 157.99211007 0 12552.03030741 0 -1010.06950988 0 22195.58233146 0 24
0.00550000 0.00557378 83226.12600859 0 333.53717667 0 21556.81991267 0 51466.93383827 0 -13159.79021671 0 45
0.00650000 0.00659388 71366.44817209 0 7450.05804353 0 25382.41886076 0 42298.71671869 0 15781.27384077 0 40
0.00750000 0.00754703 87944.37578356 0 112.60886510 0 -8641.57306191 0 40782.91545102 0 -22218.83421358 0 57
0.00850000 0.00846663 74525.05027310 0 -10788.60756749 0 6755.11464861 0 48768.49755672 0 42171.82787627 0 75
0.00950000 0.00948925 86487.14711418 0 937.76501435 0 -9628.32757742 0 -2208.38625740 0 -27365.58295903 0 112
0.01050000 0.01054430 83202.09906373 0 425.28578182 0 4782.08172755 0 -17086.36876714 0 15484.64625888 0 105
0.01150000 0.01145670 69592.88318264 0 14673.37701941 0 10669.61329267 0 -41730.81717874 0 -20682.54914499 0 144
0.01250000 0.01249090 64976.38807275 0 11587.74153895 0 23319.97691679 0 -24283.82279226 0 27875.24207043 0 169
0.01350000 0.01339930 60003.47482695 0 3376.02934348 0 49308.71628462 0 -11735.11418229 0 2835.56702443 0 180
0.01450000 0.01448870 66404.38580461 0 -642.37088945 0 44981.20885250 0 6283.78792573 0 3342.96738157 0 267
0.01550000 0.01550050 69781.77704404 0 -8447.88488386 0 46665.97379691 0 12440.08910349 0 13641.87923931 0 238
0.01650000 0.01653350 73150.64259337 0 -863.02128566 0 37438.85190929 0 9904.39385213 0 2025.02855841 0 315
0.01750000 0.01747870 82792.64449194 0 -3137.93007058 0 48530.11040338 0 19622.92765985 0 15143.72937771 0 297
0.01850000 0.01844180 82983.75281831 0 -462.43786052 0 44695.09997919 0 4777.82995482 0 -2495.44735065 0 388
0.01950000 0.01947590 75997.22658099 0 5328.22414923 0 49436.49091303 0 2019.60311925 0 10327.25700927 0 399
0.02050000 0.02045430 75713.33217264 0 9490.88680945 0 45284.47982929 0 8001.26051765 0 -1860.90348762 0 462
0.02150000 0.02154770 68564.48565348 0 5047.13103906 0 35783.42862565 0 8883.22655108 0 2743.17954614 0 571
0.02250000 0.02255340 69270.67853042 0 -812.64331497 0 42622.47149639 0 6199.36144899 0 -3405.60352307 0 510
0.02350000 0.02348930 66963.98110095 0 -1840.92901365 0 27509.96607466 0 15553.40539600 0 304.56422432 0 555
0.02450000 0.02439640 65594.66669062 0 -833.47146519 0 27565.10625226 0 10531.02100291 0 -9291.15314205 0 592
0.02550000 0.02547300 70166.98322448 0 -1984.78065769 0 19291.64370127 0 8321.87075510 0 -6333.10406047 0 837
0.02650000 0.02652900 66033.90581618 0 5942.43922389 0 21173.93892044 0 3792.40411828 0 -8096.37178784 0 723
0.02750000 0.02749970 60261.68144172 0 7944.63664852 0 18285.94443799 0 3286.67568219 0 3667.86260872 0 826
0.02850000 0.02848090 53827.88565935 0 5302.37027078 0 15795.22497004 0 -2570.45127897 0 5910.16339705 0 831
0.02950000 0.02946900 50338.44249276 0 4860.31877472 0 12303.56733848 0 3588.96122207 0 3432.64214028 0 996
0.03050000 0.03053250 47339.50331563 0 603.99088993 0 15519.19191231 0 2031.78267655 0 -3427.01739927 0 1041
0.03150000 0.03150510 44604.41763892 0 1456.60861919 0 11870.86088457 0 -1612.79483308 0 359.62246671 0 1036
0.03250000 0.03246190 44714.69799412 0 4321.77196786 0 12523.35298613 0 265.30286775 0 2842.50937209 0 1059
0.03350000 0.03345080 43342.83694909 0 -978.87434194 0 12508.73751737 0 2633.37530092 0 4189.77878370 0 1302
0.03450000 0.03451200 44413.64148230 0 -3006.77838310 0 13612.31613204 0 6298.62484098 0 528.09896116 0 1339
0.03550000 0.03553350 47299.64294628 0 -15.73820250 0 12717.45084020 0 3802.98926081 0 2065.08822960 0 1365
0.03650000 0.03647120 46182.00247908 0 1698.10709581 0 16335.55442119 0 -1174.61865071 0 -1143.18432055 0 1308
0.03750000 0.03744890 43952.81132335 0 2734.34383094 0 13781.16908553 0 -2080.87736479 0 6637.85872878 0 1579
0.03850000 0.03847530 42667.53585840 0 1210.79193589 0 15856.67637278 0 -142.66247636 0 5785.72153841 0 1662
0.03950000 0.03950240 42287.75511712 0 -1501.99407862 0 12759.19350477 0 1614.02386114 0 3154.85965523 0 1683
0.04050000 0.04050350 43430.30831515 0 -954.95036970 0 11490.30508055 0 5423.67866149 0 -1079.66903646 0 1822
0.04150000 0.04152450 43985.58540481 0 -921.44551480 0 8188.41602406 0 2983.84759840 0 -6498.64638883 0 1887
0.04250000 0.04250150 43428.53674318 0 2809.35883159 0 9173.76435432 0 -1866.06319099 0 -5725.01198143 0 1920
0.04350000 0.04349210 41631.49842512 0 3183.58126581 0 9683.32381480 0 -3149.38992677 0 -1257.88253335 0 2005
0.04450000 0.04448520 38658.91138106 0 1938.68656947 0 11373.38133047 0 -2226.38985756 0 -1527.77045080 0 2151
0.04550000 0.04548030 38836.51147115 0 -1397.28310281 0 10804.14203921 0 370.77561950 0 -2344.04438108 0 2274
0.04650000 0.04648670 40259.63738009 0 -1274.47994825 0 14308.65463989 0 717.89743150 0 -4112.13964207 0 2311
0.04750000 0.04749250 41309.62594264 0 -2003.67004383 0 11816.16359996 0 2784.39073912 0 -4546.69517423 0 2568
0.04850000 0.04851840 41676.45206388 0 -693.99338945 0 9027.68717299 0 514.22865985 0 -1584.58254945 0 2493
0.04950000 0.04949480 42721.90097326 0 2437.26228373 0 9833.63062421 0 -687.44964548 0 -6294.70523800 0 2644
0.05050000 0.05050630 40556.04351548 0 2300.07617923 0 9720.83685128 0 623.08511408 0 -4191.33998150 0 2829
0.05150000 0.05149060 37682.00016231 0 3158.66853496 0 9495.09429288 0 -1198.46843837 0 -5101.50722624 0 2784
0.05250000 0.05249300 34307.70917382 0 3206.48990586 0 10400.84368002 0 -1579.44499073 0 -3945.87761260 0 3055
0.05350000 0.05348950 33666.84301332 0 1111.04136160 0 13012.08540362 0 572.00847969 0 -4492.91689259 0 3009
0.05450000 0.05448610 33562.65243678 0 -772.09756872 0 12165.60617124 0 -873.28311631 0 -1925.37763504 0 3336
0.05550000 0.05550870 34186.79938680 0 -1505.65901814 0 12928.37862800 0 567.50425795 0 -2229.10257714 0 3349
0.05650000 0.05647670 36059.24023689 0 -680.65013081 0 12306.00324994 0 261.09316985 0 432.18494741 0 3324
0.05750000 0.05747970 37269.44533956 0 120.90646532 0 14855.07386969 0 271.35610773 0 1959.45825083 0 3639
0.05850000 0.05849280 36846.92542448 0 605.08815732 0 13755.70273845 0 2835.44522886 0 2201.18924627 0 3846
0.05950000 0.05951020 36082.04922601 0 747.39521205 0 14503.85972644 0 483.47195597 0 1330.43947788 0 3787
0.06050000 0.06049470 35602.39611487 0 1170.06792521 0 15414.66916602 0 1547.00307901 0 1760.08997015 0 3930
0.06150000 0.06148310 35491.34069694 0 37.54769286 0 14698.06830376 0 -371.81420357 0 28.86311489 0 4083
0.06250000 0.06249100 33933.13242521 0 1009.03756921 0 15004.21808500 0 -867.46350238 0 781.80356865 0 4303
0.06350000 0.06350600 34130.10908373 0 896.57042987 0 14705.26531489 0 -1283.63676088 0 -2877.43148457 0 4470
0.06450000 0.06451750 32782.27498356 0 768.33408551 0 14499.43079651 0 88.67592428 0 -1092.55832978 0 4479
0.06550000 0.06550280 32875.06106554 0 805.82829905 0 12179.11440752 0 1216.22844738 0 -3421.72482801 0 4636
0.06650000 0.06648880 30781.61661208 0 1116.18999264 0 13448.33500148 0 1997.24809544 0 -605.06269097 0 4653
0.06750000 0.06749660 30480.11720727 0 1382.82264660 0 9838.55780875 0 2858.32065193 0 -3537.19810354 0 5220
0.06850000 0.06852730 29361.59095409 0 4.76279374 0 10285.38147681 0 2585.43213445 0 -1133.39638541 0 5029
0.06950000 0.06949320 28369.17848059 0 644.76029714 0 7220.11907402 0 2495.82380970 0 -1184.40658585 0 5040
0.07050000 0.07048030 28538.58505032 0 328.46937360 0 8154.68972266 0 2309.02261768 0 721.84028637 0 5475
0.07150000 0.07148790 28071.77583596 0 -368.49804229 0 6921.59812458 0 2297.26380872 0 2715.96377174 0 5509
0.07250000 0.07249820 29054.55538687 0 -895.54291812 0 7180.35835559 0 1957.48737701 0 3734.83910155 0 5916
0.07350000 0.07351270 29141.03024370 0 107.40808341 0 8557.89950326 0 -1150.28168076 0 4881.79908487 0 5721
0.07450000 0.07449140 28894.89246298 0 1618.58565896 0 8886.21607878 0 -1238.40631399 0 2982.70714895 0 6028
0.07550000 0.07549160 27940.34734036 0 1469.65181783 0 9996.63739019 0 -2961.53686389 0 4745.55412797 0 6183
0.07650000 0.07648840 26771.99562550 0 883.29249794 0 10827.53786156 0 -1008.56699541 0 3427.51565389 0 6330
0.07750000 0.07749960 26422.22088448 0 316.81907343 0 10982.12966067 0 1029.86904112 0 1841.84801661 0 6583
0.07850000 0.07848650 25825.09040701 0 -23.35828716 0 10096.68691725 0 1911.05004672 0 -254.41323629 0 6549
0.07950000 0.07947320 25839.37370603 0 322.96642817 0 8319.21339714 0 2219.17070178 0 -1076.99949895 0 6828
0.08050000 0.08048110 25170.27311724 0 337.12571715 0 7829.89414643 0 495.43449571 0 -273.36573468 0 7147
0.08150000 0.08149960 24571.14962130 0 521.21529682 0 8034.79858952 0 -397.16539848 0 -655.91455716 0 7386
0.08250000 0.08250610 24359.22532427 0 1067.34000278 0 8777.26440256 0 -1147.60217815 0 -156.58149589 0 7227
0.08350000 0.08350160 23182.79081229 0 965.11808558 0 8822.30661992 0 -423.43116741 0 -645.16222253 0 7798
0.08450000 0.08449610 22905.53979883 0 501.86198026 0 10000.44626993 0 -889.83292021 0 775.96181008 0 7371
0.08550000 0.08548940 22778.76167966 0 883.45747558 0 10168.73453485 0 1046.86173802 0 741.09727369 0 8256
0.08650000 0.08650700 21636.42992812 0 722.61645634 0 8588.10480536 0 1659.45360987 0 894.44011457 0 8037
0.08750000 0.08749060 21738.29531645 0 -146.56325639 0 7997.60665046 0 1558.65116472 0 1661.78987041 0 8155
0.08850000 0.08849210 21647.72369943 0 -275.36539654 0 7941.99036289 0 766.42964564 0 -298.50987711 0 8718
0.08950000 0.08949900 21394.38890758 0 365.28042470 0 7657.64198923 0 94.89026659 0 -19.03631589 0 8571
0.09050000 0.09049190 20816.96716829 0 649.88899800 0 7217.19598026 0 -880.62296043 0 -1038.73797330 0 8932
0.09150000 0.09150830 20254.93596049 0 672.30602683 0 7198.64983619 0 -576.91241235 0 282.58233786 0 9285
0.09250000 0.09250820 20017.10242339 0 384.03472847 0 7134.41927992 0 -35.21763283 0 -1161.40936720 0 9204
0.09350000 0.09350330 19761.99605957 0 638.43578521 0 6975.22139368 0 889.43431652 0 -1539.66212766 0 9349
0.09450000 0.09448040 19181.91696232 0 486.39394249 0 6880.58623345 0 130.80844541 0 -1650.47395444 0 9564
0.09550000 0.09549270 18703.26036041 0 481.78121197 0 7093.77277551 0 384.67138715 0 -361.31653241 0 10155
0.09650000 0.09649430 18091.18224443 0 790.45548327 0 6935.28351806 0 516.88491058 0 206.38924185 0 9913
0.09750000 0.09749140 18048.77524038 0 131.79056062 0 6745.42636439 0 1085.33253061 0 208.34239995 0 10476
0.09850000 0.09850240 18009.68993377 0 -49.85148165 0 7234.82312138 0 416.55636093 0 1485.73990579 0 10575
0.09950000 0.09950330 17714.16958436 0 271.96065666 0 7361.51266195 0 824.96902696 0 1185.67990320 0 10882
0.10050000 0.10051200 17697.33965064 0 335.46043950 0 7098.61138146 0 -192.96736971 0 2544.23201380 0 10875
0.10150000 0.10150300 17168.96831029 0 217.07071360 0 7366.37341255 0 429.32496591 0 2424.21908509 0 11118
0.10250000 0.10250800 17101.64857539 0 330.21437200 0 7048.90771535 0 194.55292662 0 1639.94417354 0 11575
0.10350000 0.10349800 16974.98117947 0 238.12141755 0 6125.48689780 0 288.24029584 0 1085.58165791 0 11364
0.10450000 0.10450100 16438.30559551 0 261.05773841 0 6010.98798685 0 216.85591050 0 851.56364394 0 12093
0.10550000 0.10551000 15971.16421141 0 342.98297698 0 5385.66737039 0 467.19563849 0 265.98270849 0 12067
0.10650000 0.10649700 16000.06297918 0 382.83559570 0 5238.08435288 0 582.04997107 0 -466.73613701 0 12054
0.10750000 0.10749900 15502.14053209 0 134.76680153 0 4899.07191158 0 203.61230279 0 -607.84073727 0 12807
0.10850000 0.10850100 15318.89355634 0 82.00219122 0 5031.00973412 0 323.52558057 0 -198.42048968 0 12736
0.10950000 0.10950300 15203.07703874 0 107.66296833 0 4691.22223009 0 560.72799516 0 200.96933885 0 12933
0.11050000 0.11050200 15346.35292189 0 219.53098418 0 4315.67111689 0 916.93575690 0 531.19589041 0 13428
0.11150000 0.11150900 15017.72632127 0 36.06245121 0 3936.56578742 0 888.04916868 0 79.48312660 0 13453
0.11250000 0.11250000 14549.14553495 0 230.36636125 0 3591.60750770 0 678.20093256 0 916.73866952 0 13668
0.11350000 0.11349100 14857.95267414 0 -32.84771242 0 3107.30402013 0 399.42968890 0 198.82795123 0 13791
0.11450000 0.11448600 14702.82940343 0 -11.33961074 0 3461.68484828 0 -491.77841405 0 254.10321119 0 14205
0.11550000 0.11549300 14692.08924836 0 223.71521573 0 3713.38093605 0 -1127.46161931 0 123.55496542 0 14776
0.11650000 0.11649800 14559.44279703 0 550.81494275 0 4246.01512145 0 -1214.83333445 0 -105.92804575 0 14553
0.11750000 0.11747300 14187.41268312 0 328.92887508 0 4869.42022572 0 -624.91426214 0 -112.33648591 0 14568
0.11850000 0.11849100 13897.42849612 0 313.81072278 0 5217.25730990 0 65.99924944 0 -887.89637060 0 16015
0.11950000 0.11950300 13938.83899095 0 260.45540394 0 5276.78212812 0 281.61018774 0 -880.08705991 0 15270
0.12050000 0.12050700 13537.46721627 0 208.47858955 0 4841.77263065 0 424.83956713 0 -1058.50871650 0 15999
0.12150000 0.12150000 13562.82284010 0 9.51899944 0 4522.41356590 0 677.04608908 0 -753.73301077 0 15670
0.12250000 0.12250700 13422.53648465 0 -51.98932612 0 4272.62191799 0 574.30377262 0 -895.87730233 0 16887
0.12350000 0.12352200 13424.08661013 0 104.83254994 0 4222.86289026 0 490.30136592 0 -219.38261503 0 16407
0.12450000 0.12449800 13563.48717959 0 76.76464941 0 4324.80578486 0 -200.78885996 0 -800.79039125 0 16306
0.12550000 0.12549900 13406.81378341 0 291.38926502 0 4492.82831399 0 -348.39402212 0 413.70523729 0 17523
0.12650000 0.12650100 13291.21871230 0 189.60470466 0 5032.36055775 0 -512.11716751 0 318.49763787 0 17154
0.12750000 0.12750600 13360.64218892 0 13.55418643 0 5155.20800161 0 89.70753279 0 905.57776611 0 18007
0.12850000 0.12850300 13174.73785521 0 8.69674646 0 5166.21389248 0 401.15364988 0 779.06981166 0 17496
0.12950000 0.12949900 13157.46502849 0 251.96846697 0 5151.78665324 0 285.97157649 0 43.92645919 0 18405
0.13050000 0.13049000 12998.57716735 0 158.02643428 0 4712.23750259 0 493.61088381 0 155.45876215 0 18100
0.13150000 0.13148800 12734.94511341 0 241.17516473 0 4610.79286260 0 450.52736071 0 42.01692605 0 19059
0.13250000 0.13249300 12360.81125779 0 123.47745915 0 3810.96133468 0 463.26939211 0 -59.35352936 0 18957
0.13350000 0.13349100 12525.78889759 0 59.78435352 0 4192.03753796 0 544.11618624 0 -262.06864167 0 19468
0.13450000 0.13450700 12244.10895420 0 99.87380927 0 3803.06676708 0 -351.16763948 0 -630.59879370 0 19953
0.13550000 0.13551000 12322.27956742 0 202.77302057 0 4188.02935638 0 -475.97377761 0 -496.59708981 0 19956
0.13650000 0.13649900 12191.95830431 0 252.06147450 0 3750.76110464 0 -240.73448621 0 -409.05928980 0 19723
0.13750000 0.13749600 11924.34021344 0 233.83642784 0 4174.73149427 0 -69.08466347 0 -332.36240301 0 20946
0.13850000 0.13851100 11847.83044894 0 169.80738788 0 4037.25750932 0 188.90714820 0 -258.62071972 0 20955
0.13950000 0.13949800 11673.66277955 0 76.48673406 0 4065.55837156 0 950.51368915 0 -394.87896340 0 20506
0.14050000 0.14048300 11534.37293333 0 98.92214295 0 3639.81640996 0 294.67774549 0 -500.02397435 0 21447
0.14150000 0.14148400 11479.12203248 0 274.34009926 0 3586.35922573 0 148.38354659 0 -376.36714354 0 21771
0.14250000 0.14249400 11108.30987431 0 254.91149090 0 3546.13346967 0 23.21589706 0 126.06616869 0 22470
0.14350000 0.14350900 11048.60789888 0 -16.49056697 0 3751.30364856 0 340.52934980 0 441.08598934 0 22519
0.14450000 0.14449900 11182.93734358 0 -154.94832798 0 3440.02738093 0 466.39621664 0 820.39726404 0 22218
0.14550000 0.14550500 11328.53841495 0 30.28081536 0 3346.66553806 0 614.89823711 0 731.02256534 0 23559
0.14650000 0.14650700 11295.09999400 0 239.80994708 0 3699.50731306 0 62.82492464 0 1031.28076254 0 23044
0.14750000 0.14750500 10991.24218400 0 479.48149011 0 3708.94093380 0 -252.89079163 0 1391.04938394 0 23649
0.14850000 0.14849900 10708.95326275 0 381.09613347 0 4030.08264284 0 -508.62052733 0 1642.62367615 0 23640
0.14950000 0.14949500 10492.71075904 0 225.84885272 0 4131.64907840 0 -144.04762419 0 1502.28195907 0 24457
0.15050000 0.15050000 10394.26671908 0 127.10364552 0 4126.31221784 0 -71.14876627 0 1339.02052962 0 24591
0.15150000 0.15149900 10290.22008276 0 2.44473610 0 3974.94246524 0 129.30039477 0 621.38551222 0 25020
0.15250000 0.15250500 10186.84885825 0 51.46239419 0 3873.13243854 0 313.53280742 0 494.51770721 0 25297
0.15350000 0.15350100 10059.10744682 0 163.69435735 0 3386.47054578 0 315.04417976 0 214.48421853 0 25452
0.15450000 0.15450400 9908.57919091 0 194.97367496 0 3220.20851631 0 242.02551928 0 17.09987700 0 26061
0.15550000 0.15549900 9711.87934050 0 111.89912908 0 3123.43639739 0 518.14051221 0 292.79434304 0 26128
0.15650000 0.15649500 9491.71723381 0 93.64673379 0 2872.75896350 0 327.73527847 0 277.12478896 0 26331
0.15750000 0.15749700 9528.39984593 0 244.46032351 0 2911.41244944 0 108.09899648 0 468.50660175 0 27345
0.15850000 0.15849900 9450.67212571 0 148.43447929 0 3163.34105604 0 72.11648746 0 716.98396470 0 26980
0.15950000 0.15949700 9097.56461492 0 212.43362397 0 3272.41452783 0 -284.74365566 0 670.74815072 0 27777
0.16050000 0.16050000 9052.25666176 0 272.89183918 0 3164.39292690 0 148.35032962 0 749.87652004 0 28224
0.16150000 0.16150500 8795.92126988 0 44.74636484 0 3117.22482317 0 187.52642929 0 1005.84652520 0 28075
0.16250000 0.16249700 8883.22655108 0 -41.70380071 0 2803.76730755 0 470.87829372 0 676.70949041 0 28590
0.16350000 0.16349900 8964.32025805 0 -61.62645620 0 2855.20932866 0 222.25809778 0 135.30602375 0 29163
0.16450000 0.16449100 8870.11691849 0 109.86137842 0 2577.63721778 0 62.12437865 0 418.61913505 0 28996
0.16550000 0.16550500 8688.43114054 0 266.82641964 0 2396.79293652 0 -78.32418636 0 595.43641177 0 30777
0.16650000 0.16650700 8680.32619877 0 168.30376617 0 2620.79713992 0 -8.38821613 0 836.49753156 0 29211
0.16750000 0.16749900 8440.80966830 0 107.69507807 0 2674.68614482 0 92.57393624 0 733.02887060 0 30922
0.16850000 0.16850800 8375.08434817 0 173.45350445 0 2761.84748579 0 247.11435977 0 730.40805131 0 30867
0.16950000 0.16949900 8194.49473038 0 127.73033911 0 2576.08709231 0 264.82786501 0 1088.67194377 0 30852
0.17050000 0.17049200 8135.93320442 0 67.26990944 0 2677.00026070 0 330.68937473 0 887.54205621 0 31257
0.17150000 0.17149500 8090.27093686 0 -17.30272199 0 2198.52081599 0 150.62901407 0 787.05849401 0 32608
0.17250000 0.17250900 8131.26068334 0 -50.04059696 0 2151.72917131 0 209.75301413 0 756.88530165 0 32361
0.17350000 0.17350400 8163.45900392 0 -64.62052355 0 1968.33825534 0 144.56802346 0 892.98078216 0 32508
0.17450000 0.17449800 8287.04829354 0 11.68816753 0 1939.97095915 0 -53.83264676 0 395.54883905 0 32791
0.17550000 0.17549800 8169.69272279 0 189.50726820 0 1950.04677474 0 38.48142201 0 781.24109455 0 33633
0.17650000 0.17650100 8047.45425679 0 189.33121824 0 1942.09684552 0 -98.60713531 0 417.85957356 0 33984
0.17750000 0.17750300 7862.11461165 0 268.68657021 0 2123.22900722 0 24.50925533 0 534.12452032 0 34069
0.17850000 0.17849800 7770.32503890 0 108.04274907 0 2116.03199609 0 -61.31908846 0 325.15099786 0 34536
