### header ###
fiducial parameters:
Omega_m = 0.31
Omega_nu = 0
Omega_de = 0.69
Omega_k = 0
H_0 = 100
w_de = -1
zeff = 0
beta = 0
fgrowth = 0
b_1 = 2
gamma = 0.55
Lx = 3500 Ly = 3500 Lz = 3500
nx = 700 ny = 700 nz = 700
xoffset = -685.467585 yoffset = -31.7331281 zoffset = 572.489161
bins = 400 dk = 0.001
kx_ny = 0.628318531 ky_ny = 0.628318531 kz_ny = 0.628318531
############################
A(data) = 8.01398289 (not used)
A(ran) = 8.01974542 (used)
Ngal = 476500
weighted Ngal = 0
Nran = 23820508
weighted Nran = 0
SN(data) = 3482.43569
SN(ran) = 69.8548911
SN(data+ran) = 3552.29058
############################
13 columns: k_central k_mean P_0(k) sigma^{lin}_{P_0(k)} P^img_1(k) sigma^{lin}_{P_1(k)} P_2(k) sigma^{lin}_{P_2(k)} P^img_3(k) sigma^{lin}_{P_3(k)} P_4(k) sigma^{lin}_{P_4(k)} N_modes
### header ###
0.00050000 0 0 0 0 0 0 0 0 0 0 0 0
0.00150000 0.00179520 19859.21107148 0 -29238.35597885 0 7067.96318636 0 17204.28902646 0 -59921.87179304 0 3
0.00250000 0.00253879 38818.46358169 0 -37104.35697652 0 439.27898593 0 -34575.65943444 0 3342.05945094 0 6
0.00350000 0.00331552 47571.57924382 0 -19781.92624424 0 -22886.71684664 0 11373.38133047 0 29742.14675810 0 7
0.00450000 0.00420575 55386.42610083 0 -2833.26398087 0 -17329.07412717 0 -32809.73434911 0 4910.68678032 0 24
0.00550000 0.00557378 45097.68970959 0 9299.96671260 0 -7188.49651433 0 -40333.93267962 0 5335.64260686 0 45
0.00650000 0.00659388 39320.70423547 0 11511.67466745 0 -981.64020868 0 -38097.54451275 0 2579.90704437 0 40
0.00750000 0.00754703 39522.44199366 0 3826.62867430 0 13312.36685271 0 -15719.49026828 0 9693.88681267 0 57
0.00850000 0.00846663 42411.10081560 0 -3907.47879012 0 11224.79073140 0 175.94477753 0 6190.60324005 0 75
0.00950000 0.00948925 52334.89338081 0 -6472.65964248 0 27704.06392873 0 3704.68916107 0 -10562.87608142 0 112
0.01050000 0.01054430 62159.14574589 0 -11000.25505640 0 15084.82460968 0 16538.28868862 0 -12140.69344040 0 105
0.01150000 0.01145670 69757.86082244 0 -5426.73462314 0 9570.59647582 0 14138.58373067 0 -16645.69023936 0 144
0.01250000 0.01249090 67493.01678078 0 -2892.61164190 0 15502.36197859 0 -5319.22234915 0 -11197.66353559 0 169
0.01350000 0.01339930 75262.57782927 0 -248.42643026 0 11690.27126677 0 15453.97591913 0 -3215.89030963 0 180
0.01450000 0.01448870 69136.26050712 0 89.34314258 0 6081.81764871 0 -2223.93180145 0 16065.94331186 0 267
0.01550000 0.01550050 65473.42473386 0 2288.64954001 0 10563.16396186 0 14039.04353055 0 21191.98680990 0 238
0.01650000 0.01653350 72287.55487375 0 -5109.53466174 0 5076.76058027 0 9460.53756712 0 16068.60066981 0 315
0.01750000 0.01747870 73056.52783241 0 -1366.83420956 0 -5389.98557707 0 19984.66051167 0 7569.14089695 0 297
0.01850000 0.01844180 73811.43893854 0 -2072.25202376 0 4828.66299806 0 -2824.43933799 0 23689.46039599 0 388
0.01950000 0.01947590 75794.60303681 0 -3874.19538172 0 -3960.38235811 0 -3637.60194499 0 7069.21435906 0 399
0.02050000 0.02045430 80922.97172306 0 -3982.23912730 0 12761.74013948 0 -3860.14460152 0 22887.82407912 0 462
0.02150000 0.02154770 84473.53412266 0 -1561.85106659 0 6058.36646474 0 -2843.50588133 0 19322.97838051 0 571
0.02250000 0.02255340 85474.91517926 0 4609.10986923 0 6644.26960485 0 -4309.08308362 0 25054.56732288 0 510
0.02350000 0.02348930 82900.59965892 0 3591.72930327 0 10113.91545467 0 1035.19261490 0 9006.86013000 0 555
0.02450000 0.02439640 83565.49276428 0 -1741.03449913 0 7811.31478538 0 3949.73078163 0 14703.05084993 0 592
0.02550000 0.02547300 79367.08863955 0 3174.18086204 0 7758.86518272 0 -6416.87727005 0 1111.18530182 0 837
0.02650000 0.02652900 78439.78143598 0 11469.48910989 0 13326.42870523 0 -13773.75062790 0 -87.63933323 0 723
0.02750000 0.02749970 66608.44875102 0 10097.86058368 0 22339.85472385 0 -9626.07989548 0 -4615.44323903 0 826
0.02850000 0.02848090 58961.67978477 0 8427.35679364 0 23905.48145320 0 -7240.82432143 0 7967.84424134 0 831
0.02950000 0.02946900 55918.56203161 0 -957.24344817 0 26829.90388430 0 1787.33896153 0 -352.34684208 0 996
0.03050000 0.03053250 60283.38319837 0 -7096.26404860 0 26623.84791943 0 10354.92674900 0 -6686.37765613 0 1041
0.03150000 0.03150510 65107.04150561 0 -4374.49837865 0 28721.27840982 0 7458.57266131 0 -277.16243486 0 1036
0.03250000 0.03246190 64871.53315672 0 2555.18254305 0 22742.33373100 0 1367.81964647 0 -2632.17948984 0 1059
0.03350000 0.03345080 65638.07020391 0 5919.35342665 0 26158.92100029 0 -3241.92134528 0 6706.99432495 0 1302
0.03450000 0.03451200 58201.23251622 0 6637.24975091 0 26576.12619946 0 1339.03160194 0 1881.81910920 0 1339
0.03550000 0.03553350 55257.98713293 0 4991.48153452 0 27487.82142503 0 1378.85875432 0 3079.08066417 0 1365
0.03650000 0.03647120 52108.68578476 0 1965.76947598 0 25159.31151567 0 6793.59097735 0 807.34188585 0 1308
0.03750000 0.03744890 51158.79103857 0 829.41124368 0 25361.93505985 0 3603.97529452 0 -1489.75915970 0 1579
0.03850000 0.03847530 48934.47170575 0 1688.42988392 0 20444.16199164 0 4262.21393266 0 -2056.09750185 0 1662
0.03950000 0.03950240 47585.08748010 0 1111.37353135 0 18658.52816814 0 2120.79309576 0 139.49911316 0 1683
0.04050000 0.04050350 46844.79184273 0 -1360.67799696 0 17618.50469793 0 6252.64147601 0 4452.04894168 0 1822
0.04150000 0.04152450 47243.50625945 0 20.03448597 0 17535.13009204 0 3791.34117510 0 -5111.26194441 0 1887
0.04250000 0.04250150 46762.96736232 0 642.86914406 0 16147.21417602 0 4351.12470096 0 1889.72474912 0 1920
0.04350000 0.04349210 44288.41348860 0 3575.79622786 0 16036.82309758 0 115.12781900 0 2249.92962012 0 2005
0.04450000 0.04448520 42261.18153755 0 2789.68331038 0 12537.41483865 0 503.02568160 0 4823.37042680 0 2151
0.04550000 0.04548030 40109.93954854 0 1915.03608366 0 14012.91284398 0 -1303.48943928 0 2819.03604348 0 2274
0.04650000 0.04648670 39506.16567618 0 825.91460350 0 14487.80485545 0 -61.40467753 0 4156.07462695 0 2311
0.04750000 0.04749250 39247.29472192 0 66.18758968 0 14448.94099534 0 415.88869975 0 -1680.07027868 0 2568
0.04850000 0.04851840 38298.50720821 0 -340.53931489 0 13224.45259365 0 42.82908108 0 -3140.24418647 0 2493
0.04950000 0.04949480 38758.67302767 0 1973.03292106 0 17213.70050256 0 -827.08384100 0 -3267.79736838 0 2644
0.05050000 0.05050630 36953.77335898 0 1367.17745163 0 13455.08911962 0 -1328.65683359 0 -2253.14059432 0 2829
0.05150000 0.05149060 36689.80913531 0 -37.69163308 0 15984.22955469 0 2015.01917677 0 -2085.74918771 0 2784
0.05250000 0.05249300 36503.35118536 0 -1585.70085425 0 10965.74261994 0 5427.32145636 0 2.69758371 0 3055
0.05350000 0.05348950 37296.79398187 0 -1035.31330324 0 12276.99375892 0 7171.97660571 0 -4436.68055483 0 3009
0.05450000 0.05448610 37279.07826216 0 808.20663442 0 7333.88721153 0 5054.81523248 0 -2058.92094468 0 3336
0.05550000 0.05550870 36224.21787668 0 748.98741236 0 5936.11692642 0 3296.44147268 0 1354.07889137 0 3349
0.05650000 0.05647670 35202.24229592 0 545.87225695 0 3723.13565422 0 -1785.88848697 0 121.80000194 0 3324
0.05750000 0.05747970 34904.28603505 0 1749.02871765 0 6323.90295855 0 -1863.04044631 0 1620.66725603 0 3639
0.05850000 0.05849280 33920.39925167 0 2410.72192114 0 8259.74394054 0 -5278.86372519 0 -271.80675135 0 3846
0.05950000 0.05951020 31436.32317860 0 2013.17009853 0 10852.49488170 0 -5188.01530005 0 49.28867538 0 3787
0.06050000 0.06049470 31041.48407557 0 594.78425184 0 13620.06675942 0 -1902.75687543 0 67.57019088 0 3930
0.06150000 0.06148310 31544.49979208 0 -197.84915772 0 15273.93991758 0 158.12608520 0 -1533.68307225 0 4083
0.06250000 0.06249100 32048.62274108 0 -796.76338672 0 16124.51591015 0 2481.37442581 0 -436.52862044 0 4303
0.06350000 0.06350600 32295.20341479 0 94.33653962 0 14038.60063756 0 2347.42144015 0 -984.07722737 0 4470
0.06450000 0.06451750 32302.84331891 0 428.78463646 0 13994.97567778 0 2436.45400402 0 674.68768389 0 4479
0.06550000 0.06550280 31194.17143482 0 1007.94473075 0 11147.06301117 0 1386.38793519 0 -341.28226789 0 4636
0.06650000 0.06648880 30063.46562434 0 1178.43860277 0 11476.79684427 0 -51.74086315 0 -165.54011390 0 4653
0.06750000 0.06749660 30194.89411994 0 656.39731053 0 10162.72226247 0 807.89882379 0 -755.56658776 0 5220
0.06850000 0.06852730 29110.02773421 0 -181.38461071 0 10610.11061909 0 21.79011380 0 -1388.51382156 0 5029
0.06950000 0.06949320 29147.89508509 0 966.03487408 0 9845.46693944 0 569.20939597 0 -42.15056901 0 5040
0.07050000 0.07048030 29112.90653866 0 590.74174605 0 10050.44888881 0 361.18145005 0 -2049.01121396 0 5475
0.07150000 0.07148790 28251.47966777 0 8.59602152 0 9215.99420118 0 23.45893459 0 -1885.92694171 0 5509
0.07250000 0.07249820 28003.01669884 0 210.96764816 0 9355.57192784 0 1282.34129887 0 -959.70925491 0 5916
0.07350000 0.07351270 28105.87859640 0 -225.85328165 0 8715.00472011 0 1954.65286186 0 -2231.53848860 0 5721
0.07450000 0.07449140 27646.04494669 0 78.34577740 0 7384.76454407 0 1778.16000425 0 -514.00610613 0 6028
0.07550000 0.07549160 28222.24873025 0 -263.27109614 0 7080.55241968 0 1174.37505956 0 -1575.39251985 0 6183
0.07650000 0.07648840 27651.47038585 0 830.21287999 0 7250.97764329 0 392.97673800 0 230.92440642 0 6330
0.07750000 0.07749960 27301.80636807 0 1073.53939744 0 7126.89009904 0 -894.49879789 0 -794.95195438 0 6583
0.07850000 0.07848650 25739.83350591 0 1373.35580888 0 8352.25321440 0 -1285.89551514 0 -679.29377102 0 6549
0.07950000 0.07947320 24870.87745414 0 1137.11668655 0 7857.32029500 0 -101.00462580 0 414.15366645 0 6828
0.08050000 0.08048110 23848.12681064 0 706.41764513 0 7959.28533426 0 411.70003927 0 -116.98354064 0 7147
0.08150000 0.08149960 23618.04390091 0 672.93604211 0 7404.77223502 0 723.77240705 0 -1407.13747190 0 7386
0.08250000 0.08250610 23058.44860458 0 71.65067475 0 6484.80598281 0 994.02792569 0 -1862.94079539 0 7227
0.08350000 0.08350160 22671.69229866 0 386.67215625 0 6213.12434874 0 538.80700649 0 -1056.13038113 0 7798
0.08450000 0.08449610 22693.72622505 0 313.11205908 0 5958.57160115 0 -279.68249599 0 -2693.09942099 0 7371
0.08550000 0.08548940 21663.44640067 0 248.70877454 0 6421.01831953 0 782.55316505 0 -1258.43614959 0 8256
0.08650000 0.08650700 22076.33339316 0 760.78608168 0 6603.05841187 0 -522.86839491 0 -1787.25038293 0 8037
0.08750000 0.08749060 21581.06830402 0 878.66315894 0 7946.00961680 0 -647.49737584 0 -1997.72420540 0 8155
0.08850000 0.08849210 20908.53529454 0 351.79765477 0 7760.34887424 0 -598.07605401 0 -549.25928112 0 8718
0.08950000 0.08949900 20330.33849251 0 590.68416996 0 8379.24754231 0 336.13474408 0 -152.27325430 0 8571
0.09050000 0.09049190 20489.33707691 0 62.22148293 0 8227.86671739 0 1351.15579762 0 -696.44258770 0 8932
0.09150000 0.09150830 20020.97773708 0 422.25860821 0 8190.64156135 0 1015.62560248 0 -147.20434400 0 9285
0.09250000 0.09250820 19169.62668177 0 976.54029587 0 7827.59110287 0 789.69702902 0 426.25793194 0 9204
0.09350000 0.09350330 18746.77459695 0 472.55575094 0 7389.55886072 0 733.99991348 0 979.15115006 0 9349
0.09450000 0.09448040 18406.96494826 0 170.02108375 0 7082.96618649 0 555.68012228 0 1037.62520466 0 9564
0.09550000 0.09549270 18320.49009143 0 177.59676839 0 7621.28047452 0 -117.43861319 0 714.52147966 0 10155
0.09650000 0.09649430 17961.85749055 0 626.13443233 0 7676.02204842 0 -146.28976997 0 1137.92496626 0 9913
0.09750000 0.09749140 17660.69025549 0 615.85599320 0 8154.85580753 0 376.30181682 0 1865.60922567 0 10476
0.09850000 0.09850240 17175.39025868 0 139.84235523 0 7002.32644483 0 1037.18674060 0 1426.99015030 0 10575
0.09950000 0.09950330 17196.20622934 0 -70.81205687 0 7298.66614628 0 589.83602988 0 1923.22960402 0 10882
0.10050000 0.10051200 17290.76388329 0 36.05835445 0 6783.78089756 0 1010.83792923 0 1099.87713649 0 10875
0.10150000 0.10150300 16976.08841195 0 433.00208499 0 6674.79600437 0 536.53385820 0 2773.73916264 0 11118
0.10250000 0.10250800 16664.84536130 0 365.74435511 0 6236.70840060 0 337.23754763 0 2927.82163482 0 11575
0.10350000 0.10349800 16326.03222185 0 283.47144554 0 6057.51389573 0 736.22766524 0 2648.22328850 0 11364
0.10450000 0.10450100 15980.35424101 0 334.62558620 0 5768.43763937 0 794.73715128 0 2428.59265340 0 12093
0.10550000 0.10551000 15836.96763461 0 66.76224334 0 5636.16764709 0 617.11491653 0 2182.15591991 0 12067
0.10650000 0.10649700 15555.50913772 0 222.42528989 0 5444.58321075 0 -251.97068143 0 1042.56456876 0 12054
0.10750000 0.10749900 15511.77345468 0 212.85105062 0 5082.85035892 0 105.96547021 0 1052.15873822 0 12807
0.10850000 0.10850100 14886.07637918 0 93.85301120 0 4455.69173655 0 43.34361201 0 798.01123772 0 12736
0.10950000 0.10950300 15043.96773109 0 73.59929320 0 4323.28887636 0 42.57607846 0 -267.81296378 0 12933
0.11050000 0.11050200 15089.14281635 0 -77.60437453 0 4189.25838443 0 454.95407617 0 -111.30786694 0 13428
0.11150000 0.11150900 14950.07441663 0 237.77706825 0 4279.81892913 0 -5.03035647 0 -521.79548664 0 13453
0.11250000 0.11250000 15045.18568682 0 -27.67549733 0 4295.17624365 0 -125.14052233 0 -330.05714498 0 13668
0.11350000 0.11349100 15110.73384975 0 -97.10838542 0 4798.61270850 0 -224.23229330 0 -296.97414566 0 13791
0.11450000 0.11448600 15141.95780574 0 133.24989303 0 4648.73771976 0 -88.10060629 0 304.12686749 0 14205
0.11550000 0.11549300 15082.72086796 0 449.43230778 0 4964.39862801 0 218.90871952 0 237.04518758 0 14776
0.11650000 0.11649800 14569.18644287 0 456.13770769 0 4756.60430814 0 24.89567946 0 608.47739594 0 14553
0.11750000 0.11747300 14145.55929531 0 393.64882811 0 4498.13195758 0 461.39816922 0 1006.23848550 0 14568
0.11850000 0.11849100 13970.83800967 0 311.41245722 0 4499.61564910 0 1028.14065122 0 1087.26908022 0 16015
0.11950000 0.11950300 13466.93650717 0 208.63249486 0 3865.03856909 0 690.12914809 0 1178.50503672 0 15270
0.12050000 0.12050700 13427.51903082 0 248.98226096 0 3858.04085981 0 545.76374817 0 1024.90753237 0 15999
0.12150000 0.12150000 13169.42313930 0 68.26974037 0 3703.61514556 0 124.84932019 0 1174.14254074 0 15670
0.12250000 0.12250700 13217.91992200 0 113.56551397 0 4097.47988401 0 -563.64887445 0 1209.00929160 0 16887
0.12350000 0.12352200 13154.80767054 0 251.10814733 0 4291.34521926 0 -601.85503847 0 932.72267763 0 16407
0.12450000 0.12449800 13036.88741122 0 243.23461715 0 4551.55592483 0 -693.44641660 0 1134.51469022 0 16306
0.12550000 0.12549900 12895.27237679 0 287.00905332 0 4604.73630093 0 80.69521400 0 1073.02231987 0 17523
0.12650000 0.12650100 12756.20397707 0 26.57679054 0 4999.24323422 0 277.66954734 0 738.50302799 0 17154
0.12750000 0.12750600 12752.55010988 0 154.67262709 0 4722.10294401 0 507.17448171 0 1025.71470485 0 18007
0.12850000 0.12850300 12813.22644988 0 26.71419809 0 4705.99271140 0 705.20854726 0 1024.57757709 0 17496
0.12950000 0.12949900 12503.20135496 0 51.44800016 0 4212.77600235 0 661.71534814 0 1533.52805971 0 18405
0.13050000 0.13049000 12545.82980551 0 222.42971882 0 4399.20073532 0 365.71667429 0 1720.20745615 0 18100
0.13150000 0.13148800 12240.23364052 0 126.99513674 0 3981.16511179 0 599.43241380 0 1438.91504413 0 19059
0.13250000 0.13249300 12242.44810548 0 -31.16383326 0 3541.20628512 0 513.96846022 0 1721.25932701 0 18957
0.13350000 0.13349100 12099.83656182 0 -6.01732136 0 3265.84863921 0 460.05509621 0 1103.56975681 0 19468
0.13450000 0.13450700 12322.50101392 0 -59.30547547 0 2778.57776859 0 49.10564985 0 1028.34659646 0 19953
0.13550000 0.13551000 12133.27498277 0 4.29004976 0 2432.15794199 0 322.77376972 0 721.92332880 0 19956
0.13650000 0.13649900 12226.61468099 0 17.30061825 0 2332.35200607 0 -41.51313527 0 759.41532787 0 19723
0.13750000 0.13749600 12087.43555802 0 216.13399492 0 2262.64064902 0 -227.97695355 0 387.38299950 0 20946
0.13850000 0.13851100 11987.89535790 0 391.31921097 0 2758.16040162 0 -556.66334472 0 124.84378403 0 20955
0.13950000 0.13949800 11756.37304594 0 190.51706422 0 2897.63847736 0 -330.40924491 0 478.79389874 0 20506
0.14050000 0.14048300 11565.81833581 0 379.62905043 0 2976.32948985 0 -288.90906426 0 383.80996028 0 21447
0.14150000 0.14148400 11290.78178732 0 408.48795784 0 3705.26492196 0 -116.60043820 0 396.27739803 0 21771
0.14250000 0.14249400 11161.56775668 0 165.29984445 0 3641.35546311 0 -167.85533702 0 127.66833409 0 22470
0.14350000 0.14350900 10851.59802339 0 261.98559923 0 3790.93149908 0 247.33027010 0 552.26209561 0 22519
0.14450000 0.14449900 10710.24872475 0 42.45959760 0 3561.91153253 0 254.58153563 0 229.03436057 0 22218
0.14550000 0.14550500 10676.48920638 0 61.50831449 0 3469.62370517 0 583.13062997 0 336.47798615 0 23559
0.14650000 0.14650700 10534.63058080 0 43.24761496 0 3144.26344038 0 214.32145535 0 214.15758494 0 23044
0.14750000 0.14750500 10630.01865912 0 83.97417227 0 2904.19329366 0 364.84417510 0 157.44624446 0 23649
0.14850000 0.14849900 10490.95025939 0 137.90026945 0 2717.15958282 0 176.34781015 0 -101.15221989 0 23640
0.14950000 0.14949500 10225.66842906 0 254.71551076 0 2873.50080926 0 239.50213645 0 297.68055998 0 24457
0.15050000 0.15050000 10120.68064513 0 251.74480601 0 2849.31885186 0 22.25969109 0 434.56549725 0 24591
0.15150000 0.15149900 9935.16384280 0 277.46470933 0 2864.99726380 0 295.25793531 0 281.05324980 0 25020
0.15250000 0.15250500 9673.80161545 0 155.36132569 0 2861.55377078 0 115.13114070 0 1031.13682232 0 25297
0.15350000 0.15350100 9662.50784414 0 50.06318450 0 2825.80123394 0 13.14572836 0 720.80391676 0 25452
0.15450000 0.15450400 9588.22361693 0 -23.77792827 0 2789.93797385 0 7.32068900 0 338.75113443 0 26061
0.15550000 0.15549900 9674.88670328 0 68.42253845 0 2835.42308421 0 -101.07748170 0 593.78995707 0 26128
0.15650000 0.15649500 9398.07858282 0 235.86598498 0 2616.57858417 0 -71.46388463 0 605.93961910 0 26331
0.15750000 0.15749700 9496.62227370 0 105.97942134 0 2737.36657561 0 51.04673911 0 614.91484559 0 27345
0.15850000 0.15849900 9399.45155110 0 -77.57890818 0 2657.64583692 0 196.07204959 0 334.17494258 0 26980
0.15950000 0.15949700 9363.05681942 0 169.54940272 0 2405.55114545 0 440.45708129 0 506.74376828 0 27777
0.16050000 0.16050000 9292.53718265 0 27.46357303 0 2431.21679438 0 370.15667655 0 359.65457646 0 28224
0.16150000 0.16150500 9167.04345315 0 59.10229831 0 2185.54405130 0 203.31335002 0 450.10107620 0 28075
0.16250000 0.16249700 9149.91456666 0 132.34971302 0 2274.51018122 0 20.66450126 0 356.29855480 0 28590
0.16350000 0.16349900 9040.56428675 0 120.99725839 0 2267.49032729 0 -383.45343142 0 264.65735121 0 29163
0.16450000 0.16449100 9030.00128887 0 127.13243357 0 2267.35745939 0 -328.69082010 0 406.43071989 0 28996
0.16550000 0.16550500 8817.91090697 0 186.69046877 0 2573.10863693 0 -329.02631154 0 168.19525739 0 30777
0.16650000 0.16650700 8872.29816648 0 176.53161075 0 2793.69149197 0 -229.03325334 0 -100.96587266 0 29211
0.16750000 0.16749900 8555.85112316 0 276.42944696 0 2769.69776409 0 100.32843892 0 -327.75299419 0 30922
0.16850000 0.16850800 8361.83077537 0 263.54236810 0 2733.80128702 0 103.58015928 0 -183.90688631 0 30867
0.16950000 0.16949900 8180.27786532 0 173.99494113 0 2723.05005962 0 206.48889278 0 -165.03078696 0 30852
0.17050000 0.17049200 8142.98627533 0 42.25232368 0 2778.52240697 0 145.57892672 0 -154.10793852 0 31257
0.17150000 0.17149500 7971.23237274 0 228.60143267 0 2554.29675706 0 225.13579500 0 -20.54015905 0 32608
0.17250000 0.17250900 7947.65939320 0 47.67178378 0 2501.75857580 0 112.79820186 0 -18.70968231 0 32361
0.17350000 0.17350400 7935.50198055 0 -173.14015765 0 2334.21215664 0 212.63735475 0 483.91706343 0 32508
0.17450000 0.17449800 8085.13337815 0 -79.44226973 0 2593.09418323 0 113.01300496 0 160.02277444 0 32791
0.17550000 0.17549800 8146.40762369 0 59.11613872 0 2345.93774863 0 116.49414388 0 -16.77800452 0 33633
0.17650000 0.17650100 7972.80464286 0 295.96767133 0 2455.43196876 0 -145.09728059 0 29.15165968 0 33984
0.17750000 0.17750300 7758.35585578 0 338.06465029 0 2428.76981059 0 -275.86254393 0 43.95148264 0 34069
0.17850000 0.17849800 7600.42021456 0 150.67883953 0 2774.64709328 0 -2.95038703 0 203.59569430 0 34536
