### header ###
fiducial parameters:
Omega_m = 0.31
Omega_nu = 0
Omega_de = 0.69
Omega_k = 0
H_0 = 100
w_de = -1
zeff = 0
beta = 0
fgrowth = 0
b_1 = 2
gamma = 0.55
Lx = 3500 Ly = 3500 Lz = 3500
nx = 700 ny = 700 nz = 700
xoffset = -685.467585 yoffset = -31.7331281 zoffset = 572.489161
bins = 400 dk = 0.001
kx_ny = 0.628318531 ky_ny = 0.628318531 kz_ny = 0.628318531
############################
A(data) = 8.08241556 (not used)
A(ran) = 8.08017432 (used)
Ngal = 479998
weighted Ngal = 0
Nran = 23820508
weighted Nran = 0
SN(data) = 3489.88029
SN(ran) = 70.3812488
SN(data+ran) = 3560.26154
############################
13 columns: k_central k_mean P_0(k) sigma^{lin}_{P_0(k)} P^img_1(k) sigma^{lin}_{P_1(k)} P_2(k) sigma^{lin}_{P_2(k)} P^img_3(k) sigma^{lin}_{P_3(k)} P_4(k) sigma^{lin}_{P_4(k)} N_modes
### header ###
0.00050000 0 0 0 0 0 0 0 0 0 0 0 0
0.00150000 0.00179520 74295.52097961 0 -34275.48870860 0 86211.11405645 0 -97676.06351316 0 -107154.08428117 0 3
0.00250000 0.00253879 140557.62741031 0 -29621.12624784 0 41963.00383019 0 -35927.47957154 0 44595.00616283 0 6
0.00350000 0.00331552 129400.04569056 0 -4835.33960993 0 -6583.40503532 0 32293.98545906 0 179408.20073397 0 7
0.00450000 0.00420575 118225.85548358 0 21791.33175233 0 29783.44652968 0 -51530.15681299 0 48559.78423389 0 24
0.00550000 0.00557378 105289.39405846 0 12352.50701418 0 65512.39931722 0 16085.65205003 0 -19794.43797129 0 45
0.00650000 0.00659388 90576.59956270 0 22352.03428115 0 90556.33720828 0 27081.90999718 0 55382.32934064 0 40
0.00750000 0.00754703 79033.81166250 0 18985.93681303 0 59347.88247444 0 10246.45118275 0 -28895.99969546 0 57
0.00850000 0.00846663 76039.52286180 0 4239.91427048 0 66302.96330927 0 32613.53275332 0 37608.59064876 0 75
0.00950000 0.00948925 80138.71895616 0 -7570.97890287 0 47475.80363414 0 34691.47595204 0 -26640.89929965 0 112
0.01050000 0.01054430 83807.31233832 0 -19709.73468642 0 43696.92989679 0 22356.02031808 0 -152.99627711 0 105
0.01150000 0.01145670 108684.50101761 0 -7160.38388162 0 38218.23285327 0 29010.15536434 0 -3818.73410670 0 144
0.01250000 0.01249090 108704.76337202 0 -1385.73466803 0 26869.32136066 0 813.31208339 0 -5493.14642740 0 169
0.01350000 0.01339930 95234.17299766 0 15609.76352933 0 13160.34383295 0 6674.61884718 0 -7290.89337426 0 180
0.01450000 0.01448870 92066.60231354 0 18664.61794679 0 25443.09520077 0 -8425.89524677 0 -1733.11778689 0 267
0.01550000 0.01550050 88407.53113072 0 12574.28568030 0 38739.07501274 0 -1068.60778397 0 16705.59151663 0 238
0.01650000 0.01653350 69641.37996534 0 115.81983930 0 32256.67172442 0 11690.71415977 0 16006.04203459 0 315
0.01750000 0.01747870 78222.54242304 0 854.11470758 0 33168.25622674 0 25491.14909048 0 11234.20220749 0 297
0.01850000 0.01844180 72514.86970228 0 254.97238869 0 30642.10531936 0 7630.52586574 0 19160.10448243 0 388
0.01950000 0.01947590 75988.59016763 0 334.78281322 0 38478.65393301 0 6204.54329700 0 25733.30083426 0 399
0.02050000 0.02045430 83960.66403706 0 -6783.39336619 0 45148.17951077 0 3944.78145244 0 34587.28537549 0 462
0.02150000 0.02154770 83613.65737724 0 -464.29026046 0 49831.44073931 0 2966.01008312 0 23458.60242352 0 571
0.02250000 0.02255340 87454.75758008 0 2399.87104282 0 51438.03507050 0 2698.54700480 0 31376.64334783 0 510
0.02350000 0.02348930 86551.36659812 0 3157.53915783 0 49503.25703169 0 8644.48508334 0 9575.36864781 0 555
0.02450000 0.02439640 80039.17875604 0 7065.78193837 0 52805.79935534 0 2317.48187384 0 20173.22220333 0 592
0.02550000 0.02547300 75553.11563252 0 8533.07535101 0 44858.74894001 0 11655.72561334 0 4140.61766151 0 837
0.02650000 0.02652900 68380.57433824 0 3338.83740441 0 37675.79966041 0 10521.48773124 0 6130.27014212 0 723
0.02750000 0.02749970 64529.39831982 0 1582.48988006 0 28469.60446670 0 7113.89118971 0 -2131.79898663 0 826
0.02850000 0.02848090 63897.16857268 0 504.30232066 0 33168.58839648 0 9684.29817938 0 -3075.77003905 0 831
0.02950000 0.02946900 60997.10525618 0 4528.91302057 0 34429.94763982 0 1577.11980252 0 -6118.97637080 0 996
0.03050000 0.03053250 58186.61704746 0 5044.66191062 0 31765.94628846 0 6023.94260688 0 6223.38839384 0 1041
0.03150000 0.03150510 55420.30741477 0 -317.65281949 0 32365.62340063 0 -2287.50909056 0 12321.50450469 0 1036
0.03250000 0.03246190 60795.58894448 0 -1337.38182555 0 38835.40423866 0 1810.54655435 0 3248.86369294 0 1059
0.03350000 0.03345080 59083.69680427 0 1916.84087260 0 41756.06207933 0 -1632.65858381 0 4888.28746721 0 1302
0.03450000 0.03451200 55826.88318211 0 3805.71305272 0 43030.26521946 0 -3596.78935571 0 2291.10759612 0 1339
0.03550000 0.03553350 54854.95450953 0 4379.85738386 0 44110.81339851 0 1629.59154983 0 3594.95134979 0 1365
0.03650000 0.03647120 51336.50185191 0 2267.44603799 0 40308.24488604 0 9417.05654756 0 -1882.74918449 0 1308
0.03750000 0.03744890 50793.18287306 0 1303.77731972 0 40661.00915476 0 5631.08544999 0 2840.38348573 0 1579
0.03850000 0.03847530 47080.85380786 0 2298.12745006 0 34118.59386592 0 7395.06180615 0 211.64638168 0 1662
0.03950000 0.03950240 49821.03275398 0 431.96350092 0 34561.59758192 0 6518.88659860 0 5158.70685626 0 1683
0.04050000 0.04050350 45584.98272486 0 -2190.44909120 0 30568.14218957 0 6376.48542911 0 7125.04102080 0 1822
0.04150000 0.04152450 49122.47978117 0 1647.75016254 0 34471.02596490 0 5218.46419330 0 7573.20444016 0 1887
0.04250000 0.04250150 46790.98034411 0 1516.52096879 0 30923.12092326 0 5207.11506036 0 12842.01449441 0 1920
0.04350000 0.04349210 45289.57309870 0 648.49942123 0 24823.59862716 0 10163.39767428 0 10306.08672422 0 2005
0.04450000 0.04448520 44118.01040964 0 260.70342402 0 22981.27450059 0 5062.20047314 0 12541.62232208 0 2151
0.04550000 0.04548030 43684.97178598 0 1119.45632846 0 18832.58511429 0 5296.46872165 0 8885.89498136 0 2274
0.04650000 0.04648670 43284.70724379 0 1659.75256264 0 16109.12537865 0 1828.42835893 0 12680.57999855 0 2311
0.04750000 0.04749250 41592.85601150 0 609.62448879 0 15076.96325905 0 -2037.65100870 0 11088.26896639 0 2568
0.04850000 0.04851840 40662.78072673 0 613.22742329 0 16730.39352422 0 545.98076574 0 10452.91682364 0 2493
0.04950000 0.04949480 40982.21729775 0 2142.50592473 0 17795.44044853 0 422.15120666 0 5542.69508097 0 2644
0.05050000 0.05050630 38270.60494967 0 1143.99260026 0 16579.80990669 0 3743.84090163 0 9203.60426970 0 2829
0.05150000 0.05149060 38982.00181926 0 406.73520882 0 17089.80118784 0 3449.81531607 0 9875.96012199 0 2784
0.05250000 0.05249300 38014.61279986 0 -640.24389585 0 14727.40996453 0 4671.97852955 0 8249.95600540 0 3055
0.05350000 0.05348950 39631.72583962 0 -1235.63823279 0 14252.07506007 0 2350.90922247 0 8636.49086482 0 3009
0.05450000 0.05448610 37725.73584534 0 372.49736601 0 13635.23584442 0 1103.68158730 0 10966.94950335 0 3336
0.05550000 0.05550870 38646.51037726 0 1233.06945343 0 13649.07625044 0 -1215.11014257 0 9488.39553636 0 3349
0.05650000 0.05647670 37913.96536726 0 1010.67848775 0 14977.53378218 0 -136.35789461 0 8944.42329035 0 3324
0.05750000 0.05747970 37323.25683818 0 1154.90991253 0 13558.61535667 0 -2200.76849793 0 9579.62042055 0 3639
0.05850000 0.05849280 35635.39164283 0 1922.00057597 0 13499.15697240 0 904.02874786 0 8524.22856348 0 3846
0.05950000 0.05951020 34488.63096136 0 1265.76602862 0 12358.81823932 0 139.36070910 0 6628.94550730 0 3787
0.06050000 0.06049470 34532.25592115 0 -55.77462181 0 13424.08661013 0 3008.50566577 0 6524.96530493 0 3930
0.06150000 0.06148310 33611.25994273 0 -331.11012307 0 12154.86601617 0 841.10472592 0 1196.04359923 0 4083
0.06250000 0.06249100 32629.91979405 0 1131.63588576 0 11671.78048433 0 1182.98932827 0 2165.53636036 0 4303
0.06350000 0.06350600 32390.31468498 0 1469.74039643 0 10758.29154214 0 730.52320349 0 924.13276804 0 4470
0.06450000 0.06451750 31116.77588434 0 497.09312997 0 11278.60223002 0 -443.98804567 0 1512.05882188 0 4479
0.06550000 0.06550280 30756.59315799 0 1291.32095430 0 12332.35538301 0 -1509.98829714 0 826.22462859 0 4636
0.06650000 0.06648880 30230.43628261 0 1680.87855839 0 14549.14553495 0 -495.68694471 0 1956.30263826 0 4653
0.06750000 0.06749660 29104.27012530 0 811.58812242 0 14242.44213747 0 -344.27068835 0 712.69786776 0 5220
0.06850000 0.06852730 28435.16953651 0 422.28518179 0 14344.63969555 0 680.57816070 0 1004.09488341 0 5029
0.06950000 0.06949320 28311.27022179 0 324.89301269 0 13914.14770660 0 801.50898513 0 -114.93958948 0 5040
0.07050000 0.07048030 28355.33807457 0 -0.13480555 0 14021.10636435 0 1119.68884729 0 -1118.60375945 0 5475
0.07150000 0.07148790 27577.95014905 0 583.93226629 0 11687.39246232 0 692.20853069 0 -3228.11415623 0 5509
0.07250000 0.07249820 26984.25209227 0 861.79336484 0 11574.01185618 0 2208.53019763 0 -1060.86158552 0 5916
0.07350000 0.07351270 26892.68396602 0 287.72653997 0 10331.56414363 0 319.44542888 0 -1110.58739628 0 5721
0.07450000 0.07449140 26494.30171905 0 -286.88947221 0 10505.41071561 0 2976.68380424 0 -315.43503283 0 6028
0.07550000 0.07549160 26464.18499554 0 335.23013514 0 9794.12456926 0 2234.36193143 0 537.60565924 0 6183
0.07650000 0.07648840 26180.06914070 0 -112.76609212 0 10241.13646684 0 543.63675457 0 2314.29304429 0 6330
0.07750000 0.07749960 26412.36651539 0 372.95797473 0 10501.71255912 0 1500.44395315 0 2312.15608560 0 6583
0.07850000 0.07848650 26124.59679336 0 888.11338817 0 10208.55061489 0 -1009.56239741 0 3429.63046793 0 6549
0.07950000 0.07947320 24284.81930149 0 1268.91056887 0 9975.94321510 0 732.03236136 0 4043.28085403 0 6828
0.08050000 0.08048110 23923.19717291 0 996.94880497 0 9655.27761603 0 769.95064494 0 3444.94349315 0 7147
0.08150000 0.08149960 23315.99087986 0 -157.58021959 0 8726.16562352 0 1225.99423787 0 1396.03193011 0 7386
0.08250000 0.08250610 22926.02359974 0 -65.17369690 0 7458.94912035 0 706.01904143 0 853.00858233 0 7227
0.08350000 0.08350160 23276.13051051 0 61.45262070 0 7371.62169451 0 -800.48590232 0 -295.88130720 0 7798
0.08450000 0.08449610 22935.54579909 0 242.37872644 0 7168.83206546 0 86.76572681 0 340.24146935 0 7371
0.08550000 0.08548940 23377.88517559 0 -592.63511359 0 6578.27854893 0 757.02592018 0 -772.39762872 0 8256
0.08650000 0.08650700 23189.43420718 0 -128.04922206 0 6336.53648116 0 1034.34115312 0 -2154.95121783 0 8037
0.08750000 0.08749060 23481.07924290 0 986.20200650 0 6656.90312747 0 -208.61145744 0 -1343.96985881 0 8155
0.08850000 0.08849210 22148.74639748 0 774.23563464 0 5361.81758273 0 657.08047297 0 -622.12625075 0 8718
0.08950000 0.08949900 22274.63873066 0 253.49423333 0 6043.18630742 0 244.25769996 0 -0.78327951 0 8571
0.09050000 0.09049190 21803.06841664 0 278.15672963 0 5835.55807242 0 -296.18579613 0 -2267.22459149 0 8932
0.09150000 0.09150830 21078.05258751 0 925.66739226 0 6435.00266578 0 -540.51768067 0 -1416.54894800 0 9285
0.09250000 0.09250820 20553.44583760 0 1214.91084073 0 6887.68359366 0 -1020.14311100 0 -439.49932519 0 9204
0.09350000 0.09350330 20110.77429136 0 188.22066406 0 7098.51173053 0 89.59858111 0 -990.35191385 0 9349
0.09450000 0.09448040 19592.03587360 0 176.17951082 0 7054.13385266 0 687.29020400 0 670.85998120 0 9564
0.09550000 0.09549270 19970.04504291 0 165.81027862 0 7643.45834113 0 746.24590473 0 -1120.58570560 0 10155
0.09650000 0.09649430 19221.22371543 0 721.56126378 0 7551.72413001 0 218.88878934 0 187.89735217 0 9913
0.09750000 0.09749140 18859.38014035 0 894.01272283 0 7547.14018754 0 408.96296057 0 193.11684609 0 10476
0.09850000 0.09850240 17897.52728336 0 587.27832285 0 6770.74877125 0 899.64521447 0 1300.10130788 0 10575
0.09950000 0.09950330 17355.31553699 0 243.41509605 0 6225.89073925 0 1686.04933408 0 1521.83568470 0 10882
0.10050000 0.10051200 17192.66308540 0 -68.70455056 0 5182.58986089 0 1461.24792329 0 796.33378051 0 10875
0.10150000 0.10150300 17178.49050963 0 131.75512918 0 5057.58331369 0 517.00338445 0 436.11562272 0 11118
0.10250000 0.10250800 16869.35120070 0 765.87160047 0 5040.68694601 0 -835.71693266 0 339.60038175 0 11575
0.10350000 0.10349800 16034.94080236 0 809.74347310 0 5047.09782208 0 -338.76109952 0 2015.01917677 0 11364
0.10450000 0.10450100 16053.98520105 0 -130.74311869 0 5586.98438024 0 -467.96184337 0 2046.95176155 0 12093
0.10550000 0.10551000 16095.72786562 0 -378.99792791 0 5988.20114237 0 709.60868914 0 1381.32788275 0 12067
0.10650000 0.10649700 16340.20479761 0 171.91002237 0 5555.83793053 0 660.99564702 0 803.52525548 0 12054
0.10750000 0.10749900 15975.37169484 0 581.35462907 0 5280.19240417 0 -249.34986215 0 678.01270304 0 12807
0.10850000 0.10850100 15370.93348299 0 663.10160320 0 5233.82150783 0 -101.76551596 0 1231.09857961 0 12736
0.10950000 0.10950300 15179.27154038 0 439.29116548 0 5934.44500537 0 -6.52226366 0 694.16168879 0 12933
0.11050000 0.11050200 14715.67330022 0 2.28209472 0 5297.12198881 0 798.36001596 0 1596.51851560 0 13428
0.11150000 0.11150900 14831.37909458 0 -147.89414984 0 5360.24531260 0 698.54411495 0 1032.59172580 0 13453
0.11250000 0.11250000 14678.47028883 0 115.89513111 0 4533.58554164 0 735.24665726 0 1567.38722900 0 13668
0.11350000 0.11349100 14830.05041560 0 8.78844745 0 4448.07397707 0 449.87077185 0 -19.33172552 0 13791
0.11450000 0.11448600 14642.37450992 0 -33.78265953 0 4159.48490300 0 -449.54635273 0 575.95133456 0 14205
0.11550000 0.11549300 14631.63435485 0 231.72714997 0 4343.44050753 0 -355.63864424 0 26.69349284 0 14776
0.11650000 0.11649800 14745.01496099 0 -11.03941787 0 4523.73117256 0 -1040.16741044 0 -47.37781356 0 14553
0.11750000 0.11747300 14738.81445909 0 41.69848599 0 5076.55020610 0 -214.84739078 0 -792.64891081 0 14568
0.11850000 0.11849100 14568.63282663 0 230.73728413 0 4759.66026979 0 -109.95737548 0 -1187.65077702 0 16015
0.11950000 0.11950300 14294.92495711 0 483.09771139 0 5250.62929690 0 -147.03715189 0 -1251.09519823 0 15270
0.12050000 0.12050700 14059.97022446 0 398.26266587 0 5681.60846814 0 89.73288841 0 -480.25987454 0 15999
0.12150000 0.12150000 13622.83484062 0 457.08992763 0 5484.38821847 0 735.62643800 0 624.71717476 0 15670
0.12250000 0.12250700 13595.70764482 0 80.56002092 0 5280.18133184 0 1338.11259898 0 1326.61952582 0 16887
0.12350000 0.12352200 13399.61677228 0 -120.29748746 0 4841.72834135 0 961.07115086 0 1807.29129085 0 16407
0.12450000 0.12449800 13563.59790284 0 -17.50434903 0 4706.60168926 0 1378.83660967 0 2155.09515805 0 16306
0.12550000 0.12549900 13431.94796075 0 -151.80710943 0 4234.51097597 0 348.97089024 0 2177.88200253 0 17523
0.12650000 0.12650100 13622.61339413 0 56.18440855 0 3999.31265217 0 241.60366371 0 2145.96049008 0 17154
0.12750000 0.12750600 13536.47070704 0 23.92175777 0 4146.72958481 0 -383.72470338 0 1964.87261767 0 18007
0.12850000 0.12850300 13155.02911703 0 523.29135772 0 4174.85328985 0 -136.46861785 0 1893.88794325 0 17496
0.12950000 0.12949900 13179.38823163 0 145.82694679 0 4011.45899250 0 -293.27266747 0 2299.21253789 0 18405
0.13050000 0.13049000 12850.98307751 0 110.61739676 0 4101.35519770 0 421.08494178 0 1902.93403263 0 18100
0.13150000 0.13148800 13087.59865889 0 78.46569068 0 3931.19570989 0 479.01645247 0 2184.04928745 0 19059
0.13250000 0.13249300 12707.81791761 0 50.21343595 0 3789.18207176 0 354.67092306 0 1804.88859636 0 18957
0.13350000 0.13349100 12785.43491459 0 347.55695436 0 3697.50322226 0 -74.58960193 0 1859.96234001 0 19468
0.13450000 0.13450700 12579.26822646 0 446.03421130 0 4366.02805016 0 -238.77689918 0 2029.31354811 0 19953
0.13550000 0.13551000 12349.51748648 0 236.49157134 0 4406.29809553 0 -360.35324015 0 1556.74672485 0 19956
0.13650000 0.13649900 11878.83295844 0 262.63665193 0 4239.31636494 0 -212.34836707 0 1180.08837917 0 19723
0.13750000 0.13749600 11815.60998372 0 237.91325784 0 4409.44263578 0 60.38214834 0 830.37342870 0 20946
0.13850000 0.13851100 11714.85182787 0 32.21249315 0 4568.72910062 0 149.22615051 0 1365.70483243 0 20955
0.13950000 0.13949800 11718.83786481 0 -0.82101178 0 4444.07686781 0 532.94753219 0 750.07250019 0 20506
0.14050000 0.14048300 11630.36998951 0 177.91232965 0 4181.37488916 0 490.77636866 0 827.46915790 0 21447
0.14150000 0.14148400 11611.76848381 0 72.91170182 0 4006.58716958 0 251.29416239 0 1294.33262665 0 21771
0.14250000 0.14249400 11354.00476203 0 159.70278425 0 3851.76285164 0 419.33219276 0 1165.93794805 0 22470
0.14350000 0.14350900 11100.00563069 0 188.17526753 0 3547.29606377 0 257.46809071 0 857.76636031 0 22519
0.14450000 0.14449900 11078.41459730 0 301.77067677 0 3294.62561141 0 193.87087141 0 537.02879112 0 22218
0.14550000 0.14550500 10730.51107917 0 277.45695870 0 3043.63815242 0 151.98537386 0 688.35757612 0 23559
0.14650000 0.14650700 10629.09965616 0 159.65849495 0 2672.06200383 0 -117.43861319 0 582.34006598 0 23044
0.14750000 0.14750500 10499.17699673 0 -6.74444093 0 2747.94064582 0 -279.42229636 0 280.51402758 0 23649
0.14850000 0.14849900 10559.96405999 0 4.59426188 0 3121.17764313 0 -208.27375154 0 109.70636588 0 23640
0.14950000 0.14949500 10459.75952038 0 190.50931360 0 3242.30887664 0 82.26438387 0 214.62926598 0 24457
0.15050000 0.15050000 10363.66281328 0 277.99285922 0 3408.74806332 0 -97.22508772 0 456.55291987 0 24591
0.15150000 0.15149900 10294.29469829 0 25.54163889 0 3113.26093088 0 156.92252349 0 717.96165098 0 25020
0.15250000 0.15250500 10223.84149547 0 102.42498363 0 3414.19564713 0 443.56619009 0 406.48386704 0 25297
0.15350000 0.15350100 10041.33636548 0 56.13657611 0 3394.76371707 0 -4.51570374 0 589.12075770 0 25452
0.15450000 0.15450400 10136.73551612 0 151.43397208 0 3300.11748452 0 175.56610402 0 756.77347117 0 26061
0.15550000 0.15549900 9965.61273605 0 112.52250097 0 3284.25084306 0 101.23681245 0 835.05148594 0 26128
0.15650000 0.15649500 9818.79370895 0 93.89730050 0 3112.65195302 0 380.05422770 0 972.55979510 0 26331
0.15750000 0.15749700 9838.35850691 0 96.96056988 0 3047.17022404 0 443.57283349 0 1053.25268391 0 27345
0.15850000 0.15849900 9778.53473591 0 82.65424043 0 3027.08502682 0 7.61522391 0 959.14124465 0 26980
0.15950000 0.15949700 9696.59953225 0 215.77746607 0 3204.78476783 0 119.85902339 0 747.53583057 0 27777
0.16050000 0.16050000 9373.17692430 0 279.21413665 0 3299.30920481 0 -409.31395327 0 873.84448317 0 28224
0.16150000 0.16150500 9277.36809765 0 197.67642945 0 3103.00795810 0 -20.89314476 0 1504.17532661 0 28075
0.16250000 0.16249700 9151.89651280 0 78.70496362 0 3156.29905745 0 247.21179623 0 1323.26461140 0 28590
0.16350000 0.16349900 9148.71875558 0 -54.54504014 0 2710.52726025 0 707.92569577 0 1044.75467461 0 29163
0.16450000 0.16449100 9036.05785055 0 102.76047507 0 2730.50173423 0 414.28985604 0 672.96261569 0 28996
0.16550000 0.16550500 8911.00701405 0 289.11611673 0 2441.84622620 0 -42.09509667 0 972.43910675 0 30777
0.16650000 0.16650700 8691.78605496 0 280.39223201 0 2736.11540291 0 -266.07903772 0 699.35128743 0 29211
0.16750000 0.16749900 8447.22054437 0 207.65259411 0 2644.44762574 0 -403.68256887 0 744.47101106 0 30922
0.16850000 0.16850800 8330.81719355 0 87.51875562 0 2891.54869871 0 -191.65087029 0 333.75751594 0 30867
0.16950000 0.16949900 8437.87550222 0 -14.04159017 0 2766.85217661 0 -50.57062914 0 148.40347678 0 30852
0.17050000 0.17049200 8545.36563156 0 -170.96666029 0 2903.00855490 0 106.26187635 0 -90.04202772 0 31257
0.17150000 0.17149500 8635.81545300 0 -110.73432051 0 2389.29697262 0 383.62394522 0 28.57290926 0 32608
0.17250000 0.17250900 8556.42688405 0 146.11150554 0 2332.34093375 0 219.62067001 0 -371.39456246 0 32361
0.17350000 0.17350400 8454.71650827 0 140.81007642 0 1867.14827882 0 347.46616130 0 -308.77502945 0 32508
0.17450000 0.17449800 8376.70090760 0 108.65825961 0 2147.20059046 0 119.11164147 0 -100.00136245 0 32791
0.17550000 0.17549800 8288.16659835 0 163.07541439 0 1975.50204949 0 72.15734433 0 322.12493148 0 33633
0.17650000 0.17650100 8164.30050060 0 176.67222927 0 2196.37278498 0 -53.35365799 0 141.96491989 0 33984
0.17750000 0.17750300 8090.73597451 0 154.06807815 0 2206.82505960 0 -103.22152668 0 325.43444937 0 34069
