### header ###
fiducial parameters:
Omega_m = 0.31
Omega_nu = 0
Omega_de = 0.69
Omega_k = 0
H_0 = 100
w_de = -1
zeff = 0
beta = 0
fgrowth = 0
b_1 = 2
gamma = 0.55
Lx = 3500 Ly = 3500 Lz = 3500
nx = 700 ny = 700 nz = 700
xoffset = -685.467585 yoffset = -31.7331281 zoffset = 572.489161
bins = 400 dk = 0.001
kx_ny = 0.628318531 ky_ny = 0.628318531 kz_ny = 0.628318531
############################
A(data) = 8.06799455 (not used)
A(ran) = 8.05844728 (used)
Ngal = 479144
weighted Ngal = 0
Nran = 23820508
weighted Nran = 0
SN(data) = 3497.95597
SN(ran) = 70.1919983
SN(data+ran) = 3568.14797
############################
13 columns: k_central k_mean P_0(k) sigma^{lin}_{P_0(k)} P^img_1(k) sigma^{lin}_{P_1(k)} P_2(k) sigma^{lin}_{P_2(k)} P^img_3(k) sigma^{lin}_{P_3(k)} P_4(k) sigma^{lin}_{P_4(k)} N_modes
### header ###
0.00050000 0 0 0 0 0 0 0 0 0 0 0 0
0.00150000 0.00179520 6509.15402509 0 -12878.55316631 0 -11887.80154154 0 -1888.31856387 0 22752.96316283 0 3
0.00250000 0.00253879 15282.35488444 0 -22427.99042940 0 -1628.09678598 0 -49215.59803290 0 -24713.76116496 0 6
0.00350000 0.00331552 23185.11600050 0 -14665.73711529 0 -19891.54225995 0 13943.15719762 0 -15714.83989186 0 7
0.00450000 0.00420575 37159.94004711 0 -5979.06647439 0 2308.73473724 0 -30261.66023859 0 -343.88537145 0 24
0.00550000 0.00557378 54481.81716314 0 -15781.93818026 0 13125.90890276 0 -54483.25656537 0 -8917.10786502 0 45
0.00650000 0.00659388 67660.65177854 0 -5535.53128681 0 40001.09859557 0 -57484.74237721 0 -22617.43790705 0 40
0.00750000 0.00754703 66599.48016792 0 5878.08687205 0 54579.91796104 0 -10669.39184617 0 -11018.63511560 0 57
0.00850000 0.00846663 78881.12430326 0 14194.16680126 0 71897.36614714 0 -18842.10731363 0 -32018.83818731 0 75
0.00950000 0.00948925 70012.19212352 0 -4806.46298680 0 47191.24488630 0 14206.56780506 0 -40673.63160506 0 112
0.01050000 0.01054430 76302.49057624 0 2109.16715470 0 64410.70299777 0 9959.75547622 0 -28318.68867942 0 105
0.01150000 0.01145670 74641.97402319 0 -549.16073743 0 46635.30345716 0 20888.49438662 0 -32755.47995750 0 144
0.01250000 0.01249090 73769.69627398 0 -8759.08364521 0 31921.51245216 0 40246.23986706 0 -250.94538415 0 169
0.01350000 0.01339930 79712.76662038 0 -13108.19318305 0 20139.89450563 0 20191.49153928 0 -8223.14990701 0 180
0.01450000 0.01448870 89242.05225230 0 -2721.93175482 0 9144.31197030 0 18397.44274892 0 -8018.78800784 0 267
0.01550000 0.01550050 89213.15348453 0 8194.58330898 0 7868.86872979 0 5597.69131834 0 18.79815018 0 238
0.01650000 0.01653350 80223.75441076 0 8786.25513031 0 -10173.97174449 0 -13311.14889698 0 15403.37539471 0 315
0.01750000 0.01747870 73114.98970745 0 4368.41967232 0 6343.37917790 0 -5738.55343468 0 20174.77232881 0 297
0.01850000 0.01844180 67902.47135257 0 1928.87648968 0 8128.75833793 0 496.73992280 0 13312.25612946 0 388
0.01950000 0.01947590 75574.04232642 0 5540.09308463 0 10405.71550294 0 1105.49301964 0 11131.45103318 0 399
0.02050000 0.02045430 70285.23565355 0 1334.35908087 0 7278.69167231 0 -2958.85736129 0 6894.54843505 0 462
0.02150000 0.02154770 66279.60070391 0 4775.06187361 0 12895.05093029 0 1106.15293019 0 4851.04016652 0 571
0.02250000 0.02255340 66079.30234794 0 3721.24228667 0 13635.01439792 0 -6042.33373841 0 724.26401827 0 510
0.02350000 0.02348930 60780.08768973 0 1139.63010428 0 20150.52393745 0 -2642.53211354 0 -509.72997428 0 555
0.02450000 0.02439640 66271.73935328 0 2331.54372636 0 21327.51206568 0 -6106.74145188 0 -4224.88912570 0 592
0.02550000 0.02547300 62049.19756045 0 -2941.47381132 0 20453.79491424 0 2629.84322930 0 -12824.07732820 0 837
0.02650000 0.02652900 66323.66855668 0 -4305.58422898 0 16960.25498746 0 5093.35799518 0 -13015.84999406 0 723
0.02750000 0.02749970 66404.05363487 0 1069.43599386 0 14548.25974896 0 3277.24206145 0 -26313.26920826 0 826
0.02850000 0.02848090 64007.67037437 0 3662.97971348 0 15413.11904055 0 -3205.89200032 0 -16809.67136992 0 831
0.02950000 0.02946900 59755.45475102 0 4807.12732629 0 16763.83194518 0 -3322.97076295 0 -11465.72451945 0 996
0.03050000 0.03053250 56632.39481267 0 6450.89145189 0 19403.69562844 0 -2524.39040773 0 -8759.78120167 0 1041
0.03150000 0.03150510 55385.31886834 0 3249.77162357 0 24007.23611829 0 -1779.00150094 0 -8943.57072134 0 1036
0.03250000 0.03246190 52043.24834508 0 382.20447318 0 26666.58709323 0 848.73023602 0 -7686.81756512 0 1059
0.03350000 0.03345080 53031.67478164 0 730.24860983 0 28278.82831007 0 1744.69943865 0 -1586.06624097 0 1302
0.03450000 0.03451200 53018.60943836 0 -648.15728640 0 29322.39492423 0 8901.29658518 0 -1747.95470215 0 1339
0.03550000 0.03553350 54121.63443679 0 -108.98788272 0 21663.55712392 0 9806.38163283 0 4839.81282915 0 1365
0.03650000 0.03647120 51379.24102571 0 387.86464563 0 21738.62748619 0 9264.39133296 0 -1693.72245518 0 1308
0.03750000 0.03744890 51480.10990481 0 2195.48699899 0 13616.85578522 0 5454.60366471 0 2459.15226990 0 1579
0.03850000 0.03847530 47659.27205639 0 3219.37809194 0 12384.94892590 0 2041.96921538 0 1201.11472400 0 1662
0.03950000 0.03950240 44522.37171202 0 3171.66744430 0 12106.47995671 0 -1567.05505926 0 3959.83981419 0 1683
0.04050000 0.04050350 42935.04322602 0 1733.48317361 0 14186.63762039 0 -676.11158487 0 -235.94902742 0 1822
0.04150000 0.04152450 42569.98867675 0 148.84194084 0 14434.54697308 0 -1328.95578636 0 -1914.38281649 0 1887
0.04250000 0.04250150 40439.34121189 0 115.18650232 0 15815.48732446 0 -1580.49686159 0 -1851.66916872 0 1920
0.04350000 0.04349210 44769.28455547 0 -148.10784570 0 20486.90116544 0 -3381.13368522 0 -4079.14411411 0 2005
0.04450000 0.04448520 42188.32564025 0 1259.88662414 0 20355.58339310 0 -1141.76706297 0 -3574.56719980 0 2151
0.04550000 0.04548030 42820.55538739 0 1616.70336375 0 22139.55636788 0 607.39009365 0 768.39609053 0 2274
0.04650000 0.04648670 41168.34307795 0 -990.52574935 0 21984.65454366 0 2574.27123104 0 2425.81349987 0 2311
0.04750000 0.04749250 43072.22933052 0 -1732.98491899 0 21362.16844236 0 2398.43164059 0 -1644.84921343 0 2568
0.04850000 0.04851840 44565.11088582 0 278.17444535 0 21459.71562401 0 4159.70634949 0 -919.72155383 0 2493
0.04950000 0.04949480 42092.21786082 0 2809.13738509 0 19028.45454033 0 -969.32778348 0 4145.22374863 0 2644
0.05050000 0.05050630 41527.08640208 0 3077.06550105 0 19455.62483184 0 -2392.47472984 0 1975.76778529 0 2829
0.05150000 0.05149060 38169.29317757 0 1741.04557146 0 19844.59560272 0 1139.85155078 0 3391.48630893 0 2784
0.05250000 0.05249300 37102.80685104 0 898.76053571 0 19141.72442323 0 2869.50370000 0 2714.73474369 0 3055
0.05350000 0.05348950 37294.46879365 0 326.25047971 0 19554.94358546 0 1695.63796738 0 -1884.25502066 0 3009
0.05450000 0.05448610 36553.95170978 0 -220.52195725 0 17984.22358669 0 1243.49958341 0 -1344.09165439 0 3336
0.05550000 0.05550870 35856.28452296 0 2146.69126351 0 17950.34227274 0 -419.10631734 0 -1973.89656239 0 3349
0.05650000 0.05647670 34883.35934115 0 1097.71692592 0 16212.98378545 0 878.37527849 0 -1585.21367196 0 3324
0.05750000 0.05747970 34250.68670101 0 -477.11976323 0 16231.25312140 0 1114.35198672 0 -833.89996416 0 3639
0.05850000 0.05849280 34950.23618305 0 70.27372044 0 15303.94591784 0 2331.86482378 0 -731.42449073 0 3846
0.05950000 0.05951020 35171.46123293 0 -658.42465320 0 16154.30046391 0 2137.10263022 0 -443.61047939 0 3787
0.06050000 0.06049470 35032.39283320 0 297.04279407 0 15373.14794795 0 444.23385128 0 -318.53749824 0 3930
0.06150000 0.06148310 34794.44857285 0 1575.75790657 0 16758.51722926 0 189.13191639 0 1254.64941450 0 4083
0.06250000 0.06249100 33083.55294187 0 1271.91116889 0 16776.34367222 0 1100.41857317 0 3317.97714445 0 4303
0.06350000 0.06350600 33203.79838940 0 370.55417301 0 15765.55113953 0 1949.00597620 0 4969.08222141 0 4470
0.06450000 0.06451750 33252.29517211 0 -656.95757016 0 15603.89519717 0 4375.86027460 0 6205.08584092 0 4479
0.06550000 0.06550280 32483.43293670 0 646.61712601 0 14692.08924836 0 1804.05817200 0 1487.41182684 0 4636
0.06650000 0.06648880 32394.18999867 0 1126.48725472 0 13186.69596602 0 2435.30248224 0 3122.31809258 0 4653
0.06750000 0.06749660 30306.17098437 0 1778.43681237 0 12044.69638422 0 -970.74282659 0 2624.35135619 0 5220
0.06850000 0.06852730 28887.47400535 0 1022.88461863 0 9726.20692882 0 1008.47288064 0 2249.90747547 0 5029
0.06950000 0.06949320 28675.32826183 0 -297.48457983 0 10792.09534981 0 593.19315876 0 2830.20801922 0 5040
0.07050000 0.07048030 28743.97667570 0 241.16962857 0 8555.66289364 0 1157.05794355 0 56.52089650 0 5475
0.07150000 0.07148790 27924.84608562 0 399.75853695 0 7967.15775721 0 1478.41002676 0 -1663.48393610 0 5509
0.07250000 0.07249820 27575.40351434 0 391.76321120 0 8062.90014991 0 336.37279906 0 -549.62909677 0 5916
0.07350000 0.07351270 27521.03839948 0 782.94069641 0 7323.09169483 0 -132.04854579 0 -973.50204994 0 5721
0.07450000 0.07449140 26738.00358831 0 -147.18994998 0 7355.00213496 0 19.84249186 0 -2743.25705242 0 6028
0.07550000 0.07549160 27249.32354843 0 21.89696173 0 7037.37035288 0 -1317.35198995 0 -2610.75454131 0 6183
0.07650000 0.07648840 26521.20746836 0 665.34928514 0 8536.57420565 0 -660.45421034 0 -1687.96484628 0 6330
0.07750000 0.07749960 27219.64971792 0 679.98800578 0 9164.61861402 0 -590.22023955 0 -3141.63929939 0 6583
0.07850000 0.07848650 25625.12422079 0 194.14435784 0 8553.85810470 0 356.61522329 0 -943.61895248 0 6549
0.07950000 0.07947320 26105.55239467 0 -19.19487158 0 7685.52210312 0 102.88049907 0 -2514.84606373 0 6828
0.08050000 0.08048110 26072.11397371 0 -167.63942668 0 9061.08130464 0 1568.28408731 0 -1757.43261219 0 7147
0.08150000 0.08149960 26619.08681976 0 -182.86498054 0 9217.99829197 0 79.17121921 0 -2396.48291142 0 7386
0.08250000 0.08250610 25622.79903257 0 702.35078022 0 8761.65242457 0 425.44633053 0 -1734.51289982 0 7227
0.08350000 0.08350160 25352.30213725 0 1642.82297799 0 9095.46087320 0 -740.28345782 0 -1531.13643755 0 7798
0.08450000 0.08449610 24057.50447296 0 970.20028268 0 8905.22726049 0 -63.99538009 0 -1062.21351638 0 7371
0.08550000 0.08548940 23142.59827320 0 895.91273377 0 8380.34370246 0 769.36159726 0 -1526.78501389 0 8256
0.08650000 0.08650700 22694.61201103 0 652.46774245 0 7848.67280932 0 1262.57719907 0 -1349.84926329 0 8037
0.08750000 0.08749060 22186.72447160 0 417.93929430 0 7878.91132840 0 1423.05947499 0 -658.09691239 0 8155
0.08850000 0.08849210 21764.31527977 0 517.48945951 0 7125.76072191 0 263.45157504 0 -1756.58004318 0 8718
0.08950000 0.08949900 20975.96575268 0 796.40242893 0 7319.16101952 0 638.32284749 0 -1012.13117676 0 8571
0.09050000 0.09049190 20389.57543029 0 367.76726885 0 7450.65594907 0 255.23923172 0 -539.33404915 0 8932
0.09150000 0.09150830 19955.87246714 0 446.76277027 0 7347.01898876 0 219.93512404 0 -213.34709077 0 9285
0.09250000 0.09250820 19737.85839146 0 429.81768437 0 7033.37324363 0 722.54670069 0 -467.41265606 0 9204
0.09350000 0.09350330 19263.18782649 0 132.50472557 0 6129.47293473 0 1207.28200893 0 -912.61422853 0 9349
0.09450000 0.09448040 18923.82107080 0 171.07627631 0 5891.08578138 0 166.92415450 0 -1395.12399947 0 9564
0.09550000 0.09549270 18718.42944541 0 893.34838334 0 5488.21924286 0 13.31579927 0 -1881.74160293 0 10155
0.09650000 0.09649430 17717.38055856 0 606.52202338 0 5832.59068937 0 -296.24669392 0 -1201.22544725 0 9913
0.09750000 0.09749140 17546.64530985 0 404.19521750 0 5992.71865090 0 -190.64328873 0 -794.07613348 0 10476
0.09850000 0.09850240 17460.28117627 0 360.40749454 0 6374.96852061 0 -464.08874415 0 -233.77220836 0 10575
0.09950000 0.09950330 17453.85922787 0 57.05425039 0 6854.77664430 0 229.31116869 0 -200.05697929 0 10882
0.10050000 0.10051200 17449.98391419 0 43.94461780 0 7510.72331121 0 -316.76371181 0 190.38530356 0 10875
0.10150000 0.10150300 17036.21113571 0 159.25435510 0 7307.88939285 0 23.14735937 0 -140.96398173 0 11118
0.10250000 0.10250800 16969.66646355 0 382.42038352 0 7201.34041112 0 1132.20057433 0 25.30989513 0 11575
0.10350000 0.10349800 16434.98389806 0 143.59144441 0 6469.06113692 0 930.08746432 0 -248.69216605 0 11364
0.10450000 0.10450100 16069.92934879 0 214.59494178 0 5349.57159148 0 1800.80290850 0 -544.77388233 0 12093
0.10550000 0.10551000 16070.48296503 0 320.47072616 0 4857.92715256 0 478.75514560 0 -934.75444923 0 12067
0.10650000 0.10649700 15891.33274947 0 115.98370971 0 4573.40162169 0 -70.66291265 0 -711.16102908 0 12054
0.10750000 0.10749900 15963.96720028 0 -97.29163240 0 4947.95622566 0 -1025.58515865 0 -1013.21072843 0 12807
0.10850000 0.10850100 15999.50936294 0 -106.26840902 0 5148.26565395 0 -219.81222123 0 -324.45454863 0 12736
0.10950000 0.10950300 16002.72033714 0 381.96088204 0 5494.50832336 0 117.35335629 0 -720.53485927 0 12933
0.11050000 0.11050200 15729.78753036 0 291.30400812 0 4961.32052171 0 714.30999826 0 -190.12731839 0 13428
0.11150000 0.11150900 15567.02435553 0 -7.55547765 0 4689.20706697 0 1353.29275631 0 709.15915275 0 13453
0.11250000 0.11250000 15570.23532973 0 1.29562809 0 3736.96498792 0 1615.48540801 0 343.51887750 0 13668
0.11350000 0.11349100 15396.62127657 0 -174.97373464 0 3745.59032895 0 695.40732533 0 208.81961715 0 13791
0.11450000 0.11448600 15296.52746021 0 422.93512726 0 3344.40678380 0 -138.24683322 0 1002.22587498 0 14205
0.11550000 0.11549300 14798.60501311 0 727.95220967 0 3824.20383516 0 -344.33712230 0 608.70991476 0 14776
0.11650000 0.11649800 14501.09164524 0 484.12190144 0 3647.72204988 0 -563.83710397 0 1288.24284800 0 14553
0.11750000 0.11747300 14082.66849034 0 197.08184561 0 4524.48409064 0 -461.17229379 0 1050.80459289 0 14568
0.11850000 0.11849100 14282.85612306 0 140.45908372 0 4682.36437023 0 -540.44681779 0 30.83542811 0 16015
0.11950000 0.11950300 13978.47791380 0 433.42061886 0 5527.86923803 0 -605.83332478 0 70.62781338 0 15270
0.12050000 0.12050700 13732.00796333 0 433.78489835 0 5511.40469103 0 -450.40556514 0 535.70786277 0 15999
0.12150000 0.12150000 13834.86986090 0 -108.55960519 0 5379.16791572 0 149.92702867 0 909.38996754 0 15670
0.12250000 0.12250700 13732.89374932 0 -298.48994693 0 5451.25982261 0 675.30441239 0 -53.96186079 0 16887
0.12350000 0.12352200 13998.74026821 0 256.27560132 0 5612.40643802 0 380.97655236 0 -230.15266538 0 16407
0.12450000 0.12449800 13729.68277512 0 352.45756532 0 5104.83999601 0 317.47566229 0 -182.81183338 0 16306
0.12550000 0.12549900 13347.57684563 0 208.24828519 0 5198.84403372 0 123.30805258 0 554.85966301 0 17523
0.12650000 0.12650100 13569.13406525 0 -304.50775546 0 5066.21972705 0 650.90543742 0 437.43101491 0 17154
0.12750000 0.12750600 13807.52121860 0 -485.01322359 0 4866.89573566 0 669.65531226 0 -494.90966751 0 18007
0.12850000 0.12850300 13979.14225329 0 112.96650119 0 4736.77377439 0 221.16083039 0 9.90157041 0 17496
0.12950000 0.12949900 13795.23093805 0 544.00878469 0 4450.99707082 0 -151.25681488 0 110.93805129 0 18405
0.13050000 0.13049000 13279.26060150 0 712.12542857 0 4717.23112109 0 37.74577675 0 879.68956345 0 18100
0.13150000 0.13148800 12574.61785004 0 541.62712762 0 4118.96019416 0 467.47687554 0 771.83294016 0 19059
0.13250000 0.13249300 12419.82674908 0 216.05538142 0 4097.18093124 0 648.63450360 0 630.69180123 0 18957
0.13350000 0.13349100 12098.50788284 0 57.83861388 0 3659.97911345 0 441.51781000 0 361.98530083 0 19468
0.13450000 0.13450700 12260.38527169 0 -1.51653204 0 3917.39959316 0 -124.70537997 0 61.38829049 0 19953
0.13550000 0.13551000 11965.63998501 0 295.60782078 0 3438.06757944 0 -125.47158484 0 262.85699119 0 19956
0.13650000 0.13649900 11681.52413017 0 189.60802636 0 3760.26115934 0 -123.88492070 0 358.82636656 0 19723
0.13750000 0.13749600 11709.42638871 0 64.18936722 0 3392.92571115 0 292.15989883 0 296.27991089 0 20946
0.13850000 0.13851100 11777.41046310 0 -67.10681409 0 3706.17285260 0 165.22455264 0 9.64046285 0 20955
0.13950000 0.13949800 11679.08821871 0 55.40491688 0 3683.49673137 0 -2.42366547 0 -275.88247411 0 20506
0.14050000 0.14048300 11626.93756881 0 217.37963147 0 3859.77921481 0 -267.50958208 0 254.86387991 0 21447
0.14150000 0.14148400 11499.16294041 0 309.19909949 0 3685.81084726 0 65.72066975 0 483.55167671 0 21771
0.14250000 0.14249400 11341.71448148 0 139.72498858 0 3975.06426082 0 228.36005599 0 336.53666947 0 22470
0.14350000 0.14350900 11208.73586041 0 181.11776769 0 4047.62120535 0 261.08763369 0 508.53194874 0 22519
0.14450000 0.14449900 11079.63255303 0 161.02924877 0 3977.61089553 0 334.66101764 0 611.17129257 0 22218
0.14550000 0.14550500 10855.70585589 0 108.73344069 0 3803.13320103 0 355.61317790 0 703.85661640 0 23559
0.14650000 0.14650700 10815.34723193 0 20.48546176 0 3497.49274674 0 265.67268340 0 938.77038145 0 23044
0.14750000 0.14750500 10763.69483665 0 215.58702208 0 3687.41633435 0 13.86520803 0 286.63370151 0 23649
0.14850000 0.14849900 10648.24370577 0 284.13357057 0 3190.92221716 0 -43.99422182 0 -4.52434015 0 23640
0.14950000 0.14949500 10270.98745455 0 332.86065763 0 3271.27407837 0 -292.25290636 0 109.51691840 0 24457
0.15050000 0.15050000 10131.70868065 0 186.67164582 0 3420.41829368 0 -335.73281869 0 -49.44390937 0 24591
0.15150000 0.15149900 10080.26665955 0 -130.22050496 0 3209.46836123 0 224.01970466 0 -178.71175150 0 25020
0.15250000 0.15250500 10183.01783386 0 -74.64418849 0 3498.84357037 0 193.81883149 0 -594.17527398 0 25297
0.15350000 0.15350100 10188.26611583 0 141.52424137 0 3369.75133531 0 86.64758510 0 -649.21137172 0 25452
0.15450000 0.15450400 10035.18015288 0 263.90554035 0 3433.57221556 0 108.47977373 0 -213.92728059 0 26061
0.15550000 0.15549900 9848.82185386 0 117.80067821 0 3244.39047371 0 20.03205006 0 15.02215525 0 26128
0.15650000 0.15649500 9927.05890103 0 17.39429012 0 3442.52972634 0 192.95186845 0 -192.22552394 0 26331
0.15750000 0.15749700 9811.18702180 0 171.00430620 0 3444.47845551 0 56.56230700 0 -138.85913278 0 27345
0.15850000 0.15849900 9615.57225923 0 222.12522988 0 3171.71173360 0 52.88219840 0 -160.61625105 0 26980
0.15950000 0.15949700 9407.58970984 0 106.02714306 0 3045.65331554 0 108.88247419 0 -61.67207418 0 27777
0.16050000 0.16050000 9472.31852073 0 24.79547492 0 2988.49797483 0 325.49534716 0 -417.10222655 0 28224
0.16150000 0.16150500 9287.54356415 0 16.61092314 0 2978.89826921 0 120.87878451 0 -350.87643734 0 28075
0.16250000 0.16249700 9304.88282482 0 195.38556545 0 2950.24309258 0 20.79570830 0 -244.51236344 0 28590
0.16350000 0.16349900 9245.94483981 0 154.59844251 0 3011.39554255 0 -24.13822172 0 160.32726337 0 29163
0.16450000 0.16449100 8907.80711217 0 265.66825447 0 3224.43814439 0 145.96092192 0 354.12395021 0 28996
0.16550000 0.16550500 8899.96790620 0 329.45038158 0 3264.43138163 0 34.23164230 0 582.15737262 0 30777
0.16650000 0.16650700 8693.67942251 0 160.50663504 0 3358.52399794 0 139.92539766 0 1033.36014514 0 29211
0.16750000 0.16749900 8564.17751143 0 -12.51283428 0 3103.56157434 0 202.45635208 0 882.14761956 0 30922
0.16850000 0.16850800 8562.41701178 0 -18.72916960 0 2999.14955130 0 477.14412234 0 927.78663523 0 30867
0.16950000 0.16949900 8573.81043402 0 13.85092473 0 2769.07771390 0 83.58044040 0 538.47262228 0 30852
0.17050000 0.17049200 8512.51404382 0 174.97152018 0 2771.09287701 0 41.99555647 0 471.02998457 0 31257
0.17150000 0.17149500 8302.10665529 0 322.77598418 0 2714.01504257 0 -148.81758173 0 329.61757369 0 32608
0.17250000 0.17250900 8060.99571004 0 242.96998859 0 2674.98509759 0 -175.76097694 0 204.71621357 0 32361
0.17350000 0.17350400 7917.49838039 0 134.69150972 0 2678.43966293 0 278.94065023 0 387.50147338 0 32508
0.17450000 0.17449800 8005.83338780 0 -59.46956732 0 2834.26049010 0 158.78156683 0 147.10469308 0 32791
0.17550000 0.17549800 7939.08941379 0 -34.08604123 0 2403.25917421 0 309.40061580 0 203.18158935 0 33633
0.17650000 0.17650100 8015.59917829 0 33.62576469 0 2429.83275378 0 65.48881527 0 221.09661091 0 33984
0.17750000 0.17750300 8050.32198892 0 -44.20581395 0 2326.59439717 0 352.57161027 0 364.40017487 0 34069
0.17850000 0.17849800 7960.30398814 0 48.31342501 0 2027.33160197 0 400.63767954 0 149.72440513 0 34536
