### header ###
fiducial parameters:
Omega_m = 0.31
Omega_nu = 0
Omega_de = 0.69
Omega_k = 0
H_0 = 100
w_de = -1
zeff = 0
beta = 0
fgrowth = 0
b_1 = 2
gamma = 0.55
Lx = 3500 Ly = 3500 Lz = 3500
nx = 700 ny = 700 nz = 700
xoffset = -685.467585 yoffset = -31.7331281 zoffset = 572.489161
bins = 400 dk = 0.001
kx_ny = 0.628318531 ky_ny = 0.628318531 kz_ny = 0.628318531
############################
A(data) = 8.02741816 (not used)
A(ran) = 8.01848536 (used)
Ngal = 476823
weighted Ngal = 0
Nran = 23820508
weighted Nran = 0
SN(data) = 3495.41357
SN(ran) = 69.8439155
SN(data+ran) = 3565.25749
############################
13 columns: k_central k_mean P_0(k) sigma^{lin}_{P_0(k)} P^img_1(k) sigma^{lin}_{P_1(k)} P_2(k) sigma^{lin}_{P_2(k)} P^img_3(k) sigma^{lin}_{P_3(k)} P_4(k) sigma^{lin}_{P_4(k)} N_modes
### header ###
0.00050000 0 0 0 0 0 0 0 0 0 0 0 0
0.00150000 0.00179520 6106.05496774 0 -8279.55232964 0 -178.00090825 0 -3112.65195302 0 -63153.55123786 0 3
0.00250000 0.00253879 13520.08366630 0 -13706.76306275 0 -2397.28011881 0 -22758.38860199 0 -6300.03102624 0 6
0.00350000 0.00331552 18617.11767332 0 -13717.50321782 0 -19838.06293107 0 18517.68819645 0 -1415.67423434 0 7
0.00450000 0.00420575 25963.27302075 0 -10779.18501907 0 -16046.56674342 0 -1382.12509014 0 6179.34268571 0 24
0.00550000 0.00557378 34415.44289431 0 -8678.78714563 0 -17867.85345284 0 -14368.77736365 0 -14729.18153650 0 45
0.00650000 0.00659388 42449.63250597 0 -4923.88499150 0 -1676.53820706 0 -17418.75995820 0 16314.07411104 0 40
0.00750000 0.00754703 40945.45717935 0 -8999.86242072 0 -23791.76867731 0 -16106.24657420 0 -11109.85999978 0 57
0.00850000 0.00846663 43021.40735960 0 3941.26045315 0 1426.40331709 0 -13508.90061824 0 -1413.57049262 0 75
0.00950000 0.00948925 58319.26349879 0 -23080.03963797 0 -23776.15669932 0 -2437.55016418 0 -4539.96320074 0 112
0.01050000 0.01054430 58572.26612089 0 -904.02764063 0 5849.90780538 0 -22146.86410226 0 -11095.79814726 0 105
0.01150000 0.01145670 72859.21900414 0 -2364.83820709 0 1720.29603475 0 -12456.14397448 0 1252.40173256 0 144
0.01250000 0.01249090 71198.92389758 0 -5405.36503624 0 7664.47361364 0 -2693.22121656 0 15315.12896590 0 169
0.01350000 0.01339930 69611.70613483 0 15605.66676914 0 -2645.77630471 0 -4399.06786742 0 18358.57888880 0 180
0.01450000 0.01448870 74348.77886199 0 -9034.66273762 0 15822.90578209 0 12786.87431681 0 18675.46882511 0 267
0.01550000 0.01550050 75808.00054984 0 1144.69015673 0 20828.81455584 0 -3133.87759970 0 16244.42918793 0 238
0.01650000 0.01653350 85158.80030568 0 -1635.92491963 0 24604.92021200 0 8015.57703364 0 12209.78474727 0 315
0.01750000 0.01747870 77451.13355293 0 1120.02101703 0 35226.82285702 0 -6347.42057646 0 3797.79634047 0 297
0.01850000 0.01844180 85256.67965708 0 7460.91999417 0 30647.86292827 0 -8497.49997137 0 17654.15758384 0 388
0.01950000 0.01947590 76328.51053956 0 7845.80507719 0 43091.05228271 0 -10078.72760640 0 19258.42672682 0 399
0.02050000 0.02045430 74788.46088054 0 7166.63974514 0 38246.13511182 0 3788.26306880 0 18634.27977679 0 462
0.02150000 0.02154770 71454.58387764 0 -688.93776594 0 36617.50685424 0 14412.07015369 0 2716.67240053 0 571
0.02250000 0.02255340 67905.01798728 0 3924.50802570 0 29826.62859647 0 13661.47725424 0 -20295.68211583 0 510
0.02350000 0.02348930 62794.25429749 0 5600.34867630 0 29503.42743501 0 3524.17704955 0 -18101.14733677 0 555
0.02450000 0.02439640 59514.74240946 0 4485.36556706 0 20984.04854980 0 -3565.89756947 0 -12884.53222171 0 592
0.02550000 0.02547300 56659.74345497 0 1528.14690985 0 18512.37348054 0 742.20229171 0 -16237.45362330 0 837
0.02650000 0.02652900 55649.39381527 0 -314.21154094 0 16489.01684318 0 -2610.25628670 0 -14386.71452986 0 723
0.02750000 0.02749970 56641.36339577 0 1379.03591151 0 21217.89604997 0 7924.72860850 0 -17502.02384083 0 826
0.02850000 0.02848090 55885.78795015 0 3937.30763319 0 17766.43095750 0 3537.51920096 0 -10209.61355808 0 831
0.02950000 0.02946900 48159.51969169 0 4783.62078070 0 17607.98598935 0 1992.59771901 0 -6981.90907787 0 996
0.03050000 0.03053250 48140.58601626 0 2333.38173228 0 24094.37531461 0 -523.05219550 0 -3225.67824477 0 1041
0.03150000 0.03150510 49638.67156422 0 -1837.72911177 0 24390.78145000 0 -482.88844446 0 5143.03951664 0 1036
0.03250000 0.03246190 50244.32773180 0 -3767.07063910 0 24113.64115979 0 4281.03688486 0 2511.04825632 0 1059
0.03350000 0.03345080 56709.34747016 0 -4381.42965399 0 24697.04195449 0 3012.81280013 0 6556.75394948 0 1302
0.03450000 0.03451200 58075.34018303 0 -2013.85658267 0 25624.34915805 0 3525.17355879 0 -2936.33625261 0 1339
0.03550000 0.03553350 58918.38699473 0 947.17095429 0 19142.94237896 0 3940.35252251 0 -3047.52453843 0 1365
0.03650000 0.03647120 56147.75915536 0 4882.33055646 0 16965.90187312 0 -2399.38386053 0 -10732.14978324 0 1308
0.03750000 0.03744890 51898.09016671 0 3778.88480968 0 15954.66644743 0 -1444.27404934 0 -9151.75257258 0 1579
0.03850000 0.03847530 51559.71992025 0 1264.85809798 0 16549.13956694 0 -1033.64913282 0 -8799.55299242 0 1662
0.03950000 0.03950240 49217.48032812 0 -438.98889101 0 14619.78696729 0 -835.29729155 0 -12816.76959382 0 1683
0.04050000 0.04050350 51146.05786503 0 -201.88169842 0 17392.73999487 0 957.31209659 0 -13341.04417399 0 1822
0.04150000 0.04152450 49403.16321533 0 2322.06581632 0 16865.14371727 0 -2153.94363627 0 -11411.13795810 0 1887
0.04250000 0.04250150 49140.52767063 0 3394.67513847 0 21556.59846617 0 -1596.66245582 0 -3863.31128642 0 1920
0.04350000 0.04349210 47846.50506907 0 750.18100897 0 22916.39067715 0 -1853.75076579 0 -526.31299516 0 2005
0.04450000 0.04448520 45907.96243982 0 1466.91695360 0 26675.66639958 0 4114.80807235 0 1494.98529701 0 2151
0.04550000 0.04548030 47954.79240580 0 1047.14740400 0 27733.95920575 0 1278.66528703 0 -786.39636899 0 2274
0.04650000 0.04648670 43998.20785510 0 -126.51902677 0 24264.99984006 0 3780.47922445 0 1381.22823183 0 2311
0.04750000 0.04749250 45233.21496537 0 1817.84321640 0 22220.27361580 0 4743.47253091 0 -1222.45109393 0 2568
0.04850000 0.04851840 41548.78815872 0 233.64930556 0 20319.15544444 0 2596.89199064 0 486.56777799 0 2493
0.04950000 0.04949480 42767.07605852 0 2419.29190055 0 16756.85638054 0 1355.28577478 0 -7855.28298724 0 2644
0.05050000 0.05050630 38743.50394267 0 2278.70659233 0 17336.04969180 0 -2000.81338403 0 -6947.65130488 0 2829
0.05150000 0.05149060 38624.69789737 0 1507.34201151 0 18439.40685998 0 -1739.82761573 0 -7075.24877609 0 2784
0.05250000 0.05249300 36053.59335123 0 563.47282449 0 17060.45952707 0 -1494.69741657 0 -7823.11788364 0 3055
0.05350000 0.05348950 36975.36439238 0 362.83454814 0 18313.18235705 0 860.85221723 0 -8500.19054630 0 3009
0.05450000 0.05448610 37030.28312348 0 -482.69357154 0 18274.31849693 0 1717.16256682 0 -8453.80857764 0 3336
0.05550000 0.05550870 35969.00078961 0 1321.88057080 0 17300.17535939 0 2908.81045311 0 -7529.53519107 0 3349
0.05650000 0.05647670 35468.64243106 0 1554.69834476 0 16680.56806254 0 1885.58369964 0 -5156.27094480 0 3324
0.05750000 0.05747970 34527.27337498 0 590.11948139 0 16339.42973488 0 2430.77390139 0 -3594.74097562 0 3639
0.05850000 0.05849280 32999.73544300 0 392.03780485 0 17078.95030951 0 1276.60583462 0 -1964.99441324 0 3846
0.05950000 0.05951020 33417.60498165 0 474.91415612 0 16509.38992084 0 1924.99010367 0 -1509.97722482 0 3787
0.06050000 0.06049470 32652.39661344 0 920.35378358 0 16889.28138537 0 -314.31562079 0 -440.48919103 0 3930
0.06150000 0.06148310 32090.69757539 0 866.12375108 0 16000.39514893 0 3541.58274417 0 3463.58928814 0 4083
0.06250000 0.06249100 31684.12180805 0 -251.63297553 0 13870.41202357 0 3414.74926337 0 4765.05249198 0 4303
0.06350000 0.06350600 31610.60157125 0 459.59670197 0 13560.16548215 0 4349.48599688 0 2317.47080152 0 4470
0.06450000 0.06451750 31501.42844854 0 779.27907860 0 9953.12315365 0 1163.97814656 0 2729.59380359 0 4479
0.06550000 0.06550280 29617.36165740 0 652.93831625 0 9245.50194682 0 1270.20603087 0 4278.45703317 0 4636
0.06650000 0.06648880 29372.10966266 0 101.08335003 0 8480.75861624 0 449.59617819 0 2873.56724321 0 4653
0.06750000 0.06749660 29893.83760812 0 -132.82803745 0 9484.57558430 0 -642.98872517 0 402.78792502 0 5220
0.06850000 0.06852730 28864.55429298 0 872.53241268 0 7836.90292804 0 -762.86214259 0 -1738.95290207 0 5029
0.06950000 0.06949320 29317.85527105 0 427.83352376 0 8092.81757157 0 -1172.78064479 0 -844.91028396 0 5040
0.07050000 0.07048030 28732.46145789 0 -448.40479604 0 8733.75016602 0 338.63708949 0 -46.19883241 0 5475
0.07150000 0.07148790 29664.86193087 0 500.15019885 0 10011.25285895 0 1298.00863849 0 -113.16580304 0 5509
0.07250000 0.07249820 28985.35335675 0 28.17209110 0 9173.81971594 0 2950.87421509 0 1405.18874273 0 5916
0.07350000 0.07351270 29216.21132922 0 -217.27555161 0 7760.32672959 0 3108.47768656 0 4394.57250355 0 5721
0.07450000 0.07449140 28576.45240120 0 52.28628587 0 7139.35753679 0 3022.47893969 0 2452.58638128 0 6028
0.07550000 0.07549160 28933.97776959 0 843.84069738 0 5832.32495357 0 816.44776578 0 3316.16128318 0 6183
0.07650000 0.07648840 27496.45783839 0 1547.06951296 0 5741.32151589 0 -1810.69049457 0 2681.73921573 0 6330
0.07750000 0.07749960 26562.06434694 0 1031.75465804 0 7084.64917986 0 -3279.72226221 0 2085.72704306 0 6583
0.07850000 0.07848650 25965.04459272 0 621.50177163 0 8019.27519013 0 -2969.64180566 0 -1017.95521962 0 6549
0.07950000 0.07947320 25600.54365969 0 645.38366903 0 8368.88384628 0 -1314.74999362 0 -580.57403017 0 6828
0.08050000 0.08048110 25400.68819671 0 -444.27481888 0 7589.04893697 0 1067.85043695 0 -1110.19986492 0 7147
0.08150000 0.08149960 25964.15880673 0 -741.32093465 0 8113.88820570 0 1935.11020855 0 -1814.45508501 0 7386
0.08250000 0.08250610 26211.95743617 0 -1.68732265 0 7604.33981755 0 1790.05168111 0 -1785.92170395 0 7227
0.08350000 0.08350160 25300.15148736 0 1116.95398306 0 6649.85005656 0 1194.51561841 0 -2350.62134202 0 7798
0.08450000 0.08449610 24012.21866445 0 1379.26843033 0 5815.39536892 0 -222.08204782 0 -805.68546606 0 7371
0.08550000 0.08548940 22904.21111985 0 1344.32417321 0 6903.52809048 0 -448.48562401 0 -89.36783386 0 8256
0.08650000 0.08650700 22239.31801449 0 772.72647677 0 6710.92500026 0 -205.77029889 0 -1383.94095141 0 8037
0.08750000 0.08749060 21282.77987341 0 351.76111609 0 6414.26420139 0 361.49479684 0 -1088.49921550 0 8155
0.08850000 0.08849210 21631.89027494 0 472.49153145 0 6232.62271274 0 -432.74520705 0 -1353.55849211 0 8718
0.08950000 0.08949900 21107.17280179 0 388.86447656 0 6620.34231092 0 -379.02228703 0 -612.24641531 0 8571
0.09050000 0.09049190 20761.27337445 0 602.84822601 0 7065.17296050 0 976.41628583 0 254.57932116 0 8932
0.09150000 0.09150830 20467.08170402 0 753.17718007 0 6886.48778258 0 619.95828955 0 1233.32411690 0 9285
0.09250000 0.09250820 19647.72966744 0 319.68348386 0 6845.63090400 0 732.80188794 0 460.73604419 0 9204
0.09350000 0.09350330 19426.61534081 0 181.00593721 0 6789.87067621 0 1784.60409729 0 833.18690644 0 9349
0.09450000 0.09448040 19601.11517995 0 -12.73151269 0 6041.08256570 0 830.00029136 0 731.47874512 0 9564
0.09550000 0.09549270 18928.91434021 0 150.96339827 0 5415.10868208 0 849.24399189 0 685.25400347 0 10155
0.09650000 0.09649430 18765.48682589 0 516.40658615 0 5019.79346908 0 -276.71622017 0 36.23152561 0 9913
0.09750000 0.09749140 18186.73640762 0 618.96399478 0 4724.08489015 0 94.78984060 0 -291.43909048 0 10476
0.09850000 0.09850240 17774.62447787 0 495.50757305 0 4805.52183919 0 -230.05301445 0 -161.49982257 0 10575
0.09950000 0.09950330 17292.31400877 0 446.90338880 0 4889.19539784 0 171.62989255 0 -1136.67379356 0 10882
0.10050000 0.10051200 17023.47796217 0 400.76279681 0 4970.99773360 0 -377.58509927 0 -1141.53454415 0 10875
0.10150000 0.10150300 17005.54079597 0 -30.92356382 0 5453.59608315 0 -368.34192251 0 -1145.53165341 0 11118
0.10250000 0.10250800 16811.11077215 0 253.30711104 0 5840.49632929 0 -944.20689293 0 -1582.93277305 0 11575
0.10350000 0.10349800 17104.97027284 0 94.88605911 0 6382.50877381 0 -295.88352166 0 -963.34097745 0 11364
0.10450000 0.10450100 16968.89140082 0 239.33937328 0 6430.69553142 0 -180.01496413 0 -986.25515366 0 12093
0.10550000 0.10551000 16684.44337623 0 316.70835018 0 6791.01112567 0 388.19349368 0 -239.89852568 0 12067
0.10650000 0.10649700 16581.69220191 0 64.91958705 0 6421.98161179 0 845.75510234 0 -666.60045785 0 12054
0.10750000 0.10749900 16514.26174376 0 163.95344975 0 6309.75252743 0 1361.02123903 0 103.26371223 0 12807
0.10850000 0.10850100 16077.23708317 0 318.30608665 0 6001.22219636 0 493.24438986 0 -666.85733578 0 12736
0.10950000 0.10950300 15794.11773756 0 385.24493358 0 5729.15303091 0 737.60949137 0 451.39321651 0 12933
0.11050000 0.11050200 15421.53400741 0 514.12679447 0 5408.90818018 0 435.89085453 0 1213.13926875 0 13428
0.11150000 0.11150900 14969.45098507 0 308.74956310 0 4906.99969615 0 308.30113395 0 960.39795351 0 13453
0.11250000 0.11250000 14860.16713911 0 146.31523632 0 4571.45289252 0 599.26079276 0 1169.81326174 0 13668
0.11350000 0.11349100 14620.67275328 0 67.53099485 0 4464.51637943 0 134.82437762 0 460.54227851 0 13791
0.11450000 0.11448600 14310.97982810 0 201.99020720 0 4348.50055998 0 -182.55052652 0 153.53217763 0 14205
0.11550000 0.11549300 14422.25669253 0 267.35014061 0 5231.00913732 0 -483.18739723 0 -311.67819302 0 14776
0.11650000 0.11649800 14148.99171600 0 168.02474359 0 4687.39120570 0 -202.32902034 0 228.15743245 0 14553
0.11750000 0.11747300 14207.34286780 0 68.93407986 0 4835.72714130 0 -369.75032223 0 -517.11078601 0 14568
0.11850000 0.11849100 14307.76885390 0 105.67371445 0 5064.64745692 0 14.96147891 0 -935.48632991 0 16015
0.11950000 0.11950300 14007.93029781 0 173.26748939 0 4948.41019097 0 220.76997733 0 -764.68464725 0 15270
0.12050000 0.12050700 14033.83953789 0 156.81180024 0 4356.58335709 0 335.42722252 0 -934.89174606 0 15999
0.12150000 0.12150000 13815.82546221 0 6.12449039 0 4319.46892430 0 448.89862173 0 -659.54849417 0 15670
0.12250000 0.12250700 13973.71681412 0 -31.25052957 0 3955.11193149 0 581.32584102 0 -928.06897951 0 16887
0.12350000 0.12352200 13779.39751356 0 150.02335790 0 3518.48587460 0 646.67913103 0 -608.99336628 0 16407
0.12450000 0.12449800 13483.10210141 0 296.40392093 0 3390.51194434 0 378.47309972 0 -522.73552701 0 16306
0.12550000 0.12549900 13334.84367209 0 258.29740783 0 2846.79436180 0 325.16982081 0 -295.80380093 0 17523
0.12650000 0.12650100 12909.22350606 0 158.95872403 0 3342.17017418 0 108.01706128 0 -134.43020286 0 17154
0.12750000 0.12750600 12999.79512308 0 2.77229976 0 3269.39178315 0 201.42441140 0 173.65723522 0 18007
0.12850000 0.12850300 13020.16820074 0 15.61640692 0 3231.70158947 0 78.17293841 0 305.55962632 0 17496
0.12950000 0.12949900 13078.29790604 0 150.42417606 0 3521.12108790 0 -20.67280550 0 165.86121132 0 18405
0.13050000 0.13049000 12886.85740993 0 246.22414485 0 3401.57319684 0 -52.76328163 0 482.23296283 0 18100
0.13150000 0.13148800 12519.03477945 0 283.94534104 0 3627.74757591 0 -17.77074916 0 869.97581288 0 19059
0.13250000 0.13249300 12568.19590165 0 285.35816969 0 3642.82808231 0 298.34379224 0 599.38369557 0 18957
0.13350000 0.13349100 12149.32985376 0 251.83006291 0 3582.17388695 0 269.88016683 0 1098.39787389 0 19468
0.13450000 0.13450700 12330.36236454 0 106.62936681 0 3476.57712516 0 306.40333747 0 589.97111224 0 19953
0.13550000 0.13551000 12112.23756561 0 -106.67310249 0 3266.69013589 0 181.03583248 0 833.25334039 0 19956
0.13650000 0.13649900 12172.69245912 0 96.16424828 0 3611.27195658 0 -85.87141513 0 537.03654175 0 19723
0.13750000 0.13749600 12166.38123398 0 37.95227561 0 3342.75700740 0 345.16754666 0 960.39020289 0 20946
0.13850000 0.13851100 11990.22054611 0 81.33497293 0 2922.86123330 0 379.23487567 0 1106.59693042 0 20955
0.13950000 0.13949800 11883.26188836 0 184.18369443 0 2714.10362117 0 746.52603455 0 1357.87669878 0 20506
0.14050000 0.14048300 11742.86480966 0 235.76965576 0 2725.91779175 0 398.90264624 0 864.47618915 0 21447
0.14150000 0.14148400 11467.82826117 0 395.59977175 0 2783.74854428 0 54.48524958 0 850.22167817 0 21771
0.14250000 0.14249400 11075.31434635 0 275.28789027 0 2771.89008440 0 -294.41311693 0 878.72073502 0 22470
0.14350000 0.14350900 10773.07309577 0 357.48772249 0 2892.48984632 0 -94.67269541 0 1293.79008273 0 22519
0.14450000 0.14449900 10842.34155984 0 78.47886674 0 2965.98793847 0 -23.46978547 0 1102.65739725 0 22218
0.14550000 0.14550500 10641.29028578 0 -103.37465693 0 2838.97730048 0 136.92369040 0 875.95043936 0 23559
0.14650000 0.14650700 10822.17885634 0 28.72083552 0 2541.97325954 0 236.49267857 0 472.95878356 0 23044
0.14750000 0.14750500 10780.95659104 0 130.60250017 0 2390.52600067 0 -27.57728581 0 221.82738435 0 23649
0.14850000 0.14849900 10578.95309705 0 217.28108778 0 2262.00952650 0 -49.23054567 0 77.35314348 0 23640
0.14950000 0.14949500 10362.77702729 0 168.65697334 0 1996.74984082 0 -167.78225967 0 201.85180314 0 24457
0.15050000 0.15050000 10197.50043473 0 43.62484906 0 2150.45585395 0 162.83846664 0 -249.03762259 0 24591
0.15150000 0.15149900 10238.34624098 0 103.42116069 0 2010.92241659 0 209.55814122 0 -415.34394136 0 25020
0.15250000 0.15250500 10138.69531761 0 140.75139309 0 2174.58244973 0 -219.98827119 0 -855.57957615 0 25297
0.15350000 0.15350100 10084.56272157 0 320.57480601 0 2545.47211418 0 -252.41246719 0 -202.87488595 0 25452
0.15450000 0.15450400 9834.72678437 0 280.47195275 0 2814.20850986 0 -443.35249423 0 -256.42397048 0 26061
0.15550000 0.15549900 9643.60738567 0 271.91968906 0 3047.91206980 0 -211.93426212 0 203.78724552 0 26128
0.15650000 0.15649500 9487.44331643 0 24.15305864 0 3158.88998146 0 143.56154913 0 382.43920647 0 26331
0.15750000 0.15749700 9523.36193814 0 -27.98386158 0 3105.85354558 0 439.67426792 0 135.46325076 0 27345
0.15850000 0.15849900 9425.99191369 0 100.08894454 0 2990.47992097 0 355.59103325 0 -142.65251127 0 26980
0.15950000 0.15949700 9409.67130690 0 227.68132248 0 2826.28841623 0 25.59235014 0 90.81354731 0 27777
0.16050000 0.16050000 9120.32931474 0 226.68813494 0 2696.44326308 0 295.44727207 0 321.89019820 0 28224
0.16150000 0.16150500 9019.54901424 0 51.22588933 0 2214.70855488 0 308.84367786 0 200.35371759 0 28075
0.16250000 0.16249700 8984.78191431 0 -5.61488664 0 2461.01242047 0 234.51848305 0 201.76876071 0 28590
0.16350000 0.16349900 9006.27329679 0 103.54118469 0 2386.98285673 0 -126.61203430 0 20.65940799 0 29163
0.16450000 0.16449100 8971.35118431 0 104.93197941 0 2387.00500138 0 -179.65068465 0 495.90285505 0 28996
0.16550000 0.16550500 8909.27973137 0 86.01513391 0 2638.97789728 0 -192.12587302 0 227.86069414 0 30777
0.16650000 0.16650700 8876.58315619 0 76.54408870 0 2696.55398633 0 -98.19413759 0 542.00580113 0 29211
0.16750000 0.16749900 8918.79085839 0 78.03697026 0 2904.94621174 0 147.93401020 0 475.86194713 0 30922
0.16850000 0.16850800 8848.79162089 0 58.77356099 0 2616.31284837 0 127.93406988 0 518.49482661 0 30867
0.16950000 0.16949900 8820.16966123 0 125.67310116 0 2790.00440780 0 286.83521782 0 502.62486345 0 30852
0.17050000 0.17049200 8661.59182518 0 172.14032672 0 2661.97511592 0 40.55250037 0 239.30726354 0 31257
0.17150000 0.17149500 8457.49566180 0 169.07661445 0 2767.40579285 0 -130.01013079 0 316.99290893 0 32608
0.17250000 0.17250900 8329.57709317 0 242.56031257 0 2638.39106406 0 31.91199025 0 196.34996494 0 32361
0.17350000 0.17350400 8165.14199729 0 89.78260315 0 2352.24897377 0 152.94534442 0 294.58363073 0 32508
0.17450000 0.17449800 8145.52183771 0 -59.66676543 0 2332.77275442 0 287.99559746 0 131.84813671 0 32791
0.17550000 0.17549800 8202.18999613 0 -7.88392709 0 2109.72077094 0 499.62204895 0 -110.58240821 0 33633
0.17650000 0.17650100 8071.49227397 0 121.91293965 0 1895.83667242 0 115.93499148 0 -272.78222316 0 33984
0.17750000 0.17750300 8034.38891350 0 118.40522715 0 1816.61418835 0 -84.02100821 0 -88.53951324 0 34069
