### header ###
fiducial parameters:
Omega_m = 0.31
Omega_nu = 0
Omega_de = 0.69
Omega_k = 0
H_0 = 100
w_de = -1
zeff = 0
beta = 0
fgrowth = 0
b_1 = 2
gamma = 0.55
Lx = 3500 Ly = 3500 Lz = 3500
nx = 700 ny = 700 nz = 700
xoffset = -685.467585 yoffset = -31.7331281 zoffset = 572.489161
bins = 400 dk = 0.001
kx_ny = 0.628318531 ky_ny = 0.628318531 kz_ny = 0.628318531
############################
A(data) = 7.99585722 (not used)
A(ran) = 7.99495823 (used)
Ngal = 474957
weighted Ngal = 0
Nran = 23820508
weighted Nran = 0
SN(data) = 3485.65081
SN(ran) = 69.6389857
SN(data+ran) = 3555.2898
############################
13 columns: k_central k_mean P_0(k) sigma^{lin}_{P_0(k)} P^img_1(k) sigma^{lin}_{P_1(k)} P_2(k) sigma^{lin}_{P_2(k)} P^img_3(k) sigma^{lin}_{P_3(k)} P_4(k) sigma^{lin}_{P_4(k)} N_modes
### header ###
0.00050000 0 0 0 0 0 0 0 0 0 0 0 0
0.00150000 0.00179520 3336.93296454 0 -11051.69707751 0 -7010.69712240 0 -11463.06716150 0 -42213.23837109 0 3
0.00250000 0.00253879 9448.13656332 0 -12923.06391208 0 -12350.29254921 0 6911.97627431 0 27374.21937239 0 6
0.00350000 0.00331552 17747.82945181 0 -11826.79303179 0 -4402.57779439 0 -12160.95579482 0 -4776.64521606 0 7
0.00450000 0.00420575 23249.00331470 0 -4192.73509443 0 -2551.15221681 0 -13542.44976244 0 -656.89002898 0 24
0.00550000 0.00557378 38462.15616903 0 -15817.81251267 0 -18504.73357641 0 12863.82697430 0 10201.63041188 0 45
0.00650000 0.00659388 38010.73748617 0 -16220.29151983 0 -19424.95449209 0 9146.13890390 0 3614.67116030 0 40
0.00750000 0.00754703 69124.19167306 0 -30951.35535155 0 -42952.20532949 0 7411.07238784 0 -31902.02516048 0 57
0.00850000 0.00846663 75845.86790072 0 -17898.41306934 0 -30921.12790479 0 6285.92488442 0 -13670.77800709 0 75
0.00950000 0.00948925 97117.02183307 0 -9414.69814237 0 -30048.51798584 0 -44708.82966196 0 -34662.90935401 0 112
0.01050000 0.01054430 87124.02723774 0 11690.49271327 0 -7307.74545263 0 -49079.85133062 0 -10729.34848506 0 105
0.01150000 0.01145670 80400.57943812 0 22236.54993329 0 16479.60536708 0 -59101.30180073 0 3268.84923923 0 144
0.01250000 0.01249090 70429.28659944 0 14149.76677874 0 34164.65473717 0 -17916.12878905 0 11303.95785385 0 169
0.01350000 0.01339930 67301.13339167 0 2441.42547786 0 56513.69949061 0 -4644.18699426 0 16288.16487097 0 180
0.01450000 0.01448870 73486.13403537 0 -3039.28672877 0 57307.69590336 0 21330.61231663 0 -3540.09905264 0 267
0.01550000 0.01550050 81008.89296365 0 -4818.42109760 0 63907.02294177 0 26344.38244101 0 -1098.21518053 0 238
0.01650000 0.01653350 73092.84505781 0 4438.80644120 0 48816.32999994 0 19831.97315242 0 18441.39987845 0 315
0.01750000 0.01747870 76282.44966832 0 5074.41324741 0 50642.48853228 0 11236.52739571 0 9453.58414713 0 297
0.01850000 0.01844180 69341.54140925 0 162.58269594 0 37151.19291050 0 27219.20682493 0 11596.93156855 0 388
0.01950000 0.01947590 72445.44622567 0 -4537.23940883 0 25359.83131813 0 21018.37275674 0 11713.41242565 0 399
0.02050000 0.02045430 73475.83677329 0 -8447.47520784 0 16630.29970786 0 2621.46147941 0 -11869.31075909 0 462
0.02150000 0.02154770 79195.79977460 0 1397.34953676 0 17309.36538899 0 -8462.16818287 0 -5813.57950765 0 571
0.02250000 0.02255340 76337.25767617 0 10900.98059208 0 14553.46374163 0 -9209.02970887 0 -9974.48166823 0 510
0.02350000 0.02348930 67119.87943439 0 5684.52048957 0 15407.69360139 0 -6718.34345789 0 -7173.31635701 0 555
0.02450000 0.02439640 68402.94043438 0 564.02754796 0 19628.79599200 0 -2458.21112229 0 -11581.20886731 0 592
0.02550000 0.02547300 66306.50645322 0 1072.75769131 0 25662.99157167 0 1545.19829007 0 -13869.30479108 0 837
0.02650000 0.02652900 65751.00791706 0 2757.70643631 0 28138.54195462 0 9775.84416098 0 9567.19727210 0 723
0.02750000 0.02749970 66660.59940092 0 -2291.39547657 0 28804.21012272 0 9847.27172839 0 5704.37316797 0 826
0.02850000 0.02848090 68852.69826851 0 -3473.67617605 0 21837.39262358 0 17929.30485559 0 14855.95965567 0 831
0.02950000 0.02946900 71354.37933804 0 75.26589953 0 21513.41639938 0 2385.12270616 0 8374.19856219 0 996
0.03050000 0.03053250 68467.82425782 0 6001.94189747 0 20906.87444582 0 -3254.42200000 0 17316.56240012 0 1041
0.03150000 0.03150510 68174.73981987 0 2806.82326920 0 25200.61128724 0 -7426.44077469 0 9694.51793519 0 1036
0.03250000 0.03246190 62029.37809902 0 5129.65307593 0 31238.12856435 0 -3613.27604737 0 7964.22359113 0 1059
0.03350000 0.03345080 59746.15399817 0 5550.26855114 0 31516.37608704 0 -2724.79948695 0 13588.17846394 0 1302
0.03450000 0.03451200 56959.13911807 0 195.47303681 0 28246.82929135 0 5527.09417530 0 2577.63721778 0 1339
0.03550000 0.03553350 55596.35737939 0 793.60888138 0 30043.64616291 0 5255.52326447 0 9787.97942898 0 1365
0.03650000 0.03647120 56044.45436480 0 4141.75811096 0 30009.21123273 0 5601.81022317 0 114.63731501 0 1308
0.03750000 0.03744890 51393.41360148 0 1425.66147132 0 28417.12164706 0 4943.20619831 0 6002.68374323 0 1579
0.03850000 0.03847530 49658.15885590 0 477.84278604 0 26283.59537775 0 668.68094768 0 7705.02046712 0 1662
0.03950000 0.03950240 48018.67972000 0 2742.42662806 0 25382.41886076 0 7216.47627915 0 5716.43092970 0 1683
0.04050000 0.04050350 46943.66770336 0 1464.23745099 0 22469.84381722 0 5710.41865732 0 4716.88787902 0 1822
0.04150000 0.04152450 45872.64172365 0 -584.55010201 0 20003.26201737 0 4094.70073048 0 4132.47950276 0 1887
0.04250000 0.04250150 45536.26449566 0 1595.93168239 0 17687.15311180 0 836.95260411 0 2376.17626771 0 1920
0.04350000 0.04349210 44710.82268043 0 2143.91210998 0 19877.70185392 0 -3104.71309612 0 1118.63697643 0 2005
0.04450000 0.04448520 43366.64244745 0 2627.93878943 0 21943.24404884 0 -3145.32638356 0 3577.75602935 0 2151
0.04550000 0.04548030 42621.03209416 0 501.02601974 0 22361.66720374 0 -946.27741767 0 5565.06117710 0 2274
0.04650000 0.04648670 41942.52002927 0 -168.76991105 0 23810.81307600 0 2837.26109013 0 4948.91951792 0 2311
0.04750000 0.04749250 41713.10145903 0 1512.09203886 0 24537.15758411 0 6307.87023221 0 3653.42429716 0 2568
0.04850000 0.04851840 40973.69160764 0 1439.57938362 0 23429.81437899 0 2710.98122557 0 6381.02508229 0 2493
0.04950000 0.04949480 38272.48724488 0 1262.87615184 0 18256.60277722 0 6665.79420430 0 5541.79822266 0 2644
0.05050000 0.05050630 36661.79615352 0 1710.38630404 0 18358.91105855 0 4093.65993195 0 3700.23808649 0 2829
0.05150000 0.05149060 36481.20653572 0 1927.82461882 0 14394.13298749 0 154.47111078 0 3858.43946350 0 2784
0.05250000 0.05249300 34870.73689085 0 838.72639055 0 14566.63980816 0 -538.36522073 0 972.81002964 0 3055
0.05350000 0.05348950 33895.04362783 0 238.33622065 0 11367.51299831 0 -917.84922370 0 1616.68121910 0 3009
0.05450000 0.05448610 35210.65726278 0 -1207.42594915 0 12407.64719178 0 1945.32996436 0 -4304.26662233 0 3336
0.05550000 0.05550870 35155.29563869 0 863.42653275 0 11845.28381424 0 -323.89761069 0 -2548.87131790 0 3349
0.05650000 0.05647670 34638.66096265 0 1495.93751695 0 10577.64656272 0 1466.14189086 0 -2548.97096883 0 3324
0.05750000 0.05747970 32816.15629750 0 501.57631428 0 11446.45867427 0 679.85624512 0 450.23505133 0 3639
0.05850000 0.05849280 32071.43173020 0 67.65733008 0 11210.50743238 0 1733.99250055 0 -2602.46137002 0 3846
0.05950000 0.05951020 32617.51879026 0 333.01013401 0 11286.68502714 0 1732.34272415 0 -4263.71976884 0 3787
0.06050000 0.06049470 32226.22283117 0 717.76567083 0 11261.32940330 0 -1386.48758612 0 -3984.58646016 0 3930
0.06150000 0.06148310 31240.12158282 0 196.24920678 0 9886.72242172 0 -687.10529618 0 -1921.64626158 0 4083
0.06250000 0.06249100 31489.80250748 0 197.31214997 0 11479.01130924 0 796.86635934 0 -957.57340345 0 4303
0.06350000 0.06350600 31637.39659731 0 -242.33997331 0 10365.87727824 0 2521.06871028 0 -544.85249584 0 4470
0.06450000 0.06451750 31419.49324488 0 22.93886750 0 9670.51313498 0 3297.74800701 0 -2238.82407833 0 4479
0.06550000 0.06550280 30539.68631479 0 638.56311694 0 6547.35354571 0 3039.35316272 0 -1500.63218267 0 4636
0.06650000 0.06648880 31123.19783273 0 233.09568931 0 7738.86856410 0 1434.58576513 0 -48.36922952 0 4653
0.06750000 0.06749660 30652.07041170 0 144.98877180 0 7550.94906727 0 40.96095843 0 479.21907601 0 5220
0.06850000 0.06852730 29923.62216188 0 812.15281098 0 7453.46831957 0 -1198.28020885 0 436.28613653 0 5029
0.06950000 0.06949320 29596.21351699 0 713.00014223 0 8847.21935077 0 227.05905782 0 1101.77493296 0 5040
0.07050000 0.07048030 29551.14915498 0 179.04613571 0 7511.98555624 0 -227.42887347 0 1928.95399596 0 5475
0.07150000 0.07148790 29141.14096695 0 768.06834972 0 9009.55070493 0 352.39223861 0 269.62993229 0 5509
0.07250000 0.07249820 28695.36916975 0 955.62799598 0 8374.42000869 0 -1422.86017314 0 -265.49441897 0 5916
0.07350000 0.07351270 27920.19570919 0 607.88170487 0 8327.26297728 0 324.32721689 0 157.05206969 0 5721
0.07450000 0.07449140 26259.67915614 0 869.94813207 0 7552.47704810 0 -721.73288482 0 -175.36458771 0 6028
0.07550000 0.07549160 27327.16199191 0 -668.90571587 0 6674.62991950 0 2577.91402590 0 -2328.58741564 0 6183
0.07650000 0.07648840 26459.75606562 0 -491.68983545 0 6789.08454115 0 2032.59095626 0 -2270.25840849 0 6330
0.07750000 0.07749960 27063.41921473 0 954.04465353 0 4375.24022441 0 518.83585421 0 -3810.68452656 0 6583
0.07850000 0.07848650 25796.30236248 0 799.78280970 0 5415.37441788 0 -198.01302813 0 -1856.57420862 0 6549
0.07950000 0.07947320 25126.31598771 0 812.98544981 0 3805.33659367 0 245.87868832 0 -280.82515991 0 6828
0.08050000 0.08048110 24898.00464995 0 610.69739707 0 4774.47504040 0 418.87822745 0 115.42123561 0 7147
0.08150000 0.08149960 24417.35502957 0 260.51076557 0 5026.18220050 0 633.28715416 0 -716.91753075 0 7386
0.08250000 0.08250610 24192.14394276 0 126.01966492 0 5289.12777029 0 692.73668058 0 -59.32928097 0 7227
0.08350000 0.08350160 23623.13717033 0 219.16449023 0 4485.49843496 0 -337.75573243 0 642.13726339 0 7798
0.08450000 0.08449610 23498.35206962 0 214.92489705 0 5564.17539111 0 -493.98623562 0 -619.82763612 0 7371
0.08550000 0.08548940 23442.54755253 0 1008.83162397 0 5853.49523863 0 -1055.14937315 0 -411.85394458 0 8256
0.08650000 0.08650700 22672.91025439 0 1028.53593322 0 5741.06685242 0 -1042.14935658 0 -1212.86246063 0 8037
0.08750000 0.08749060 21906.26248395 0 769.84988678 0 6648.99748755 0 -1104.29277963 0 -207.21523728 0 8155
0.08850000 0.08849210 21195.64067709 0 194.68025836 0 5880.76637465 0 325.42559151 0 -1530.93713570 0 8718
0.08950000 0.08949900 21395.05324707 0 -60.70479588 0 6237.70490983 0 1191.59252466 0 -2964.02813698 0 8571
0.09050000 0.09049190 21188.77583570 0 -82.91532585 0 5488.41854471 0 1368.37326271 0 -2925.54073591 0 8932
0.09150000 0.09150830 21262.40679574 0 303.92535118 0 5638.64784784 0 357.52758286 0 -2449.41969638 0 9285
0.09250000 0.09250820 20733.37111591 0 869.05791716 0 5177.78447192 0 345.33473877 0 -2135.76287892 0 9204
0.09350000 0.09350330 20284.94196075 0 400.14939002 0 5549.67064560 0 -522.07008029 0 -1689.07207876 0 9349
0.09450000 0.09448040 19578.85980707 0 879.84900492 0 5464.62411867 0 -672.84303458 0 43.66194135 0 9564
0.09550000 0.09549270 19383.21182752 0 390.24408823 0 6990.71157610 0 -704.77672659 0 -785.11308654 0 10155
0.09650000 0.09649430 19165.75136808 0 287.47187650 0 6803.89931176 0 589.18829888 0 802.81662670 0 9913
0.09750000 0.09749140 18669.82193946 0 413.18262356 0 6323.10575116 0 627.41217862 0 -71.47274249 0 10476
0.09850000 0.09850240 18549.79793842 0 440.57444793 0 6444.54700977 0 999.18652182 0 -460.34629836 0 10575
0.09950000 0.09950330 17931.18715080 0 467.28643155 0 5640.19797332 0 422.02941109 0 -238.68389165 0 10882
0.10050000 0.10051200 17436.36495466 0 679.33806032 0 5097.44368303 0 590.04640405 0 0.37692630 0 10875
0.10150000 0.10150300 17011.29840487 0 218.03843479 0 4620.58079774 0 342.98740591 0 -55.02591120 0 11118
0.10250000 0.10250800 16622.21691074 0 -146.71384001 0 4956.26046927 0 790.32040091 0 -58.65885170 0 11575
0.10350000 0.10349800 17124.78973426 0 -107.61823614 0 4804.12672626 0 167.53866853 0 -697.35051833 0 11364
0.10450000 0.10450100 16905.77914935 0 12.23646905 0 4223.21720465 0 -198.27433499 0 -1097.59513034 0 12093
0.10550000 0.10551000 16821.85092722 0 369.77357411 0 4995.73330725 0 -703.97066134 0 -939.79789319 0 12067
0.10650000 0.10649700 16482.70561803 0 449.36255214 0 5568.00641550 0 -720.58247027 0 -866.33966141 0 12054
0.10750000 0.10749900 16481.81983204 0 330.82002816 0 5757.42067617 0 -607.00477674 0 -1299.75806581 0 12807
0.10850000 0.10850100 16077.34780642 0 566.65943957 0 6332.10755124 0 -284.07156555 0 -551.75166143 0 12736
0.10950000 0.10950300 15764.88680004 0 428.72152421 0 6189.16383783 0 429.37700584 0 -814.72491204 0 12933
0.11050000 0.11050200 15277.26161502 0 417.34138876 0 6101.12778319 0 890.63566376 0 93.37623689 0 13428
0.11150000 0.11150900 15179.38226363 0 261.14520978 0 5603.44892725 0 1125.15857575 0 -421.83121648 0 13453
0.11250000 0.11250000 14778.34265870 0 58.33631488 0 5190.01939084 0 671.03824563 0 417.61376795 0 13668
0.11350000 0.11349100 14667.39796401 0 335.08065875 0 5256.76336485 0 695.12498104 0 651.01837513 0 13791
0.11450000 0.11448600 14321.71998317 0 75.83136316 0 4879.44067968 0 193.04487598 0 917.58791684 0 14205
0.11550000 0.11549300 14554.68169736 0 49.53149146 0 4357.56879400 0 545.30313946 0 404.64807559 0 14776
0.11650000 0.11649800 14710.91220055 0 -274.37553070 0 4445.40554679 0 -173.39371389 0 398.42210734 0 14553
0.11750000 0.11747300 14525.00786684 0 -49.84295596 0 4378.73907906 0 353.43635884 0 360.55475646 0 14568
0.11850000 0.11849100 14820.19604651 0 154.73131041 0 4537.43871068 0 -254.73654817 0 -361.93215367 0 16015
0.11950000 0.11950300 14516.81434648 0 127.74805483 0 4142.24529325 0 -235.81283783 0 -166.08930121 0 15270
0.12050000 0.12050700 14538.62682637 0 230.25895970 0 4744.08150877 0 -317.36161735 0 -1276.88264274 0 15999
0.12150000 0.12150000 14222.95484579 0 167.64717731 0 4140.20798549 0 -303.99178513 0 -964.70730233 0 15670
0.12250000 0.12250700 14150.87401122 0 99.76087155 0 4251.42948829 0 426.87687490 0 -1447.03105822 0 16887
0.12350000 0.12352200 13926.99160339 0 172.44592289 0 3524.15490490 0 795.26751563 0 -1037.41593772 0 16407
0.12450000 0.12449800 14032.17868917 0 25.65103346 0 3735.31521152 0 1114.99418156 0 -1480.32553895 0 16306
0.12550000 0.12549900 13569.35551175 0 325.77215528 0 3326.38103899 0 494.91631091 0 -1073.91142756 0 17523
0.12650000 0.12650100 13536.13853729 0 494.90413135 0 3087.51777568 0 143.65344943 0 -485.70192219 0 17154
0.12750000 0.12750600 13134.32386962 0 277.62747250 0 3727.07740185 0 -62.39310397 0 979.70144460 0 18007
0.12850000 0.12850300 12938.78661333 0 223.28450229 0 3948.62354915 0 -48.85929062 0 1266.88433342 0 17496
0.12950000 0.12949900 12748.45334969 0 302.00319559 0 4290.26013143 0 235.51388506 0 1440.55374821 0 18405
0.13050000 0.13049000 12724.64785133 0 157.44845892 0 3957.88001270 0 446.40181248 0 2102.84485723 0 18100
0.13150000 0.13148800 12700.06729024 0 125.49594396 0 3945.70045540 0 455.80000179 0 1745.61844161 0 19059
0.13250000 0.13249300 12355.82871162 0 -69.59299391 0 3780.15812703 0 197.65649927 0 1905.75747546 0 18957
0.13350000 0.13349100 12377.64119152 0 214.85071248 0 3543.43182241 0 7.96502080 0 900.74580355 0 19468
0.13450000 0.13450700 12198.93386894 0 337.32169730 0 3763.33926564 0 -304.90968086 0 990.13378905 0 19953
0.13550000 0.13551000 11790.47580638 0 444.52173173 0 3764.98904203 0 -554.40016153 0 380.18598837 0 19956
0.13650000 0.13649900 11502.04174486 0 357.42018131 0 3691.76775801 0 -302.28111094 0 776.30283768 0 19723
0.13750000 0.13749600 11458.08461533 0 -37.17389118 0 3811.76961439 0 313.90151584 0 456.80979781 0 20946
0.13850000 0.13851100 11433.06116124 0 -191.37406217 0 3900.15998342 0 570.54028942 0 841.61073116 0 20955
0.13950000 0.13949800 11758.91968065 0 -222.30460155 0 3505.94093058 0 944.74943685 0 694.75848709 0 20506
0.14050000 0.14048300 11781.83939303 0 -72.72889774 0 3130.75520410 0 763.04483595 0 834.13359021 0 21447
0.14150000 0.14148400 11816.38504646 0 118.60231453 0 2972.09986177 0 115.19757465 0 993.18532177 0 21771
0.14250000 0.14249400 11597.70663129 0 177.44064861 0 2969.37606986 0 163.68217779 0 1421.08860117 0 22470
0.14350000 0.14350900 11352.12246681 0 312.86625347 0 3182.24151450 0 -244.79138602 0 1212.41956764 0 22519
0.14450000 0.14449900 11138.20515132 0 391.09887171 0 3050.20404104 0 -80.53101142 0 1074.33992653 0 22218
0.14550000 0.14550500 10941.85961531 0 308.34320878 0 3225.01390528 0 -70.76964986 0 1086.75864604 0 23559
0.14650000 0.14650700 10519.29541093 0 276.48923751 0 3025.24702090 0 -68.59415948 0 829.51975246 0 23044
0.14750000 0.14750500 10488.01609332 0 187.31273342 0 2903.38501395 0 -69.36811499 0 238.83890420 0 23649
0.14850000 0.14849900 10208.21844515 0 196.55701741 0 3098.11399053 0 22.67434966 0 794.86669748 0 23640
0.14950000 0.14949500 10171.63548395 0 116.25830336 0 3011.30696395 0 -152.68293032 0 68.79977256 0 24457
0.15050000 0.15050000 10105.46727083 0 -46.31597761 0 2814.05349731 0 362.85447833 0 149.11874896 0 24591
0.15150000 0.15149900 10217.44169172 0 -110.25643897 0 2832.47784581 0 202.50174861 0 -99.60275875 0 25020
0.15250000 0.15250500 10243.12948530 0 29.39358997 0 2586.25148649 0 506.02628163 0 86.07093842 0 25297
0.15350000 0.15350100 10114.88981925 0 97.89928158 0 2514.86820838 0 32.88259025 0 217.82363169 0 25452
0.15450000 0.15450400 10039.65337211 0 230.38518420 0 2415.59374406 0 158.27223989 0 61.11070731 0 26061
0.15550000 0.15549900 9962.82251019 0 255.70426936 0 2941.05306298 0 -177.75067371 0 520.95509718 0 26128
0.15650000 0.15649500 9634.39521142 0 386.90467507 0 2737.33335864 0 -381.93763015 0 414.35518276 0 26331
0.15750000 0.15749700 9451.65756262 0 270.17469067 0 2977.21527584 0 -233.16765943 0 497.30128967 0 27345
0.15850000 0.15849900 9226.69006695 0 102.70766008 0 3084.73862215 0 94.96068657 0 373.46951613 0 26980
0.15950000 0.15949700 9285.39553314 0 60.56041277 0 3066.69073270 0 46.06109269 0 239.61507417 0 27777
0.16050000 0.16050000 9237.23092018 0 -52.30521955 0 2997.75443837 0 106.90362829 0 -11.56426821 0 28224
0.16150000 0.16150500 9194.19279361 0 19.08104808 0 2818.39384864 0 270.86560374 0 90.66960709 0 28075
0.16250000 0.16249700 9228.17375848 0 198.14700326 0 2942.58104380 0 -130.95127840 0 -60.09891827 0 28590
0.16350000 0.16349900 9110.36422241 0 230.07515910 0 2881.04106246 0 -73.15518225 0 240.93157359 0 29163
0.16450000 0.16449100 8851.68149767 0 209.48506387 0 2905.66591286 0 -63.70517446 0 519.45811887 0 28996
0.16550000 0.16550500 8832.22742296 0 65.97234369 0 2858.88534050 0 399.65113540 0 644.17900009 0 30777
0.16650000 0.16650700 8874.68978864 0 -202.30576846 0 2811.45150098 0 574.19415661 0 606.95938021 0 29211
0.16750000 0.16749900 8882.42934369 0 -38.53999461 0 2631.24941455 0 541.93161655 0 519.71942573 0 30922
0.16850000 0.16850800 8873.23931409 0 135.72898656 0 2548.08518284 0 326.24826525 0 455.62284459 0 30867
0.16950000 0.16949900 8543.80443376 0 331.71467201 0 2174.70424531 0 155.07455248 0 609.85257869 0 30852
0.17050000 0.17049200 8461.99102568 0 264.05058781 0 2202.26326178 0 131.89906940 0 731.53410675 0 31257
0.17150000 0.17149500 8231.98562222 0 120.61083425 0 1990.84829169 0 4.65996506 0 568.71778475 0 32608
0.17250000 0.17250900 7986.66719354 0 124.37099576 0 1973.11042733 0 172.36620215 0 545.06508447 0 32361
0.17350000 0.17350400 7996.90909399 0 78.12422018 0 1945.11959019 0 124.00782350 0 564.11944826 0 32508
0.17450000 0.17449800 8020.33813331 0 -29.63042700 0 1517.12994665 0 284.34394474 0 538.85461748 0 32791
0.17550000 0.17549800 7931.30556944 0 35.57737266 0 1681.52075323 0 272.93169955 0 855.72905254 0 33633
0.17650000 0.17650100 7986.24644519 0 25.57264140 0 1386.16648870 0 108.43625950 0 507.32727980 0 33984
0.17750000 0.17750300 7996.82051540 0 86.23746619 0 1637.78507020 0 -142.03799724 0 534.38693442 0 34069
0.17850000 0.17849800 7889.99472554 0 89.31667972 0 1692.55986108 0 -232.33502060 0 483.66129273 0 34536
