### header ###
fiducial parameters:
Omega_m = 0.31
Omega_nu = 0
Omega_de = 0.69
Omega_k = 0
H_0 = 100
w_de = -1
zeff = 0
beta = 0
fgrowth = 0
b_1 = 2
gamma = 0.55
Lx = 3500 Ly = 3500 Lz = 3500
nx = 700 ny = 700 nz = 700
xoffset = -685.467585 yoffset = -31.7331281 zoffset = 572.489161
bins = 400 dk = 0.001
kx_ny = 0.628318531 ky_ny = 0.628318531 kz_ny = 0.628318531
############################
A(data) = 8.05623656 (not used)
A(ran) = 8.05502711 (used)
Ngal = 478489
weighted Ngal = 0
Nran = 23820508
weighted Nran = 0
SN(data) = 3488.13324
SN(ran) = 70.1622075
SN(data+ran) = 3558.29545
############################
13 columns: k_central k_mean P_0(k) sigma^{lin}_{P_0(k)} P^img_1(k) sigma^{lin}_{P_1(k)} P_2(k) sigma^{lin}_{P_2(k)} P^img_3(k) sigma^{lin}_{P_3(k)} P_4(k) sigma^{lin}_{P_4(k)} N_modes
### header ###
0.00050000 0 0 0 0 0 0 0 0 0 0 0 0
0.00150000 0.00179520 56365.66250779 0 -37246.41490394 0 39671.80765547 0 -64811.41043295 0 -4725.82324515 0 3
0.00250000 0.00253879 93148.47917157 0 -17849.80556339 0 19318.99234357 0 -29062.30601424 0 29300.47172109 0 6
0.00350000 0.00331552 87084.27759165 0 4525.53596150 0 6776.77211595 0 -41172.55056138 0 76508.76798761 0 7
0.00450000 0.00420575 75843.32126601 0 13307.93792278 0 7989.24704522 0 -37196.47871901 0 47830.56092133 0 24
0.00550000 0.00557378 63135.50334840 0 6498.51352094 0 47519.42859393 0 -3595.52711068 0 4985.85679351 0 45
0.00650000 0.00659388 65812.45931981 0 4090.20536661 0 44206.69973144 0 39589.98317506 0 32910.49250496 0 40
0.00750000 0.00754703 66256.68099153 0 -12949.96966139 0 37623.98118026 0 26248.60683132 0 12240.34436377 0 57
0.00850000 0.00846663 69679.80093246 0 -1680.94499234 0 28882.71290568 0 12228.82914595 0 2770.15172940 0 75
0.00950000 0.00948925 91459.94963673 0 -3211.17349925 0 22523.76603908 0 26669.57662093 0 17634.44884567 0 112
0.01050000 0.01054430 78104.95433347 0 182.51288061 0 8575.88095876 0 -6379.50817378 0 17356.86566246 0 105
0.01150000 0.01145670 86155.42026261 0 7942.37789426 0 21847.24699266 0 -3934.47311803 0 15145.16877994 0 144
0.01250000 0.01249090 81706.00653424 0 -5542.25218797 0 6866.07041562 0 7062.72597672 0 14220.96182732 0 169
0.01350000 0.01339930 71023.09537946 0 -339.51733931 0 12084.00313733 0 7924.68431920 0 -13953.01156671 0 180
0.01450000 0.01448870 84231.49310212 0 7500.33747053 0 33336.33411748 0 -14088.75826899 0 633.11885483 0 267
0.01550000 0.01550050 73593.86775586 0 4277.77054903 0 51927.21038098 0 509.12653258 0 5551.48650687 0 238
0.01650000 0.01653350 76565.12612094 0 4667.80426310 0 50651.34639213 0 6583.09501023 0 30552.53021158 0 315
0.01750000 0.01747870 71507.06669729 0 3284.72695302 0 65866.60298817 0 -2899.35468771 0 32419.32417600 0 297
0.01850000 0.01844180 75919.72030726 0 6731.44201815 0 71470.86019513 0 20335.54248517 0 17603.22488968 0 388
0.01950000 0.01947590 71134.04007415 0 1658.03635229 0 65837.03988090 0 8275.75452223 0 35437.97209131 0 399
0.02050000 0.02045430 72948.35121893 0 -3998.58187873 0 50198.37758380 0 20351.37590966 0 28346.36949146 0 462
0.02150000 0.02154770 74162.98525153 0 1768.85925140 0 52825.72954002 0 12433.88860160 0 9147.10219615 0 571
0.02250000 0.02255340 74324.08757765 0 2041.26058659 0 26240.74548070 0 14130.61165680 0 -3597.84122657 0 510
0.02350000 0.02348930 65157.30986029 0 -708.69965127 0 23652.03593810 0 -6629.57662981 0 392.34007932 0 555
0.02450000 0.02439640 71222.61867269 0 1891.76205689 0 21283.66565939 0 -5491.75131448 0 -7125.80501121 0 592
0.02550000 0.02547300 71913.31029488 0 -3982.70416494 0 28956.78675872 0 2996.24860220 0 -15055.26150241 0 837
0.02650000 0.02652900 76019.59267712 0 -3271.59517579 0 23907.80664141 0 9120.91614796 0 -14461.34199914 0 723
0.02750000 0.02749970 80167.17483094 0 401.92206922 0 34930.52744487 0 3209.68980773 0 -3290.96067190 0 826
0.02850000 0.02848090 76760.33120749 0 5543.11582931 0 31510.50775489 0 2025.25000490 0 7031.33593586 0 831
0.02950000 0.02946900 72086.48145505 0 5621.41931043 0 34421.53267296 0 10657.26765049 0 7477.40668583 0 996
0.03050000 0.03053250 67424.70053665 0 3030.03026522 0 26713.97664345 0 8713.44352231 0 18665.28228628 0 1041
0.03150000 0.03150510 66289.34434975 0 3721.60767339 0 28409.48174293 0 11610.10763509 0 15952.34125922 0 1036
0.03250000 0.03246190 60684.64424980 0 4362.37418297 0 24642.67683963 0 5178.44881141 0 11430.73597303 0 1059
0.03350000 0.03345080 56666.49757311 0 3001.46366719 0 22320.58887866 0 1860.02877396 0 11765.00945930 0 1302
0.03450000 0.03451200 52074.25085458 0 3457.43307555 0 20661.40100459 0 1722.10082369 0 12212.55282847 0 1339
0.03550000 0.03553350 52378.73978709 0 1250.77410081 0 20938.31984830 0 969.12737440 0 7226.48566079 0 1365
0.03650000 0.03647120 49828.00831862 0 462.49765107 0 21478.64929945 0 3633.11765344 0 10698.97709809 0 1308
0.03750000 0.03744890 50303.89683932 0 2696.44326308 0 26095.36585583 0 782.00840666 0 12422.92700002 0 1579
0.03850000 0.03847530 48310.54620222 0 1681.29930674 0 21503.89420004 0 5996.92613433 0 8729.59804422 0 1662
0.03950000 0.03950240 46859.07514174 0 458.58801318 0 21301.60282560 0 1563.20189022 0 11254.57528516 0 1683
0.04050000 0.04050350 46719.23167929 0 1489.20554346 0 19276.47461627 0 3581.97458511 0 11067.05439203 0 1822
0.04150000 0.04152450 45551.10141092 0 114.97502092 0 20536.50518063 0 -1839.45639445 0 7567.72363937 0 1887
0.04250000 0.04250150 44955.96395192 0 1306.73363045 0 19159.66158943 0 -1452.56722063 0 11343.04316046 0 1920
0.04350000 0.04349210 44210.24287538 0 1171.23051932 0 21797.64297748 0 -1327.20635904 0 3872.01413373 0 2005
0.04450000 0.04448520 42123.99543305 0 1781.12738730 0 19143.60671845 0 4132.02553745 0 7378.79656099 0 2151
0.04550000 0.04548030 42082.47421498 0 48.03296302 0 17040.08644940 0 4469.62072117 0 567.90396888 0 2274
0.04650000 0.04648670 41135.23682675 0 219.04380189 0 14630.63784561 0 4926.24339669 0 -1006.81313915 0 2311
0.04750000 0.04749250 41005.57990312 0 197.86576621 0 14074.80713972 0 2592.72879651 0 -707.99766588 0 2568
0.04850000 0.04851840 38277.46979105 0 1448.19365233 0 7843.23629784 0 2920.44746649 0 359.38884066 0 2493
0.04950000 0.04949480 38593.80611112 0 1654.14996628 0 9292.49289335 0 -1058.48103569 0 2805.15134815 0 2644
0.05050000 0.05050630 37064.82877691 0 594.06787242 0 9112.26866228 0 1268.12443380 0 3512.17464945 0 2829
0.05150000 0.05149060 37319.38152450 0 781.25548858 0 12784.32768211 0 -1211.91024070 0 2897.80456224 0 2784
0.05250000 0.05249300 36784.03461951 0 1167.67630305 0 13616.85578522 0 -811.00128920 0 2138.85205754 0 3055
0.05350000 0.05348950 36500.25093441 0 1712.76685387 0 15768.76211372 0 -1902.98939426 0 5422.36105484 0 3009
0.05450000 0.05448610 35549.91329523 0 669.12384067 0 16354.70954313 0 -734.87794884 0 8436.96757159 0 3336
0.05550000 0.05550870 36465.04094149 0 -816.98255907 0 19272.37785609 0 1848.76821962 0 8138.51305610 0 3349
0.05650000 0.05647670 36836.07454616 0 -497.46183838 0 17194.65610387 0 3376.28400695 0 3536.35660685 0 3324
0.05750000 0.05747970 36480.76364273 0 645.06035714 0 14912.64995875 0 1575.91291911 0 3608.28242887 0 3639
0.05850000 0.05849280 34720.59616631 0 1640.61958535 0 12663.75006483 0 -1297.13392483 0 2950.13236933 0 3846
0.05950000 0.05951020 34191.89265622 0 1105.99238148 0 11959.10731337 0 409.34052685 0 314.06317178 0 3787
0.06050000 0.06049470 33365.12216201 0 93.26961041 0 11039.18535046 0 747.12947625 0 1962.28169366 0 3930
0.06150000 0.06148310 33863.93039509 0 -633.42223653 0 10981.45424886 0 -93.17294901 0 -1329.42082400 0 4083
0.06250000 0.06249100 33171.24575444 0 -164.72408356 0 12406.76140579 0 962.91358571 0 -921.27278654 0 4303
0.06350000 0.06350600 33585.90431890 0 908.47982244 0 11096.13031701 0 1283.27137416 0 -1029.10283625 0 4470
0.06450000 0.06451750 33251.29866288 0 425.22377680 0 11182.27300410 0 415.95402646 0 1180.03301755 0 4479
0.06550000 0.06550280 32429.51071484 0 456.40344349 0 10800.79819712 0 1393.31921053 0 1195.02494535 0 4636
0.06650000 0.06648880 32443.24039761 0 388.85229700 0 11040.38116154 0 664.36052654 0 2307.76037265 0 4653
0.06750000 0.06749660 32775.41014217 0 344.96492312 0 11930.98360833 0 1910.19747771 0 2518.61065417 0 5220
0.06850000 0.06852730 32075.97138338 0 467.46469598 0 9446.45356995 0 3172.79682143 0 1971.05097492 0 5029
0.06950000 0.06949320 30660.81754831 0 177.88021991 0 7639.27300235 0 1976.11102736 0 -220.58839120 0 5040
0.07050000 0.07048030 30534.26087563 0 1194.62634166 0 7392.40444819 0 548.76656266 0 154.00939483 0 5475
0.07150000 0.07148790 29605.51426984 0 981.43204897 0 8822.76058524 0 -299.18528892 0 -1261.44782194 0 5509
0.07250000 0.07249820 28612.43745686 0 583.32882458 0 6793.40274783 0 -1462.77590412 0 -664.25312499 0 5916
0.07350000 0.07351270 28300.75151321 0 373.91573082 0 7254.90831860 0 -565.11927919 0 -753.24139955 0 5721
0.07450000 0.07449140 27855.31188576 0 860.72377826 0 8695.17418636 0 -244.74931119 0 -2780.61507636 0 6028
0.07550000 0.07549160 26745.97566218 0 1347.94482342 0 7496.58395241 0 130.29247507 0 -2967.08409863 0 6183
0.07650000 0.07648840 26286.58490545 0 847.03727756 0 7699.66146191 0 469.17979910 0 -464.75197640 0 6330
0.07750000 0.07749960 25311.44525867 0 564.80593239 0 7017.14121544 0 1004.71271914 0 -780.30991204 0 6583
0.07850000 0.07848650 25798.62755069 0 -362.22224858 0 7650.51141204 0 1737.48028287 0 -498.36201839 0 6549
0.07950000 0.07947320 25453.83535584 0 -298.84979748 0 6294.48379150 0 1866.51715630 0 -880.68607268 0 6828
0.08050000 0.08048110 25610.17658228 0 419.84816310 0 5542.93867211 0 1169.12677760 0 934.87735204 0 7147
0.08150000 0.08149960 25339.79041021 0 519.64191946 0 4648.49412861 0 -101.07183481 0 290.99509026 0 7386
0.08250000 0.08250610 24383.36299237 0 417.41225164 0 4903.48976919 0 -342.57662266 0 707.12516668 0 7227
0.08350000 0.08350160 24345.27419500 0 488.74570428 0 5931.13438025 0 -458.67548454 0 344.31940658 0 7798
0.08450000 0.08449610 24363.76497745 0 657.69387976 0 6044.58142035 0 -996.38854534 0 -984.09162139 0 7371
0.08550000 0.08548940 23524.37203294 0 1129.54321637 0 7705.40799849 0 -209.46402645 0 1023.09831450 0 8256
0.08650000 0.08650700 22192.59280376 0 1245.94656719 0 7256.62452894 0 -908.96589750 0 895.87508787 0 8037
0.08750000 0.08749060 21994.84108250 0 166.41925649 0 7832.13075604 0 832.63329020 0 668.81603004 0 8155
0.08850000 0.08849210 21866.18066810 0 -315.60997556 0 7663.84249112 0 1404.91193461 0 977.22678001 0 8718
0.08950000 0.08949900 21761.87936831 0 148.84526254 0 7505.15393182 0 1758.93844837 0 744.37689630 0 8571
0.09050000 0.09049190 21504.33709303 0 762.93079100 0 6663.92298140 0 1138.50072715 0 658.95944649 0 8932
0.09150000 0.09150830 20722.18806784 0 854.58195969 0 6073.10372908 0 -135.52193408 0 1518.61363818 0 9285
0.09250000 0.09250820 20106.23463818 0 530.17612929 0 6129.07433104 0 -127.80673815 0 1759.63600483 0 9204
0.09350000 0.09350330 19624.92067831 0 392.71321667 0 7012.56834529 0 -1000.15424301 0 127.47567564 0 9349
0.09450000 0.09448040 19311.79533244 0 702.02082494 0 7546.98517499 0 -1462.80912109 0 1294.79766429 0 9564
0.09550000 0.09549270 18774.45540899 0 487.89867144 0 7816.65164595 0 -697.06928128 0 276.43166142 0 10155
0.09650000 0.09649430 18454.46522173 0 301.97219308 0 7745.13549994 0 114.41808298 0 1300.88744294 0 9913
0.09750000 0.09749140 18535.40391616 0 161.07464530 0 7898.05537801 0 1039.63593885 0 -297.06493872 0 10476
0.09850000 0.09850240 18017.10839140 0 130.54713854 0 7222.99787847 0 1919.68646008 0 20.85870983 0 10575
0.09950000 0.09950330 18267.89654854 0 -108.24869431 0 6755.20322721 0 958.34846619 0 -500.14798438 0 10882
0.10050000 0.10051200 18089.29994922 0 197.96652436 0 5756.04770790 0 685.64707100 0 106.88192654 0 10875
0.10150000 0.10150300 17815.37063320 0 622.79280470 0 6286.02453534 0 -147.38260843 0 510.26033864 0 11118
0.10250000 0.10250800 17400.93351524 0 650.75374657 0 6589.37301840 0 -187.15882811 0 767.04415967 0 11575
0.10350000 0.10349800 16730.61497072 0 545.82243149 0 6895.95462030 0 -327.19162732 0 1135.72157362 0 11364
0.10450000 0.10450100 16331.34693776 0 804.74542568 0 7217.22919724 0 -253.54959495 0 647.47966012 0 12093
0.10550000 0.10551000 15750.71422427 0 585.01956858 0 7775.81691201 0 -26.02228851 0 1026.69682006 0 12067
0.10650000 0.10649700 15463.16594873 0 -123.12203752 0 7489.74125568 0 1102.10710271 0 924.51254878 0 12054
0.10750000 0.10749900 15651.61691714 0 -178.83354708 0 7377.44573736 0 169.31688389 0 959.63728480 0 12807
0.10850000 0.10850100 15847.92923618 0 -218.68173687 0 6756.41011061 0 1209.99472851 0 1016.98860566 0 12736
0.10950000 0.10950300 15882.03199662 0 -94.78917626 0 6316.31841604 0 852.26009317 0 1118.68126573 0 12933
0.11050000 0.11050200 15842.50379702 0 43.59296077 0 5362.22725875 0 845.33435400 0 1000.02137511 0 13428
0.11150000 0.11150900 15534.02882757 0 214.40560502 0 5188.43604839 0 450.84402920 0 705.23622807 0 13453
0.11250000 0.11250000 15676.41892474 0 235.03888232 0 4641.60714258 0 856.68902310 0 1280.55865458 0 13668
0.11350000 0.11349100 15196.32292060 0 226.97712262 0 4192.83474535 0 497.44965882 0 431.10096681 0 13791
0.11450000 0.11448600 14907.99958232 0 138.75173123 0 3562.87482479 0 660.22501322 0 63.67716148 0 14205
0.11550000 0.11549300 14830.05041560 0 156.37333618 0 3300.58252216 0 -177.75399541 0 -1098.31704592 0 14776
0.11650000 0.11649800 14369.33097989 0 483.42545221 0 3229.48712450 0 -705.18197368 0 -937.76944328 0 14553
0.11750000 0.11747300 14109.02062341 0 401.22340552 0 3613.18746877 0 -668.03100221 0 -1664.43615604 0 14568
0.11850000 0.11849100 13801.87433294 0 292.62382924 0 3601.09649007 0 -376.06819077 0 -1309.30240980 0 16015
0.11950000 0.11950300 13886.24544806 0 65.55237041 0 3815.08023951 0 322.75716123 0 -1474.70079795 0 15270
0.12050000 0.12050700 13672.21740931 0 -119.74940738 0 3760.82584790 0 145.97310148 0 -1042.88788065 0 15999
0.12150000 0.12150000 13936.84597248 0 119.23675874 0 4024.28074464 0 102.85248609 0 -1034.21603585 0 15670
0.12250000 0.12250700 13802.98156542 0 249.76950326 0 4288.58821038 0 111.33111882 0 -446.45717410 0 16887
0.12350000 0.12352200 13690.48674526 0 33.63218664 0 4466.15508350 0 525.29877021 0 318.78662555 0 16407
0.12450000 0.12449800 13432.94446998 0 262.26019289 0 4158.74305723 0 164.48159965 0 375.25769659 0 16306
0.12550000 0.12549900 13630.47474475 0 135.98586449 0 4146.03202834 0 440.17030807 0 374.64428980 0 17523
0.12650000 0.12650100 13331.30052815 0 72.57023133 0 4269.66560727 0 137.87258864 0 -286.15648431 0 17154
0.12750000 0.12750600 13285.68254989 0 324.46672818 0 4139.25576555 0 -190.29118880 0 205.93970546 0 18007
0.12850000 0.12850300 12941.44397128 0 470.31360516 0 4584.78397161 0 -458.21598306 0 327.17944776 0 17496
0.12950000 0.12949900 12602.74155508 0 302.55902630 0 4180.02406554 0 -280.95692058 0 303.32523117 0 18405
0.13050000 0.13049000 12479.39585660 0 148.94269900 0 4725.72359422 0 593.52532851 0 590.81925232 0 18100
0.13150000 0.13148800 12411.19033572 0 -145.04081173 0 4068.58111624 0 712.83627182 0 183.04324497 0 19059
0.13250000 0.13249300 12508.62679412 0 -1.70305643 0 4469.97503556 0 581.62590103 0 458.82163923 0 18957
0.13350000 0.13349100 12299.24913180 0 251.06607250 0 4097.09235264 0 90.12717390 0 631.58644507 0 19468
0.13450000 0.13450700 12316.07906552 0 159.65849495 0 4113.15829596 0 3.17476770 0 1073.29580630 0 19953
0.13550000 0.13551000 12113.01262835 0 91.18923129 0 3993.90935766 0 9.21052447 0 976.99093949 0 19956
0.13650000 0.13649900 12211.66704249 0 194.01702610 0 4440.69980874 0 -156.76529648 0 761.12157313 0 19723
0.13750000 0.13749600 11694.47875021 0 331.17766426 0 4173.66855109 0 -68.81150922 0 1130.71688280 0 20946
0.13850000 0.13851100 11532.60136136 0 412.13075270 0 4101.01195563 0 357.30170743 0 959.29625720 0 20955
0.13950000 0.13949800 11248.26406001 0 47.55984258 0 3809.52193245 0 574.58390244 0 1075.13381222 0 20506
0.14050000 0.14048300 11419.77437146 0 -162.70338428 0 3735.93526171 0 615.02778331 0 589.74191512 0 21447
0.14150000 0.14148400 11344.03966970 0 -50.02088822 0 3187.95483411 0 426.34651054 0 740.09744276 0 21771
0.14250000 0.14249400 11400.84069602 0 120.99615115 0 3141.29605732 0 34.91092943 0 158.16705280 0 22470
0.14350000 0.14350900 11196.88847286 0 276.38183596 0 3102.75329463 0 -276.39512275 0 593.50429109 0 22519
0.14450000 0.14449900 10981.50961048 0 349.08272072 0 3016.41130569 0 -84.37344031 0 589.49278781 0 22218
0.14550000 0.14550500 10767.29334222 0 130.32679928 0 3249.36194755 0 131.94003700 0 226.59623465 0 23559
0.14650000 0.14650700 10624.50464136 0 161.50978766 0 3036.29720107 0 389.25200793 0 159.38390130 0 23044
0.14750000 0.14750500 10465.56141858 0 54.74600283 0 2861.52055381 0 244.24773487 0 21.92087795 0 23649
0.14850000 0.14849900 10281.90476682 0 220.97149364 0 2686.79926817 0 209.57142800 0 -194.12996381 0 23640
0.14950000 0.14949500 10277.08830552 0 190.61671515 0 2843.35086878 0 -96.08308814 0 27.24954499 0 24457
0.15050000 0.15050000 10053.67093533 0 257.54227528 0 2796.50386247 0 -191.64201243 0 -22.91783008 0 24591
0.15150000 0.15149900 9874.78645556 0 352.54946562 0 2881.39537686 0 -346.08212069 0 229.34549290 0 25020
0.15250000 0.15250500 9618.17425556 0 295.55467362 0 2970.23971120 0 -41.19425232 0 713.57922482 0 25297
0.15350000 0.15350100 9525.48782451 0 65.59510958 0 2855.04324379 0 431.49403435 0 665.68034765 0 25452
0.15450000 0.15450400 9553.83297604 0 -108.18790725 0 2869.65871255 0 332.23064235 0 854.18335599 0 26061
0.15550000 0.15549900 9524.97849757 0 27.81201910 0 2810.54357034 0 407.63428159 0 372.45861288 0 26128
0.15650000 0.15649500 9587.64785604 0 -31.57683098 0 2747.99600744 0 -12.26902169 0 967.99024664 0 26331
0.15750000 0.15749700 9384.37104469 0 177.55801526 0 2504.71488653 0 179.83116354 0 607.22511601 0 27345
0.15850000 0.15849900 9407.51220356 0 233.33928046 0 2610.21199740 0 26.87817922 0 509.28265236 0 26980
0.15950000 0.15949700 9124.07176053 0 124.65334004 0 2566.42095274 0 -77.87287841 0 624.47026191 0 27777
0.16050000 0.16050000 9066.60639472 0 220.49538367 0 2675.68265405 0 -250.78040651 0 58.45157778 0 28224
0.16150000 0.16150500 9029.18193684 0 -40.40579207 0 2851.55546147 0 -209.35994660 0 622.80941319 0 28075
0.16250000 0.16249700 9138.25540862 0 -16.82716564 0 2901.07089806 0 -26.81174527 0 274.61801462 0 28590
0.16350000 0.16349900 9242.62314237 0 -130.90034570 0 3198.07493899 0 -99.82597682 0 97.36769927 0 29163
0.16450000 0.16449100 9272.00909243 0 229.11297408 0 3279.17971829 0 -199.90196674 0 70.86232522 0 28996
0.16550000 0.16550500 9051.82484109 0 316.47693859 0 3584.02296520 0 -212.97173896 0 131.97768291 0 30777
0.16650000 0.16650700 8875.86345507 0 235.92577554 0 3460.46689255 0 -70.60367572 0 371.83302652 0 29211
0.16750000 0.16749900 8627.96517471 0 144.63777911 0 3409.30167956 0 379.47846681 0 523.89258496 0 30922
0.16850000 0.16850800 8618.25474584 0 36.88490350 0 3400.85349572 0 601.24052444 0 206.70591034 0 30867
0.16950000 0.16949900 8479.44100959 0 45.14884385 0 3007.96312186 0 436.49208177 0 274.37331624 0 30852
0.17050000 0.17049200 8417.84566662 0 198.27876392 0 2900.36226927 0 313.38886720 0 0.05043455 0 31257
0.17150000 0.17149500 8218.59918151 0 173.52879626 0 2680.56554929 0 -24.92723559 0 513.98063978 0 32608
0.17250000 0.17250900 8149.51894697 0 37.60615474 0 2681.29632273 0 125.78271717 0 181.15762806 0 32361
0.17350000 0.17350400 8167.20144970 0 7.25485296 0 2636.59734744 0 -69.49456094 0 128.05143653 0 32508
0.17450000 0.17449800 8195.70161379 0 88.27643480 0 2700.25214282 0 -15.43814249 0 -315.86021010 0 32791
0.17550000 0.17549800 8004.56007044 0 104.76633743 0 2598.33139287 0 -96.60780561 0 -129.91712326 0 33633
0.17650000 0.17650100 7969.94798306 0 89.75281860 0 2533.94582405 0 38.79576532 0 -329.10603228 0 33984
0.17750000 0.17750300 7871.32678590 0 51.79234946 0 2377.37207879 0 274.25152067 0 -272.54306095 0 34069
0.17850000 0.17849800 7960.86867671 0 -13.98002804 0 2237.36253145 0 460.67957533 0 -356.29301864 0 34536
