### header ###
fiducial parameters:
Omega_m = 0.31
Omega_nu = 0
Omega_de = 0.69
Omega_k = 0
H_0 = 100
w_de = -1
zeff = 0
beta = 0
fgrowth = 0
b_1 = 2
gamma = 0.55
Lx = 3500 Ly = 3500 Lz = 3500
nx = 700 ny = 700 nz = 700
xoffset = -685.467585 yoffset = -31.7331281 zoffset = 572.489161
bins = 400 dk = 0.001
kx_ny = 0.628318531 ky_ny = 0.628318531 kz_ny = 0.628318531
############################
A(data) = 8.10742132 (not used)
A(ran) = 8.11034377 (used)
Ngal = 481529
weighted Ngal = 0
Nran = 23820508
weighted Nran = 0
SN(data) = 3484.43123
SN(ran) = 70.6440356
SN(data+ran) = 3555.07527
############################
13 columns: k_central k_mean P_0(k) sigma^{lin}_{P_0(k)} P^img_1(k) sigma^{lin}_{P_1(k)} P_2(k) sigma^{lin}_{P_2(k)} P^img_3(k) sigma^{lin}_{P_3(k)} P_4(k) sigma^{lin}_{P_4(k)} N_modes
### header ###
0.00050000 0 0 0 0 0 0 0 0 0 0 0 0
0.00150000 0.00179520 6789.54957879 0 -11586.19141348 0 -15326.64418371 0 7555.37799720 0 4037.72254697 0 3
0.00250000 0.00253879 8919.06766651 0 -5244.42879500 0 -6797.82060543 0 -1582.78883283 0 -16338.10105590 0 6
0.00350000 0.00331552 23030.10345304 0 -20345.95047050 0 -38632.44852474 0 31146.11754511 0 26411.25928291 0 7
0.00450000 0.00420575 38823.00323487 0 -32935.29451255 0 -50211.22148059 0 4263.13293562 0 -25690.67238371 0 24
0.00550000 0.00557378 62015.42696975 0 -22689.07584863 0 -50029.52463032 0 -18693.95960756 0 -20966.66499984 0 45
0.00650000 0.00659388 63984.75066199 0 -4104.21185750 0 -51324.54374110 0 -4762.71623144 0 29916.86804374 0 40
0.00750000 0.00754703 68738.09970664 0 -15732.99850456 0 -40011.83875065 0 -50530.76877486 0 -17823.56415357 0 57
0.00850000 0.00846663 83759.92278810 0 1082.52126733 0 -14392.47213877 0 -43035.02631913 0 13788.91971290 0 75
0.00950000 0.00948925 83908.95628015 0 6446.81683636 0 -4325.79122177 0 -42803.50400717 0 -13310.59528074 0 112
0.01050000 0.01054430 70353.10900469 0 13768.43591199 0 14417.05269986 0 -28921.35531930 0 24090.61072417 0 105
0.01150000 0.01145670 80504.21639842 0 5516.17686303 0 15386.54546098 0 2351.26353686 0 -11250.36780173 0 144
0.01250000 0.01249090 63445.19627358 0 -4447.80824127 0 17581.19096329 0 10176.04226923 0 -15565.58495330 0 169
0.01350000 0.01339930 65525.57538376 0 4946.33966623 0 8584.84954186 0 17278.03070975 0 -35096.39087066 0 180
0.01450000 0.01448870 66837.64587477 0 6830.41752970 0 3611.68163259 0 -8975.86869283 0 -49691.26510711 0 267
0.01550000 0.01550050 58140.77762271 0 -1995.91941646 0 -4905.99211459 0 -10185.66411949 0 -33679.02257062 0 238
0.01650000 0.01653350 61232.05998883 0 -5278.38761522 0 -8866.39661735 0 -20898.12730921 0 -23742.71827837 0 315
0.01750000 0.01747870 69350.62071561 0 -8243.61156328 0 -8310.63234541 0 -2256.99376336 0 -14360.03022705 0 297
0.01850000 0.01844180 79956.24704315 0 -13190.34983321 0 4138.59142606 0 3284.28406003 0 -30781.50588883 0 388
0.01950000 0.01947590 84271.79636446 0 957.26891452 0 2523.57105569 0 -3214.53948600 0 -23494.47675593 0 399
0.02050000 0.02045430 78896.51483475 0 5261.98950216 0 10492.07963653 0 677.75250340 0 -4322.58024758 0 462
0.02150000 0.02154770 76963.39764467 0 4140.77267405 0 11819.81746715 0 2877.50899084 0 -1576.15651026 0 571
0.02250000 0.02255340 78051.69645109 0 1651.45939135 0 24223.25717550 0 3419.37749514 0 -426.77390227 0 510
0.02350000 0.02348930 73370.98185726 0 -2314.81344356 0 20370.64175485 0 -2636.11016515 0 -3003.97708492 0 555
0.02450000 0.02439640 75118.41616013 0 3262.43836316 0 27084.45663188 0 -5880.66672373 0 8890.64500871 0 592
0.02550000 0.02547300 72644.30517941 0 5615.30738713 0 24972.41067273 0 -9341.17790558 0 2171.69257295 0 837
0.02650000 0.02652900 71163.82462791 0 3295.57783135 0 33533.08932951 0 -1477.42458985 0 13920.01603875 0 723
0.02750000 0.02749970 67765.06380158 0 1702.32565157 0 29815.00265541 0 7571.52144679 0 10394.82033532 0 826
0.02850000 0.02848090 66000.24594873 0 3072.96874087 0 34047.62026383 0 10830.44988298 0 9315.89978801 0 831
0.02950000 0.02946900 63961.94167287 0 2926.00577355 0 26051.40872630 0 16000.06297918 0 4792.62258078 0 996
0.03050000 0.03053250 59587.04469052 0 4376.97857941 0 21365.82230955 0 6498.50244861 0 9008.16666433 0 1041
0.03150000 0.03150510 54094.83941073 0 5046.89852024 0 15890.44696348 0 6693.15391892 0 10284.72820965 0 1036
0.03250000 0.03246190 52524.34085845 0 530.90800996 0 15015.17968657 0 3520.93285838 0 2572.35571884 0 1059
0.03350000 0.03345080 48471.20563534 0 1301.30819129 0 11596.37795231 0 -7188.66259921 0 2908.52257266 0 1302
0.03450000 0.03451200 49788.81228876 0 643.06623144 0 7956.88263977 0 -1149.88307707 0 -11210.95032538 0 1339
0.03550000 0.03553350 46222.30574142 0 -54.13259604 0 9130.29440708 0 -3533.80997214 0 -10317.31406159 0 1365
0.03650000 0.03647120 49394.19463222 0 1272.78588255 0 7143.33250140 0 -1945.42961529 0 -14824.07136020 0 1308
0.03750000 0.03744890 46772.15739192 0 152.12709961 0 12698.40644151 0 1101.94766123 0 -11986.45595567 0 1579
0.03850000 0.03847530 48075.81291607 0 1154.97634648 0 11624.16948761 0 806.24129676 0 -11095.79814726 0 1662
0.03950000 0.03950240 47078.97151264 0 -639.71353149 0 11798.11571051 0 2303.67468479 0 -6256.19569228 0 1683
0.04050000 0.04050350 49278.04594487 0 -95.48042150 0 19293.41527324 0 603.49817147 0 -3683.24206790 0 1822
0.04150000 0.04152450 49854.36045169 0 2121.08097621 0 18798.15018410 0 909.38664584 0 4798.63485315 0 1887
0.04250000 0.04250150 46325.83197848 0 3969.19592866 0 21690.79504298 0 2780.49328078 0 9246.40987745 0 1920
0.04350000 0.04349210 43062.26423818 0 2704.21603511 0 18108.34434790 0 3536.94344007 0 15743.07432014 0 2005
0.04450000 0.04448520 41285.70972103 0 2223.23424499 0 21235.27959994 0 8332.47804227 0 10282.34765981 0 2151
0.04550000 0.04548030 39615.56024539 0 2105.17004544 0 17881.91530536 0 2368.50314661 0 9659.72869061 0 2274
0.04650000 0.04648670 36759.01116542 0 1188.17117629 0 16378.29359499 0 208.77532785 0 10482.11454419 0 2311
0.04750000 0.04749250 36878.70299671 0 -356.58643525 0 16787.30527379 0 801.94302027 0 9718.09091473 0 2568
0.04850000 0.04851840 38717.15180960 0 -1714.63807677 0 17644.19249151 0 840.07610694 0 3650.26868459 0 2493
0.04950000 0.04949480 39313.83939408 0 -534.45115390 0 17096.33385948 0 60.78407373 0 4665.37942396 0 2644
0.05050000 0.05050630 39358.23941660 0 790.70682504 0 16930.35971045 0 -2726.96966261 0 525.29766298 0 2829
0.05150000 0.05149060 39244.08374772 0 2241.20462817 0 16906.88638183 0 -985.23982148 0 3217.14148233 0 2784
0.05250000 0.05249300 37389.35861735 0 494.17557238 0 16643.47577440 0 1797.86874243 0 -1115.16026643 0 3055
0.05350000 0.05348950 35222.28320384 0 2914.08087972 0 14170.25057966 0 865.51366598 0 -3932.76798001 0 3009
0.05450000 0.05448610 33555.45542564 0 2629.27854074 0 13299.41223267 0 822.31831240 0 -5278.89694216 0 3336
0.05550000 0.05550870 30904.40869432 0 846.10055888 0 12643.26626392 0 -299.59385771 0 -5166.44641130 0 3349
0.05650000 0.05647670 31465.88628587 0 -34.22068070 0 11209.40019990 0 139.50464932 0 -4409.85231180 0 3324
0.05750000 0.05747970 31938.78527887 0 -1678.60873181 0 12014.46893746 0 1742.49604601 0 -5873.65794212 0 3639
0.05850000 0.05849280 33176.22830061 0 -1377.66294324 0 10924.63107789 0 2607.47713317 0 -3690.98162295 0 3846
0.05950000 0.05951020 34562.15119816 0 113.98847678 0 12182.21465847 0 628.67774534 0 -2423.41080538 0 3787
0.06050000 0.06049470 34633.45696999 0 32.79744407 0 12410.52599623 0 258.90860016 0 -1203.99352845 0 3930
0.06150000 0.06148310 34299.07276047 0 1220.86775148 0 12711.69323130 0 1976.76429452 0 2614.38626385 0 4083
0.06250000 0.06249100 32437.37206546 0 1089.80021367 0 11861.11723873 0 1284.33431734 0 2861.96344680 0 4303
0.06350000 0.06350600 32278.37348106 0 801.86329953 0 12052.88990459 0 2561.64878074 0 1067.10084056 0 4470
0.06450000 0.06451750 31603.18311362 0 470.09990929 0 10708.92004577 0 -317.43801639 0 1005.50992652 0 4479
0.06550000 0.06550280 30654.72776966 0 66.31159972 0 11112.96025073 0 -756.99381043 0 20.21540776 0 4636
0.06650000 0.06648880 31322.05678648 0 138.57125234 0 11703.77950305 0 -2333.30422601 0 -1133.19708356 0 4653
0.06750000 0.06749660 30930.20721114 0 939.59526965 0 12981.19361738 0 -841.84103552 0 -1498.31806678 0 5220
0.06850000 0.06852730 30367.40094061 0 218.87218085 0 12924.06042132 0 -980.29381398 0 -1595.01267943 0 5029
0.06950000 0.06949320 30234.64376604 0 384.06351652 0 12144.90092383 0 1288.96254911 0 -1627.85319484 0 5040
0.07050000 0.07048030 29815.55627165 0 636.79486667 0 13662.36304022 0 187.15772087 0 -3938.99062656 0 5475
0.07150000 0.07148790 29118.22125457 0 1345.51998429 0 13529.49514240 0 1890.75447533 0 -1648.20412785 0 5509
0.07250000 0.07249820 28557.96161875 0 1230.73319289 0 12907.34121084 0 2052.87545533 0 437.16306465 0 5916
0.07350000 0.07351270 27203.37340044 0 408.69279585 0 11312.04065097 0 2089.83487557 0 900.62622245 0 5721
0.07450000 0.07449140 27400.68222870 0 -228.23715318 0 11431.62175901 0 2480.23397635 0 2343.66792204 0 6028
0.07550000 0.07549160 27020.79076418 0 161.83974294 0 11523.63277825 0 614.06006212 0 1514.55009497 0 6183
0.07650000 0.07648840 26989.34536169 0 1067.41308012 0 11166.32885636 0 692.13656058 0 4059.70111173 0 6330
0.07750000 0.07749960 26048.30847535 0 869.35354823 0 11128.35078223 0 -684.77789350 0 4780.18836001 0 6583
0.07850000 0.07848650 25595.00749728 0 670.14360179 0 12163.61315277 0 137.25807461 0 5245.64675073 0 6549
0.07950000 0.07947320 24791.71033169 0 1008.70872116 0 12034.06695239 0 522.59380126 0 3724.96258781 0 6828
0.08050000 0.08048110 24224.25368473 0 1307.59727178 0 11811.51322354 0 1392.92060684 0 3756.85088329 0 7147
0.08150000 0.08149960 22797.69535510 0 526.05390276 0 10573.10690955 0 864.42414922 0 2168.34873086 0 7386
0.08250000 0.08250610 22453.01388349 0 -62.60613550 0 9259.41985911 0 1747.45644753 0 816.45662364 0 7227
0.08350000 0.08350160 22475.37997963 0 -285.52646903 0 9188.99987327 0 -322.02085163 0 -873.18235815 0 7798
0.08450000 0.08449610 22375.50760976 0 793.69413828 0 8495.93877357 0 292.75780437 0 -577.86906122 0 7371
0.08550000 0.08548940 21530.91067260 0 631.89425570 0 8489.02964288 0 -17.29773945 0 884.84926681 0 8256
0.08650000 0.08650700 21439.01037660 0 239.48220627 0 8974.16355481 0 252.28624269 0 -156.91809456 0 8037
0.08750000 0.08749060 21432.92059795 0 107.65366758 0 9596.90431959 0 -239.58296443 0 496.70338413 0 8155
0.08850000 0.08849210 21403.68966043 0 308.23359277 0 10244.14813919 0 348.68633149 0 836.75219503 0 8718
0.08950000 0.08949900 21406.01484864 0 -248.99776222 0 9549.21581659 0 303.73712166 0 1844.82647198 0 8571
0.09050000 0.09049190 21625.13615680 0 -100.29090374 0 9932.06359185 0 383.74131187 0 1717.58331517 0 8932
0.09150000 0.09150830 21259.19582155 0 534.46111900 0 9270.20430349 0 180.40138827 0 1284.95436753 0 9285
0.09250000 0.09250820 20946.51336867 0 523.22270931 0 9097.96321861 0 1007.11652085 0 837.72877408 0 9204
0.09350000 0.09350330 20051.53735358 0 685.19199845 0 7987.54190720 0 788.27755698 0 395.01847469 0 9349
0.09450000 0.09448040 19639.86831682 0 714.40964918 0 7658.95959588 0 806.14939647 0 73.34285815 0 9564
0.09550000 0.09549270 18795.82499589 0 383.25302234 0 7359.41999256 0 434.50570670 0 -660.82845492 0 10155
0.09650000 0.09649430 18952.16622233 0 463.11770126 0 7711.11024577 0 -218.23552218 0 27.35351412 0 9913
0.09750000 0.09749140 18022.31238406 0 374.72068884 0 7226.05384012 0 -88.50651771 0 106.01042385 0 10476
0.09850000 0.09850240 17804.63047813 0 386.31562739 0 7888.07921335 0 1062.10057867 0 -291.17335469 0 10575
0.09950000 0.09950330 17317.11601636 0 462.33599513 0 7296.68420014 0 796.29392014 0 596.78834263 0 10882
0.10050000 0.10051200 17026.35676663 0 628.10419892 0 7659.39141655 0 1320.14221580 0 899.85337417 0 10875
0.10150000 0.10150300 16761.39603371 0 315.87681859 0 7337.69609127 0 821.46685062 0 2392.20899404 0 11118
0.10250000 0.10250800 16366.00331444 0 -115.10124542 0 7076.09027278 0 802.48667142 0 3086.17802438 0 11575
0.10350000 0.10349800 16525.77696157 0 149.57603598 0 7311.37717517 0 559.34284733 0 3084.00784871 0 11364
0.10450000 0.10450100 16578.59195096 0 122.56842128 0 6941.92691295 0 -63.89340398 0 2748.93715505 0 12093
0.10550000 0.10551000 16063.06450740 0 455.69149300 0 7096.56300137 0 -107.16593167 0 2768.91162902 0 12067
0.10650000 0.10649700 15766.76909526 0 433.23349657 0 6548.46077819 0 117.98115711 0 2169.78813309 0 12054
0.10750000 0.10749900 15715.06133835 0 -1.66755855 0 6110.68319951 0 694.75959433 0 2168.32658621 0 12807
0.10850000 0.10850100 15541.55800844 0 -148.75336224 0 6178.11365766 0 821.08042648 0 1013.41335198 0 12736
0.10950000 0.10950300 15516.97744735 0 319.71670084 0 5596.11904822 0 548.88171484 0 676.81135579 0 12933
0.11050000 0.11050200 15082.27797497 0 560.17216446 0 5552.25049728 0 166.95626424 0 948.22171791 0 13428
0.11150000 0.11150900 14717.33414894 0 325.08013498 0 5253.95099435 0 -271.45908035 0 546.52441689 0 13453
0.11250000 0.11250000 14731.61744796 0 100.52596920 0 5292.61555261 0 48.20956660 0 376.59634066 0 13668
0.11350000 0.11349100 14474.62878892 0 239.86973764 0 5695.54852509 0 -580.40905253 0 331.10458691 0 13791
0.11450000 0.11448600 14501.97743122 0 145.40509122 0 5585.47854407 0 -410.44443763 0 297.77024581 0 14205
0.11550000 0.11549300 14492.89812487 0 -18.80080754 0 5545.20849870 0 132.08619169 0 422.99823951 0 14776
0.11650000 0.11649800 14484.59388126 0 98.08430013 0 5176.01289995 0 492.28995546 0 -510.11307672 0 14553
0.11750000 0.11747300 14397.23323844 0 157.50824948 0 4913.04518550 0 360.68873159 0 -488.59512067 0 14568
0.11850000 0.11849100 14268.46210080 0 361.82918105 0 4887.49025982 0 162.85064620 0 -833.63865729 0 16015
0.11950000 0.11950300 13768.65735848 0 331.18209319 0 4992.99844302 0 14.69552167 0 -192.82675118 0 15270
0.12050000 0.12050700 13525.95199846 0 517.71976387 0 5212.79516299 0 -237.98190626 0 -520.38487245 0 15999
0.12150000 0.12150000 13289.00424734 0 -71.32060875 0 5766.83215227 0 -254.95467297 0 8.84252469 0 15670
0.12250000 0.12250700 13421.53997542 0 -109.35935922 0 5563.90965532 0 116.34023857 0 -228.27037016 0 16887
0.12350000 0.12352200 13744.74113687 0 -123.81295059 0 5523.10813836 0 247.57164678 0 15.62958299 0 16407
0.12450000 0.12449800 13732.00796333 0 -41.49807691 0 5135.25567229 0 579.14016410 0 518.42617819 0 16306
0.12550000 0.12549900 13644.75804376 0 17.63035209 0 5351.98535829 0 784.97136079 0 1089.30306629 0 17523
0.12650000 0.12650100 13604.67622792 0 92.54957712 0 4991.29330500 0 974.57495821 0 1415.74066829 0 17154
0.12750000 0.12750600 13635.56801416 0 250.85237663 0 4811.73341341 0 1045.98148820 0 1598.77726986 0 18007
0.12850000 0.12850300 13189.46404722 0 248.33674443 0 4178.68431423 0 974.29150670 0 1766.26832740 0 17496
0.12950000 0.12949900 12966.35670212 0 318.01599174 0 3913.12567578 0 -42.91666317 0 1584.78185129 0 18405
0.13050000 0.13049000 12793.96060470 0 196.25806464 0 3965.16560243 0 -281.97668169 0 1926.59559077 0 18100
0.13150000 0.13148800 12398.78933192 0 304.45903724 0 4271.51468551 0 -417.95036663 0 1566.24677955 0 19059
0.13250000 0.13249300 12387.38483736 0 112.30659064 0 3851.29781399 0 40.13972410 0 1665.13371250 0 18957
0.13350000 0.13349100 12256.28851150 0 -87.83221313 0 3341.87122141 0 333.49842354 0 823.79093160 0 19468
0.13450000 0.13450700 12338.44516166 0 41.73701768 0 3538.88109691 0 145.78819365 0 453.89666915 0 19953
0.13550000 0.13551000 12215.54235617 0 241.53169359 0 3707.66761645 0 42.76375436 0 373.64556610 0 19956
0.13650000 0.13649900 11806.86284712 0 628.34114667 0 3550.76170144 0 -233.80763980 0 416.10239561 0 19723
0.13750000 0.13749600 11607.11810739 0 245.42583023 0 3480.57423442 0 286.74996092 0 898.55791217 0 20946
0.13850000 0.13851100 11380.24617185 0 -44.05589467 0 3602.50267532 0 62.43230000 0 132.04743855 0 20955
0.13950000 0.13949800 11404.93745620 0 189.22160222 0 3755.43362571 0 61.01293868 0 -22.89302807 0 20506
0.14050000 0.14048300 11227.55881260 0 175.53177981 0 3929.96668183 0 -246.50206021 0 -352.92371020 0 21447
0.14150000 0.14148400 10961.44655791 0 186.33615437 0 3663.66619762 0 26.42842139 0 322.83356027 0 21771
0.14250000 0.14249400 10903.73760096 0 176.46739126 0 3939.04598818 0 -132.47261583 0 54.83103829 0 22470
0.14350000 0.14350900 10809.93286509 0 281.19054663 0 4001.95893780 0 254.16964514 0 271.35942942 0 22519
0.14450000 0.14449900 10657.77697744 0 213.69919070 0 3961.19063782 0 295.03095265 0 887.60073953 0 22218
0.14550000 0.14550500 10539.74599487 0 104.22921896 0 3977.11264091 0 117.65563076 0 1105.99348872 0 23559
0.14650000 0.14650700 10474.03174707 0 77.78330330 0 4175.80550978 0 351.05359454 0 1062.00424945 0 23044
0.14750000 0.14750500 10413.34433474 0 191.08396726 0 4018.58956968 0 286.48311789 0 1413.54834797 0 23649
0.14850000 0.14849900 10176.18620945 0 89.80275478 0 3784.66456324 0 407.49698477 0 1290.01441997 0 23640
0.14950000 0.14949500 10276.36860441 0 -75.49576099 0 3694.64656246 0 395.80793145 0 1138.81075225 0 24457
0.15050000 0.15050000 10212.74702600 0 1.33005195 0 3540.02154637 0 90.12296641 0 745.90709159 0 24591
0.15150000 0.15149900 10078.30685805 0 173.66941478 0 2994.32201768 0 1.07741139 0 423.50313752 0 25020
0.15250000 0.15250500 10024.62822733 0 125.49815842 0 3125.04188449 0 -252.73135015 0 399.89361931 0 25297
0.15350000 0.15350100 9852.32070850 0 155.77985957 0 2932.88168726 0 -183.11189339 0 272.94720080 0 25452
0.15450000 0.15450400 9786.81683488 0 207.71017020 0 3175.95243401 0 -137.78954621 0 71.76892718 0 26061
0.15550000 0.15549900 9740.56773411 0 27.79474627 0 2837.95864659 0 69.48625669 0 309.67188776 0 26128
0.15650000 0.15649500 9673.44730106 0 -70.89742449 0 3026.45390430 0 284.52553086 0 203.14062175 0 26331
0.15750000 0.15749700 9744.54269872 0 -33.44816460 0 2801.59713189 0 511.81710751 0 325.39348177 0 27345
0.15850000 0.15849900 9735.67376654 0 160.30622596 0 2975.87552453 0 409.57747460 0 15.83486389 0 26980
0.15950000 0.15949700 9381.53652954 0 338.86850107 0 2771.97866300 0 31.80326002 0 382.54107186 0 27777
0.16050000 0.16050000 9248.04858153 0 373.69871326 0 2506.94042381 0 228.98896404 0 650.51569158 0 28224
0.16150000 0.16150500 8909.45688857 0 90.58800406 0 2473.70130471 0 233.92057751 0 688.00215449 0 28075
0.16250000 0.16249700 8989.90840070 0 3.24251925 0 2421.58387179 0 373.89026448 0 821.76248169 0 28590
0.16350000 0.16349900 8853.82952868 0 92.02917786 0 2215.78257038 0 222.77074642 0 554.51088478 0 29163
0.16450000 0.16449100 8944.36792873 0 59.24114526 0 2177.66055603 0 59.70485423 0 895.33697288 0 28996
0.16550000 0.16550500 8821.88587158 0 56.04666883 0 2050.67206269 0 -58.10379606 0 869.38455074 0 30777
0.16650000 0.16650700 8796.09842708 0 97.18810616 0 2140.56826789 0 -116.56389953 0 881.25961911 0 29211
0.16750000 0.16749900 8752.22987615 0 241.60809264 0 2342.29495376 0 -209.72090439 0 658.45897741 0 30922
0.16850000 0.16850800 8627.97624703 0 148.98477383 0 2459.77232009 0 -149.31251464 0 770.63159291 0 30867
0.16950000 0.16949900 8488.76390709 0 83.05749450 0 2612.45967934 0 -141.25739834 0 649.49703770 0 30852
0.17050000 0.17049200 8430.11380252 0 211.83682566 0 2779.97288152 0 -249.74071521 0 587.63817340 0 31257
0.17150000 0.17149500 8330.72861495 0 154.03596841 0 2824.37290404 0 143.75310035 0 497.35332960 0 32608
0.17250000 0.17250900 8251.07431021 0 44.30325040 0 2800.93279240 0 71.52157144 0 797.04683823 0 32361
0.17350000 0.17350400 8368.39666398 0 -10.15900196 0 2885.49213704 0 136.12094686 0 493.23442477 0 32508
0.17450000 0.17449800 8250.64248954 0 42.80427907 0 2866.15985791 0 145.93988450 0 398.45975325 0 32791
0.17550000 0.17549800 8196.60954442 0 156.30579500 0 2888.76954518 0 215.20391964 0 623.16151312 0 33633
0.17650000 0.17650100 8013.97154654 0 189.46187167 0 2621.68292591 0 37.62254178 0 487.51003284 0 33984
0.17750000 0.17750300 7895.95163630 0 97.60752582 0 2712.26561525 0 203.13619282 0 678.54528186 0 34069
0.17850000 0.17849800 7958.32204200 0 33.36301842 0 2335.44118470 0 213.47885143 0 583.67317389 0 34536
