### header ###
fiducial parameters:
Omega_m = 0.31
Omega_nu = 0
Omega_de = 0.69
Omega_k = 0
H_0 = 100
w_de = -1
zeff = 0
beta = 0
fgrowth = 0
b_1 = 2
gamma = 0.55
Lx = 3500 Ly = 3500 Lz = 3500
nx = 700 ny = 700 nz = 700
xoffset = -685.467585 yoffset = -31.7331281 zoffset = 572.489161
bins = 400 dk = 0.001
kx_ny = 0.628318531 ky_ny = 0.628318531 kz_ny = 0.628318531
############################
A(data) = 8.05807763 (not used)
A(ran) = 8.052633 (used)
Ngal = 478404
weighted Ngal = 0
Nran = 23820508
weighted Nran = 0
SN(data) = 3493.24174
SN(ran) = 70.1413539
SN(data+ran) = 3563.3831
############################
13 columns: k_central k_mean P_0(k) sigma^{lin}_{P_0(k)} P^img_1(k) sigma^{lin}_{P_1(k)} P_2(k) sigma^{lin}_{P_2(k)} P^img_3(k) sigma^{lin}_{P_3(k)} P_4(k) sigma^{lin}_{P_4(k)} N_modes
### header ###
0.00050000 0 0 0 0 0 0 0 0 0 0 0 0
0.00150000 0.00179520 18467.97345801 0 -25448.40991668 0 3027.91545118 0 -28836.43058794 0 33853.85457951 0 3
0.00250000 0.00253879 22426.21885743 0 -5859.61823425 0 -4700.32368109 0 13607.44430912 0 -3052.26349346 0 6
0.00350000 0.00331552 40744.93737689 0 -17977.46946855 0 -11323.77731528 0 18680.00847829 0 15690.48077726 0 7
0.00450000 0.00420575 50212.32871307 0 -32895.21269671 0 -34929.42021239 0 6952.87744219 0 7414.40515761 0 24
0.00550000 0.00557378 79766.57811900 0 -13100.11038593 0 -37395.22694950 0 -6564.48243221 0 -8145.76542886 0 45
0.00650000 0.00659388 92783.09245256 0 -15830.10279322 0 -9293.14616051 0 -47905.85273010 0 -6441.72356694 0 40
0.00750000 0.00754703 92963.90351684 0 7514.29967212 0 -32484.76161568 0 -25709.49533590 0 25951.09346345 0 57
0.00850000 0.00846663 76622.25931700 0 13362.96737713 0 -12504.53003394 0 -24346.38142748 0 6093.65396394 0 75
0.00950000 0.00948925 84431.12711860 0 -229.61565762 0 -1927.64746163 0 -36251.78796548 0 6284.04258920 0 112
0.01050000 0.01054430 81884.49241031 0 -883.18509639 0 23632.54864642 0 -19203.06510272 0 -8852.04688439 0 105
0.01150000 0.01145670 98989.46268315 0 -8692.79363652 0 31462.89675817 0 -11549.54201833 0 -26006.34436429 0 144
0.01250000 0.01249090 97664.21612561 0 -2445.95405871 0 34281.02487101 0 -18687.20548942 0 -46502.32483609 0 169
0.01350000 0.01339930 102862.56190471 0 15922.11381246 0 44495.46596271 0 -29186.09460571 0 -63836.71367917 0 180
0.01450000 0.01448870 90629.96816832 0 11041.25587521 0 52713.89905935 0 -19917.67294652 0 -54226.04645983 0 267
0.01550000 0.01550050 71487.35795911 0 6648.58781153 0 34165.42979990 0 291.98163440 0 -29630.64844718 0 238
0.01650000 0.01653350 82304.24424419 0 5299.45824935 0 43975.50958922 0 -1568.43909986 0 -58770.79290489 0 315
0.01750000 0.01747870 66775.75157903 0 -621.64017569 0 31567.30878121 0 24414.69767161 0 -40672.19220283 0 297
0.01850000 0.01844180 75803.23945017 0 -3312.06452300 0 40286.65385264 0 10951.30430838 0 -54174.00653318 0 388
0.01950000 0.01947590 69605.83780268 0 2248.86667694 0 24852.94028793 0 6048.24635986 0 -39443.05342471 0 399
0.02050000 0.02045430 73255.27606290 0 -2329.41784000 0 24192.36538925 0 5399.37490851 0 -41539.26595938 0 462
0.02150000 0.02154770 70829.66186488 0 4480.26122532 0 31320.72810750 0 -11814.83492098 0 -20089.40470446 0 571
0.02250000 0.02255340 71686.99197559 0 5482.42841698 0 37887.28106444 0 -4104.32258075 0 -2408.80640895 0 510
0.02350000 0.02348930 69996.24797578 0 958.69724442 0 37650.66548307 0 13657.15904756 0 -6939.57958009 0 555
0.02450000 0.02439640 70819.91821904 0 -3521.84078902 0 30284.35850447 0 15334.72698083 0 2969.57537171 0 592
0.02550000 0.02547300 72004.76769788 0 -1184.92698512 0 25868.05102731 0 19974.47397284 0 -13655.83036858 0 837
0.02650000 0.02652900 71936.23000726 0 4863.46331497 0 21640.74813480 0 5963.39913478 0 4484.45763642 0 723
0.02750000 0.02749970 61617.70906226 0 4953.21557995 0 13199.76130930 0 11075.64651609 0 5808.25371942 0 826
0.02850000 0.02848090 61053.79555925 0 2650.74777856 0 11538.02680052 0 6690.28618679 0 10408.97076644 0 831
0.02950000 0.02946900 58818.18245512 0 37.85207107 0 12203.58424537 0 4051.57402531 0 1161.01076351 0 996
0.03050000 0.03053250 59722.79139280 0 1132.95349242 0 7064.54183799 0 -1764.57426170 0 1834.14167853 0 1041
0.03150000 0.03150510 59046.93668587 0 -486.13485009 0 11876.06487723 0 -8067.98234700 0 2834.43764730 0 1036
0.03250000 0.03246190 60793.04230977 0 1211.50056468 0 16157.40071486 0 -11171.42212577 0 589.31120168 0 1059
0.03350000 0.03345080 59370.13784733 0 2389.48520214 0 18184.52194266 0 -6929.91344052 0 1575.81326819 0 1302
0.03450000 0.03451200 57443.11043589 0 4124.95032189 0 22059.17128969 0 -4845.52614876 0 -8159.50618396 0 1339
0.03550000 0.03553350 54995.46231148 0 1421.01109490 0 18152.74437043 0 1798.76560074 0 -8762.48284893 0 1365
0.03650000 0.03647120 52121.19751181 0 1006.17648048 0 22381.15449542 0 950.38414295 0 -12056.87594152 0 1308
0.03750000 0.03744890 52427.79018603 0 1645.18138318 0 16242.54689271 0 4581.35155091 0 -17399.16194327 0 1579
0.03850000 0.03847530 49139.86333114 0 829.91946339 0 15893.10432144 0 4994.30497735 0 -12705.38200615 0 1662
0.03950000 0.03950240 49042.42687273 0 1433.04671198 0 12589.01187230 0 898.79153822 0 -14478.83627235 0 1683
0.04050000 0.04050350 46741.59777542 0 861.59295576 0 13103.76425312 0 2959.64349635 0 -10832.96330072 0 1822
0.04150000 0.04152450 46691.44014399 0 2206.42645591 0 13764.78204480 0 -2219.87933057 0 -12380.18782622 0 1887
0.04250000 0.04250150 44359.71926043 0 2596.05049395 0 14087.54031326 0 -2385.18914011 0 -5412.63955365 0 1920
0.04350000 0.04349210 43190.92465258 0 2889.77712674 0 16824.84045493 0 -1145.23270064 0 -4869.97384196 0 2005
0.04450000 0.04448520 41068.24926159 0 1062.84574613 0 14218.08302287 0 937.11506889 0 -755.01518599 0 2151
0.04550000 0.04548030 41362.99454827 0 -1134.71399206 0 18363.33998848 0 5560.18935418 0 -7378.56404217 0 2274
0.04650000 0.04648670 40866.29005690 0 64.58365271 0 16108.68248566 0 5077.12596699 0 -2532.41784322 0 2311
0.04750000 0.04749250 40748.81269057 0 1881.95197710 0 14996.91035062 0 3046.19585946 0 189.98227094 0 2568
0.04850000 0.04851840 39993.79086119 0 -274.58811934 0 14592.32760174 0 2297.93922054 0 5138.34485091 0 2493
0.04950000 0.04949480 40366.59603784 0 -756.22206939 0 13058.25699812 0 2374.70364850 0 1998.58784674 0 2644
0.05050000 0.05050630 40245.13263457 0 446.53357315 0 12212.55282847 0 -1516.67598133 0 2650.34917486 0 2829
0.05150000 0.05149060 41483.23999580 0 56.92570070 0 14827.28233439 0 -2929.30532635 0 -3422.48881842 0 2784
0.05250000 0.05249300 39015.55096346 0 1379.93276982 0 13288.78280084 0 -1778.25965517 0 806.14718200 0 3055
0.05350000 0.05348950 40163.86177041 0 1267.82548103 0 13928.32028237 0 -1840.80721807 0 -2723.37115704 0 3009
0.05450000 0.05448610 38068.97791472 0 837.73763194 0 13899.64296109 0 602.05876925 0 -2476.43616894 0 3336
0.05550000 0.05550870 38496.36965272 0 801.91091053 0 14363.68409424 0 791.20950859 0 -3108.56626516 0 3349
0.05650000 0.05647670 37879.30899057 0 795.10585969 0 14159.95331757 0 1663.05211544 0 -1720.51748124 0 3324
0.05750000 0.05747970 36185.13257007 0 835.15667303 0 17275.70552154 0 -553.38372211 0 326.13422030 0 3639
0.05850000 0.05849280 35707.47247740 0 2137.63410181 0 16350.72350619 0 925.97409565 0 611.79244999 0 3846
0.05950000 0.05951020 35461.33469668 0 925.43930236 0 16762.17109645 0 711.42897934 0 3598.42805979 0 3787
0.06050000 0.06049470 33891.83265364 0 659.53188568 0 16543.38195804 0 2069.01890491 0 3866.82121339 0 3930
0.06150000 0.06148310 34135.09162990 0 27.20204472 0 16827.49781288 0 1639.72272704 0 861.97162927 0 4083
0.06250000 0.06249100 33803.69694808 0 81.54091817 0 14837.46887323 0 3234.91256367 0 2810.66536591 0 4303
0.06350000 0.06350600 33235.68668488 0 56.03681446 0 11384.45365528 0 1619.41608333 0 -137.92905750 0 4470
0.06450000 0.06451750 32758.69093170 0 581.72223025 0 10456.37138899 0 2724.25694303 0 -177.59233946 0 4479
0.06550000 0.06550280 32596.48137310 0 401.48028346 0 10128.01052416 0 1067.79618256 0 -3012.69100456 0 4636
0.06650000 0.06648880 30305.17447513 0 1782.68858510 0 8637.48737405 0 -791.50956859 0 -1175.33835182 0 4653
0.06750000 0.06749660 29780.01410898 0 2011.26565866 0 9014.67719132 0 -1514.69403519 0 -2381.03701830 0 5220
0.06850000 0.06852730 27949.09447697 0 781.62308976 0 9988.85354584 0 -1119.76635356 0 -2807.80870611 0 5029
0.06950000 0.06949320 28082.51599104 0 1123.42022075 0 12185.42563266 0 -377.81983255 0 -1431.86197322 0 5040
0.07050000 0.07048030 27554.36609719 0 493.35068418 0 12594.43731147 0 -694.94671661 0 -4136.93057734 0 5475
0.07150000 0.07148790 27121.21675028 0 10.37678352 0 13762.12468684 0 -42.44343200 0 -1882.64953356 0 5509
0.07250000 0.07249820 27375.54805137 0 -321.21700085 0 12547.82282398 0 2279.78060783 0 -1545.14292844 0 5916
0.07350000 0.07351270 27727.31581085 0 -241.83950422 0 11746.18650711 0 1470.49331451 0 -1054.20822554 0 5721
0.07450000 0.07449140 27145.57586488 0 990.99521592 0 11653.84331812 0 1487.63327333 0 -355.31533236 0 6028
0.07550000 0.07549160 26598.82446534 0 984.20455911 0 11508.13152351 0 871.47500566 0 -1471.31266655 0 6183
0.07650000 0.07648840 25290.96145776 0 1012.87080806 0 11092.58717306 0 310.24432695 0 -151.22913407 0 6330
0.07750000 0.07749960 24807.21158643 0 992.76235896 0 10526.81351948 0 71.57959042 0 -698.42785554 0 6583
0.07850000 0.07848650 24017.97627336 0 304.74248875 0 10751.68136422 0 565.28425683 0 436.59173269 0 6549
0.07950000 0.07947320 23995.38873073 0 234.84179494 0 10323.06059817 0 1317.01982020 0 -965.92857976 0 6828
0.08050000 0.08048110 23982.43411069 0 -367.28672995 0 10045.03452197 0 968.06332399 0 393.35208981 0 7147
0.08150000 0.08149960 24216.94595035 0 -568.13870216 0 9651.11442190 0 1321.58161803 0 -948.94695519 0 7386
0.08250000 0.08250610 24268.65370725 0 92.88163614 0 9453.81666596 0 185.03626344 0 751.56947851 0 7227
0.08350000 0.08350160 24732.47339391 0 305.69138699 0 9987.49164989 0 -467.13474070 0 127.14682759 0 7798
0.08450000 0.08449610 23771.83849264 0 433.04194535 0 9140.03805292 0 -803.36470677 0 257.95638023 0 7371
0.08550000 0.08548940 23845.58017593 0 581.91156701 0 11472.25719110 0 -251.62190320 0 2076.02768652 0 8256
0.08650000 0.08650700 23299.60383913 0 756.21431877 0 10466.77937431 0 -77.02219169 0 1092.36677856 0 8037
0.08750000 0.08749060 22971.64157800 0 964.18358137 0 11478.12552325 0 942.06661254 0 1529.12127443 0 8155
0.08850000 0.08849210 22227.91351993 0 467.00187281 0 10695.47824344 0 1101.55237923 0 1228.97269325 0 8718
0.08950000 0.08949900 21659.57108699 0 646.54294144 0 9882.11633459 0 1591.75741593 0 1921.75698482 0 8571
0.09050000 0.09049190 20999.21763480 0 221.50296523 0 8261.80339295 0 1289.47187605 0 843.32804874 0 8932
0.09150000 0.09150830 20789.39707949 0 403.59177580 0 8559.74858150 0 1338.46691338 0 -398.91925473 0 9285
0.09250000 0.09250820 20252.50004903 0 422.07591485 0 7485.35661505 0 1035.24908375 0 -321.57574417 0 9204
0.09350000 0.09350330 19014.39268781 0 833.40170954 0 6498.44708699 0 1012.88298762 0 991.74370508 0 9349
0.09450000 0.09448040 19066.21116796 0 249.07637573 0 6385.06648084 0 1157.22402842 0 1547.89993732 0 9564
0.09550000 0.09549270 18622.98600547 0 -27.15000479 0 6147.37688396 0 2001.78774861 0 1431.98376880 0 10155
0.09650000 0.09649430 18867.57366072 0 -46.44485947 0 5712.34524184 0 861.35932971 0 2271.86389559 0 9913
0.09750000 0.09749140 18320.82226117 0 352.39334584 0 5381.29380208 0 139.88775176 0 2969.86325216 0 10476
0.09850000 0.09850240 18509.60539933 0 388.97741427 0 5330.66006069 0 503.19287371 0 3554.01696494 0 10575
0.09950000 0.09950330 17780.16064028 0 104.41335172 0 5075.97444521 0 -348.47152839 0 2575.40060817 0 10882
0.10050000 0.10051200 17929.74774858 0 420.79595411 0 4682.49723813 0 -229.81717394 0 1122.11368642 0 10875
0.10150000 0.10150300 17160.22117368 0 387.68859567 0 5000.07365858 0 -514.80331351 0 1079.38226325 0 11118
0.10250000 0.10250800 17227.65163183 0 520.30183002 0 4408.50148817 0 -242.56141980 0 636.46601862 0 11575
0.10350000 0.10349800 16603.06178881 0 390.90289156 0 4425.59715769 0 -87.68871580 0 370.15335485 0 11364
0.10450000 0.10450100 16324.03920338 0 541.71238452 0 4307.92048952 0 162.16305483 0 139.02411042 0 12093
0.10550000 0.10551000 15748.83192905 0 389.63511037 0 4646.51218247 0 163.27693071 0 583.19374222 0 12067
0.10650000 0.10649700 15889.89334724 0 196.10305210 0 5450.29653035 0 86.96381070 0 809.22971723 0 12054
0.10750000 0.10749900 15337.71650853 0 -74.96694676 0 5881.89575179 0 255.13958080 0 827.27649945 0 12807
0.10850000 0.10850100 15924.32827743 0 59.29551038 0 5414.14538982 0 206.38149122 0 1663.50608075 0 12736
0.10950000 0.10950300 15735.65586252 0 25.63553221 0 5942.26206670 0 216.61674829 0 2076.71417066 0 12933
0.11050000 0.11050200 15949.79462451 0 -35.18862334 0 5564.74007968 0 586.39364409 0 1943.92377911 0 13428
0.11150000 0.11150900 15996.85200499 0 -160.27300898 0 5239.82270788 0 524.74847567 0 1787.36110617 0 13453
0.11250000 0.11250000 15646.19147798 0 421.42707662 0 5091.65285715 0 174.30607346 0 1461.69081628 0 13668
0.11350000 0.11349100 15465.82330669 0 684.82661173 0 4919.00209626 0 398.30695517 0 1826.66785928 0 13791
0.11450000 0.11448600 15064.78370175 0 321.12067162 0 4656.59907038 0 329.90323967 0 1938.49833995 0 14205
0.11550000 0.11549300 14887.84795115 0 19.96849492 0 4459.12415724 0 365.73439001 0 1461.56902071 0 14776
0.11650000 0.11649800 14647.24633284 0 137.86483801 0 4559.20690127 0 -152.35297504 0 1410.11592728 0 14553
0.11750000 0.11747300 14524.56497385 0 190.39083972 0 4755.58565426 0 391.24391916 0 871.58240721 0 14568
0.11850000 0.11849100 14362.46613851 0 116.14758012 0 4229.35127260 0 3.50736926 0 646.54183421 0 16015
0.11950000 0.11950300 13947.14323456 0 210.69637621 0 3895.29923282 0 564.78268051 0 102.51544452 0 15270
0.12050000 0.12050700 13980.24948577 0 452.83483320 0 4083.22980197 0 150.45296410 0 -500.66616918 0 15999
0.12150000 0.12150000 13404.48859520 0 592.33283913 0 3134.13226317 0 -445.65443056 0 -81.48998548 0 15670
0.12250000 0.12250700 12952.07340311 0 394.51911285 0 3519.20557571 0 -65.81899199 0 -213.94056738 0 16887
0.12350000 0.12352200 12810.01547568 0 181.88618703 0 3146.94294298 0 181.53851603 0 173.66830755 0 16407
0.12450000 0.12449800 12909.88784555 0 -239.97271026 0 3493.26311866 0 670.79908342 0 282.64987904 0 16306
0.12550000 0.12549900 13059.25350735 0 -167.12013465 0 3330.03490618 0 181.77435655 0 411.85062288 0 17523
0.12650000 0.12650100 13185.81018003 0 45.93198938 0 3053.88005288 0 439.30888120 0 308.31884967 0 17154
0.12750000 0.12750600 13191.34634244 0 -8.29685837 0 3722.54882100 0 -275.58352134 0 1057.19996771 0 18007
0.12850000 0.12850300 13171.41615777 0 96.52841705 0 3743.17656214 0 -3.14571391 0 1780.73985593 0 17496
0.12950000 0.12949900 13120.37274035 0 148.31489818 0 3971.23323643 0 184.82478204 0 1365.28408409 0 18405
0.13050000 0.13049000 13205.85108795 0 193.48776897 0 4164.20171337 0 211.45483046 0 1382.81157428 0 18100
0.13150000 0.13148800 12830.05638361 0 178.24007047 0 4025.65371291 0 -99.46767639 0 1297.74290269 0 19059
0.13250000 0.13249300 12601.08070636 0 447.44261101 0 4141.90205118 0 32.29786077 0 1884.52075646 0 18957
0.13350000 0.13349100 12347.85663775 0 236.50375089 0 3958.50006289 0 150.54154270 0 1592.34424914 0 19468
0.13450000 0.13450700 12200.26254792 0 264.75368044 0 3705.60816403 0 92.06328062 0 974.04791555 0 19953
0.13550000 0.13551000 11923.23298096 0 228.16518307 0 3951.94524660 0 -94.96910154 0 967.08342324 0 19956
0.13650000 0.13649900 11818.48878817 0 130.36998134 0 3884.43728218 0 -397.11668025 0 582.39985653 0 19723
0.13750000 0.13749600 11709.20494221 0 208.47858955 0 4019.84074238 0 -9.84430435 0 621.50509333 0 20946
0.13850000 0.13851100 11523.85422475 0 145.87455779 0 3984.85219596 0 -214.38456760 0 -57.55748755 0 20955
0.13950000 0.13949800 11506.47067479 0 264.81347099 0 4042.04075365 0 225.20444342 0 202.16182824 0 20506
0.14050000 0.14048300 11331.30649615 0 171.68857587 0 3686.43089744 0 162.13537402 0 100.25514013 0 21447
0.14150000 0.14148400 11167.21464234 0 85.30661584 0 3865.76934253 0 444.33350220 0 702.39064059 0 21771
0.14250000 0.14249400 11162.34281942 0 -47.94859190 0 3635.26568446 0 695.34199861 0 502.61932728 0 22470
0.14350000 0.14350900 11187.58772001 0 -188.18301815 0 3376.16221138 0 725.40225326 0 550.09856334 0 22519
0.14450000 0.14449900 11282.14537396 0 215.90922673 0 3293.72875310 0 301.62673655 0 207.99251449 0 22218
0.14550000 0.14550500 10895.57729757 0 426.14167253 0 3235.31116736 0 -283.17360000 0 654.96455169 0 23559
0.14650000 0.14650700 10711.04593214 0 363.74358601 0 3246.35027520 0 -240.73559344 0 1005.02828039 0 23044
0.14750000 0.14750500 10393.04876335 0 28.43494809 0 3192.41698101 0 152.75822213 0 909.92143913 0 23649
0.14850000 0.14849900 10619.06812987 0 -71.53596547 0 3403.03474371 0 222.85600332 0 766.63005472 0 23640
0.14950000 0.14949500 10438.14634233 0 10.30324114 0 3336.74473502 0 117.60359083 0 753.93120539 0 24457
0.15050000 0.15050000 10417.35251632 0 275.29896259 0 3536.56698102 0 137.22817934 0 1133.87249538 0 24591
0.15150000 0.15149900 10236.80718783 0 264.04172995 0 3584.37727959 0 -50.82651057 0 1279.22997560 0 25020
0.15250000 0.15250500 10079.90127283 0 252.71917059 0 3735.14912665 0 173.09033219 0 1823.43474043 0 25297
0.15350000 0.15350100 9978.03588449 0 114.80229265 0 3646.49302182 0 92.45490874 0 1466.28583108 0 25452
0.15450000 0.15450400 9797.78950877 0 118.55138183 0 3497.54810836 0 352.66683226 0 1863.93730462 0 26061
0.15550000 0.15549900 9847.65925976 0 39.27741145 0 3513.75799190 0 410.74560487 0 1422.98196872 0 26128
0.15650000 0.15649500 9732.65102186 0 35.47882897 0 3140.11131857 0 240.46653595 0 1185.19272091 0 26331
0.15750000 0.15749700 9574.77074227 0 124.90136012 0 3082.10340884 0 197.69303794 0 697.71479782 0 27345
0.15850000 0.15849900 9476.70316136 0 210.94439628 0 2797.89897540 0 -253.72785938 0 331.25074160 0 26980
0.15950000 0.15949700 9341.29970115 0 124.63451709 0 2581.36859124 0 -80.66697957 0 384.44108280 0 27777
0.16050000 0.16050000 9218.57405286 0 57.08702447 0 2377.28350019 0 184.58340535 0 -88.64625045 0 28224
0.16150000 0.16150500 9119.81998780 0 142.33141385 0 2158.67151897 0 -49.47856575 0 -484.44964226 0 28075
0.16250000 0.16249700 8970.25502415 0 131.54254054 0 2393.91413207 0 341.02538995 0 -426.27011150 0 28590
0.16350000 0.16349900 8745.38717941 0 213.38252221 0 1893.83258163 0 93.85544711 0 -255.33888264 0 29163
0.16450000 0.16449100 8721.17200503 0 90.39977454 0 2039.11255558 0 172.72494547 0 -306.72443489 0 28996
0.16550000 0.16550500 8641.55091726 0 38.94302724 0 1757.05615315 0 248.23266457 0 -110.06555209 0 30777
0.16650000 0.16650700 8604.97902838 0 67.96536216 0 1868.68733197 0 97.48063698 0 -24.25481330 0 29211
0.16750000 0.16749900 8636.60158807 0 89.50645937 0 1828.01868291 0 -39.32015062 0 372.26373996 0 30922
0.16850000 0.16850800 8531.29270672 0 211.56776817 0 2196.95961819 0 24.67700105 0 556.30460140 0 30867
0.16950000 0.16949900 8459.23401680 0 132.80921450 0 2190.90305652 0 6.66718932 0 642.27345299 0 30852
0.17050000 0.17049200 8314.00940447 0 152.00751851 0 2412.83673518 0 5.89126294 0 1104.65373741 0 31257
0.17150000 0.17149500 8299.92540731 0 157.12736150 0 2445.82119081 0 61.59733598 0 904.34541635 0 32608
0.17250000 0.17250900 8120.77519174 0 57.60709157 0 2534.31121077 0 115.72351007 0 1034.27914810 0 32361
0.17350000 0.17350400 8140.05210925 0 61.61505170 0 2404.44391297 0 294.35664807 0 1038.02934452 0 32508
0.17450000 0.17449800 8052.61396016 0 -5.77514747 0 2278.08654214 0 383.67266345 0 1498.29592213 0 32791
0.17550000 0.17549800 8066.58723408 0 20.49586975 0 1985.10175511 0 499.65748039 0 1295.66130563 0 33633
0.17650000 0.17650100 8007.78211697 0 30.74109190 0 1856.34168979 0 428.17787306 0 1431.30835698 0 33984
0.17750000 0.17750300 7900.74595294 0 216.22700245 0 1718.86770485 0 130.22825559 0 1276.87157041 0 34069
