### header ###
fiducial parameters:
Omega_m = 0.31
Omega_nu = 0
Omega_de = 0.69
Omega_k = 0
H_0 = 100
w_de = -1
zeff = 0
beta = 0
fgrowth = 0
b_1 = 2
gamma = 0.55
Lx = 3500 Ly = 3500 Lz = 3500
nx = 700 ny = 700 nz = 700
xoffset = -685.467585 yoffset = -31.7331281 zoffset = 572.489161
bins = 400 dk = 0.001
kx_ny = 0.628318531 ky_ny = 0.628318531 kz_ny = 0.628318531
############################
A(data) = 8.00752137 (not used)
A(ran) = 8.01009696 (used)
Ngal = 476207
weighted Ngal = 0
Nran = 23820508
weighted Nran = 0
SN(data) = 3482.91095
SN(ran) = 69.7708495
SN(data+ran) = 3552.6818
############################
13 columns: k_central k_mean P_0(k) sigma^{lin}_{P_0(k)} P^img_1(k) sigma^{lin}_{P_1(k)} P_2(k) sigma^{lin}_{P_2(k)} P^img_3(k) sigma^{lin}_{P_3(k)} P_4(k) sigma^{lin}_{P_4(k)} N_modes
### header ###
0.00050000 0 0 0 0 0 0 0 0 0 0 0 0
0.00150000 0.00179520 13940.27839317 0 -35348.72915327 0 -12216.20669566 0 -49675.43168262 0 3545.51341948 0 3
0.00250000 0.00253879 28243.50759390 0 -39104.79390150 0 -15599.68771374 0 -3898.88666607 0 -7298.50006141 0 6
0.00350000 0.00331552 42187.55057751 0 -28445.02390560 0 -25072.06159609 0 53.92543284 0 1393.67352492 0 7
0.00450000 0.00420575 52063.95359249 0 -7750.91525350 0 -30957.11296045 0 -8067.46194774 0 -9645.92150156 0 24
0.00550000 0.00557378 54467.53386413 0 -18044.34631045 0 -44843.91202475 0 -29342.54655540 0 -13368.50353954 0 45
0.00650000 0.00659388 57231.07541561 0 -12397.46065294 0 -56452.02664137 0 -30844.72886354 0 -304.48782528 0 40
0.00750000 0.00754703 66656.17047099 0 -767.89783592 0 -20710.78357328 0 -50168.70375329 0 -5892.14872457 0 57
0.00850000 0.00846663 82112.69302483 0 5803.34867952 0 -17885.56917255 0 -39120.62732599 0 18697.83492125 0 75
0.00950000 0.00948925 65892.06933525 0 4451.93821843 0 -3892.19898187 0 -18479.93156882 0 -672.45328875 0 112
0.01050000 0.01054430 67245.66104433 0 8449.57894955 0 -2085.17342682 0 2820.42008408 0 -129.34689853 0 105
0.01150000 0.01145670 65749.23634509 0 8970.58719390 0 7048.33195446 0 7758.26727718 0 -10117.84612998 0 144
0.01250000 0.01249090 60229.12880676 0 -860.73263612 0 3835.19865371 0 9562.46938940 0 -8790.48475840 0 169
0.01350000 0.01339930 53232.41603061 0 1118.86949525 0 8909.89978156 0 9964.40585264 0 3801.38377371 0 180
0.01450000 0.01448870 61103.62102093 0 -1535.55429515 0 -1962.80209293 0 3720.27899442 0 -17895.64498814 0 267
0.01550000 0.01550050 56936.33012894 0 -809.90845074 0 3274.95009021 0 -18293.80578862 0 12120.87397897 0 238
0.01650000 0.01653350 67863.27532272 0 -6095.82413961 0 -968.05668059 0 -11605.34653542 0 -22676.23195184 0 315
0.01750000 0.01747870 58783.96897143 0 -2105.55757681 0 6076.48078815 0 -23152.12047254 0 -6083.74423323 0 297
0.01850000 0.01844180 70879.26588007 0 7486.04309919 0 13950.13276226 0 -12026.42704827 0 -20283.28111203 0 388
0.01950000 0.01947590 67558.01132747 0 -5577.86078459 0 15755.47532394 0 -2920.02671815 0 -18837.56766046 0 399
0.02050000 0.02045430 68844.72619464 0 -1900.14380678 0 17952.99963070 0 -2528.11070887 0 -24778.31281866 0 462
0.02150000 0.02154770 73876.10131548 0 1110.94171068 0 19366.04972405 0 4017.89201322 0 -19156.22916874 0 571
0.02250000 0.02255340 76975.46647872 0 -6365.21380244 0 17639.54211508 0 8492.57278683 0 -10798.29585171 0 510
0.02350000 0.02348930 74783.81050412 0 -545.01525901 0 14765.49876191 0 9403.37115408 0 -8625.98322856 0 555
0.02450000 0.02439640 79104.34237160 0 1667.63605791 0 16875.10880960 0 3310.82442262 0 -13351.00926632 0 592
0.02550000 0.02547300 72665.67476631 0 5093.26941658 0 13858.45391276 0 -3777.39004583 0 -9087.95383697 0 837
0.02650000 0.02652900 69377.74791141 0 6579.81760208 0 19075.84409056 0 -955.25707310 0 -10352.20295709 0 723
0.02750000 0.02749970 61577.18435343 0 349.25987792 0 11403.38733072 0 -4546.06405171 0 -8613.83688824 0 826
0.02850000 0.02848090 64344.93338834 0 1975.51312182 0 18420.69463104 0 1947.16797028 0 -9131.33520561 0 831
0.02950000 0.02946900 62280.16625616 0 4211.94557799 0 15147.93686114 0 -1494.60883797 0 -17808.72723831 0 996
0.03050000 0.03053250 55768.53203032 0 4937.73646985 0 12707.15357812 0 1178.48289207 0 -13381.01526658 0 1041
0.03150000 0.03150510 52689.20777500 0 3100.89314406 0 12586.02234460 0 5969.59963667 0 -10061.60979223 0 1036
0.03250000 0.03246190 50408.19813911 0 2079.67048139 0 14222.73339930 0 -785.15073245 0 -8675.16649541 0 1059
0.03350000 0.03345080 51772.86217301 0 -429.47001337 0 14374.64569581 0 4015.92113940 0 -4968.36252030 0 1302
0.03450000 0.03451200 49998.18995108 0 -737.91951647 0 15908.93774593 0 -1136.12017732 0 -5325.74394847 0 1339
0.03550000 0.03553350 52851.41733360 0 542.97795125 0 16848.31378354 0 -3940.76219853 0 -920.32942446 0 1365
0.03650000 0.03647120 53341.36770682 0 -1809.27323699 0 16900.79660318 0 -1192.01327300 0 -3540.86304305 0 1308
0.03750000 0.03744890 53215.47537363 0 1245.32651700 0 19662.34513620 0 -2069.86040160 0 -4020.39435862 0 1579
0.03850000 0.03847530 53713.50854398 0 430.77433323 0 22062.05009415 0 2044.43834381 0 -5062.95339122 0 1662
0.03950000 0.03950240 50036.83236470 0 3049.84972665 0 19279.90703696 0 4633.70150265 0 -7299.27512415 0 1683
0.04050000 0.04050350 49274.61352418 0 2710.57154955 0 15929.42154684 0 3362.36609465 0 -5281.65395104 0 1822
0.04150000 0.04152450 45534.27147719 0 933.25636369 0 14690.98201588 0 1257.01889201 0 -7094.56998290 0 1887
0.04250000 0.04250150 46164.50820587 0 1008.65335954 0 13722.81793373 0 3557.19472216 0 -3178.67622591 0 1920
0.04350000 0.04349210 43908.96491706 0 1478.36573746 0 9286.89029699 0 2047.51645011 0 -868.24299405 0 2005
0.04450000 0.04448520 42133.40690915 0 1061.14835874 0 9486.10356513 0 2423.87584302 0 -1282.44094979 0 2151
0.04550000 0.04548030 41500.18065277 0 -603.81594720 0 7718.73907757 0 4164.50066614 0 -2010.66775312 0 2274
0.04650000 0.04648670 42955.19485719 0 455.03822584 0 7864.30693197 0 2290.93043893 0 -4789.74377632 0 2311
0.04750000 0.04749250 41503.94524321 0 974.77093836 0 9433.98613221 0 -3910.61225805 0 440.75492682 0 2568
0.04850000 0.04851840 41020.97043462 0 1841.72622103 0 11004.41825053 0 448.66942460 0 1996.63911757 0 2493
0.04950000 0.04949480 39592.08691677 0 614.72107991 0 12899.14769047 0 -600.79541698 0 5731.89896747 0 2644
0.05050000 0.05050630 39818.62668256 0 552.52118801 0 12575.17146628 0 -1550.55729528 0 1699.75687221 0 2829
0.05150000 0.05149060 41058.83778550 0 963.33876299 0 18748.65689217 0 -960.96928548 0 6427.70600372 0 2784
0.05250000 0.05249300 39184.62536344 0 1397.52669396 0 16490.23479891 0 579.55537628 0 6703.61726588 0 3055
0.05350000 0.05348950 38321.98053682 0 1497.70908892 0 18803.68634651 0 -553.80225599 0 7994.22959139 0 3009
0.05450000 0.05448610 37647.67595537 0 1079.43762487 0 18408.62579698 0 2415.12870642 0 5617.36683954 0 3336
0.05550000 0.05550870 36560.70582792 0 700.86930316 0 17450.98042342 0 2934.64218691 0 4683.62661526 0 3349
0.05650000 0.05647670 35233.02335892 0 1237.34337081 0 15690.37005401 0 1531.65683681 0 3504.94442134 0 3324
0.05750000 0.05747970 34183.03479637 0 1356.91340653 0 12888.07536566 0 1587.38384763 0 3961.60031384 0 3639
0.05850000 0.05849280 33242.21935653 0 518.52472188 0 12475.18837317 0 1387.16299793 0 2724.19050908 0 3846
0.05950000 0.05951020 33699.61709478 0 -1553.95649900 0 11049.95872251 0 -415.43362720 0 -1540.85793874 0 3787
0.06050000 0.06049470 34331.95756518 0 -118.80272361 0 10870.38775860 0 1467.32662962 0 265.50881299 0 3930
0.06150000 0.06148310 33980.85414518 0 372.27370505 0 11068.03982894 0 611.16022025 0 -36.79754286 0 4083
0.06250000 0.06249100 33637.16918281 0 273.77651793 0 11527.72953844 0 1534.56885824 0 1507.51916871 0 4303
0.06350000 0.06350600 33607.60607554 0 908.48868030 0 11747.51518609 0 717.57190515 0 -323.47686234 0 4470
0.06450000 0.06451750 33293.04132744 0 1374.44089671 0 13816.37907845 0 -823.02361949 0 1040.18291169 0 4479
0.06550000 0.06550280 31050.67410517 0 1208.09028864 0 12909.22350606 0 -829.44888958 0 2336.29375371 0 4636
0.06650000 0.06648880 31253.40837260 0 904.62886787 0 14402.32650785 0 1029.04304569 0 4678.52227352 0 4653
0.06750000 0.06749660 30908.28400800 0 -161.52085999 0 13401.38834425 0 2516.45155083 0 3206.15773611 0 5220
0.06850000 0.06852730 31122.42277000 0 -275.58019964 0 12633.07972508 0 2872.81432512 0 2043.17609878 0 5029
0.06950000 0.06949320 30384.00942784 0 1136.35269614 0 11247.15682753 0 844.67112174 0 2015.98246903 0 5040
0.07050000 0.07048030 29292.27820072 0 1577.17516414 0 11152.15628059 0 -1281.17870477 0 2288.31737027 0 5475
0.07150000 0.07148790 29076.58931325 0 1177.51959981 0 11831.00051522 0 -870.23711975 0 2923.52557279 0 5509
0.07250000 0.07249820 27349.74953454 0 -40.08569116 0 10955.60037041 0 799.27791168 0 2569.51013136 0 5916
0.07350000 0.07351270 27801.72183364 0 -144.13066663 0 11473.58587007 0 557.31550465 0 3579.51652900 0 5721
0.07450000 0.07449140 28169.87663386 0 148.71793080 0 11819.81746715 0 1480.90129984 0 2175.86683941 0 6028
0.07550000 0.07549160 27823.09142054 0 331.41904094 0 11048.20929519 0 2753.65396542 0 3984.52002621 0 6183
0.07650000 0.07648840 27168.82774700 0 626.24072665 0 10413.48827496 0 1133.62890423 0 4502.99270817 0 6330
0.07750000 0.07749960 27049.80025520 0 223.18152967 0 9861.49966578 0 852.95211347 0 2253.40633012 0 6583
0.07850000 0.07848650 26523.53265657 0 336.79133294 0 10529.57052836 0 119.22900811 0 3428.22428267 0 6549
0.07950000 0.07947320 26063.36683711 0 950.08186848 0 9923.67076964 0 -918.93763323 0 2670.89940973 0 6828
0.08050000 0.08048110 25525.14112767 0 844.44856801 0 9322.98607590 0 -1250.35335247 0 2342.37246003 0 7147
0.08150000 0.08149960 25175.25566340 0 42.00452505 0 10777.41344710 0 98.76259075 0 -481.63284282 0 7386
0.08250000 0.08250610 25092.76684351 0 558.83573485 0 9761.52764499 0 -1204.51392772 0 -952.08374481 0 7227
0.08350000 0.08350160 24409.38295570 0 776.85645393 0 10765.08994958 0 834.50783479 0 -1265.59994375 0 7798
0.08450000 0.08449610 23750.35818249 0 266.05578583 0 8331.42617141 0 644.95627729 0 -807.96415050 0 7371
0.08550000 0.08548940 23344.11458490 0 270.61758366 0 8961.45252592 0 2122.03319614 0 -1869.98279397 0 8256
0.08650000 0.08650700 23022.57427216 0 279.93494499 0 7696.78265746 0 2123.46152604 0 -2461.47745811 0 8037
0.08750000 0.08749060 22256.70156446 0 704.83098098 0 6665.69455337 0 1056.59320431 0 -1464.34817424 0 8155
0.08850000 0.08849210 21849.79362737 0 746.37766540 0 6584.54548478 0 364.69137702 0 -1213.01747318 0 8718
0.08950000 0.08949900 21123.89201226 0 551.73173125 0 6583.11715488 0 -110.12501048 0 131.61118896 0 8571
0.09050000 0.09049190 20799.91578807 0 922.28701149 0 7264.72947071 0 123.44092047 0 899.71718458 0 8932
0.09150000 0.09150830 20182.52295618 0 456.52745353 0 7247.06911263 0 77.17487905 0 1282.96134906 0 9285
0.09250000 0.09250820 19767.20005223 0 510.25037355 0 7826.76067851 0 404.04020496 0 1126.32116985 0 9204
0.09350000 0.09350330 19534.23833805 0 671.74576719 0 8277.04998423 0 -551.32980586 0 92.19360188 0 9349
0.09450000 0.09448040 18874.88139510 0 686.55057270 0 7880.29536900 0 -776.90185046 0 849.56398208 0 9564
0.09550000 0.09549270 18755.63245680 0 223.00880140 0 7782.79247665 0 -70.77031420 0 864.33889232 0 10155
0.09650000 0.09649430 18098.93287181 0 -191.56007722 0 7652.57086446 0 736.99719181 0 99.22895707 0 9913
0.09750000 0.09749140 18769.14069308 0 -31.70471633 0 6821.40465730 0 862.10892610 0 -1168.53994439 0 10476
0.09850000 0.09850240 18408.84724348 0 -98.90808110 0 6519.09697277 0 1131.43658392 0 -817.26822505 0 10575
0.09950000 0.09950330 18550.46227791 0 -40.53555971 0 6436.25383848 0 39.47317015 0 -1526.55249507 0 10882
0.10050000 0.10051200 18547.58347346 0 220.15546330 0 6643.43918049 0 -356.23654979 0 -1350.36966256 0 10875
0.10150000 0.10150300 18217.51747062 0 949.27358877 0 7644.25554852 0 -565.29311469 0 -1455.16921697 0 11118
0.10250000 0.10250800 17351.88311629 0 885.50142674 0 7006.78859174 0 -210.83588750 0 -26.13157236 0 11575
0.10350000 0.10349800 16932.57417541 0 242.16724504 0 7503.95812074 0 372.64573517 0 360.56250709 0 11364
0.10450000 0.10450100 16649.56555305 0 -35.11100634 0 6509.91801550 0 1194.29417191 0 -478.11627246 0 12093
0.10550000 0.10551000 16497.54253329 0 291.15785343 0 6273.75639944 0 1934.47908604 0 -526.04172320 0 12067
0.10650000 0.10649700 15923.77466118 0 551.77159162 0 5164.34266959 0 1032.81095783 0 -402.25313173 0 12054
0.10750000 0.10749900 15551.52310078 0 469.82642287 0 4912.07082092 0 636.25232275 0 256.49815505 0 12807
0.10850000 0.10850100 14989.49189299 0 171.85133905 0 4734.53716478 0 -194.69354515 0 -47.88857990 0 12736
0.10950000 0.10950300 14849.42698403 0 230.61659579 0 5094.29914279 0 245.67385031 0 503.59812080 0 12933
0.11050000 0.11050200 14948.85646090 0 230.40732885 0 5532.14315541 0 77.69516759 0 978.36280053 0 13428
0.11150000 0.11150900 14774.46734501 0 162.62366354 0 5388.87834459 0 236.99425488 0 1504.82859378 0 13453
0.11250000 0.11250000 14934.13026889 0 65.44596537 0 5687.54323424 0 -329.22229169 0 1657.98099067 0 13668
0.11350000 0.11349100 14794.50825293 0 206.02828406 0 6133.75792444 0 -76.08658024 0 1846.08871701 0 13791
0.11450000 0.11448600 14613.03284915 0 307.37105866 0 6211.13133027 0 -379.96564910 0 2092.18220843 0 14205
0.11550000 0.11549300 14454.14498801 0 262.24136993 0 6209.47048155 0 68.45199083 0 1897.32036395 0 14776
0.11650000 0.11649800 14594.09917371 0 -293.53065264 0 6026.10171022 0 426.11177725 0 2047.23964199 0 14553
0.11750000 0.11747300 14497.21633155 0 -104.50170887 0 6036.55398485 0 649.90228479 0 1375.86922661 0 14568
0.11850000 0.11849100 14711.02292380 0 67.23027051 0 5444.21782403 0 425.65781193 0 1026.71564302 0 16015
0.11950000 0.11950300 14406.75543778 0 188.67905830 0 5355.22954946 0 329.97742425 0 1463.14129084 0 15270
0.12050000 0.12050700 14471.86070772 0 143.14522972 0 4779.07005520 0 651.80008126 0 1416.91433472 0 15999
0.12150000 0.12150000 14086.65452727 0 154.07582878 0 4569.71453753 0 553.66163746 0 1144.60157813 0 15670
0.12250000 0.12250700 14089.42260848 0 150.91468005 0 4065.19298484 0 651.03055469 0 748.12044932 0 16887
0.12350000 0.12352200 13909.49733018 0 12.26204612 0 3716.37046375 0 314.32337142 0 489.80532577 0 16407
0.12450000 0.12449800 13989.77168511 0 119.05074368 0 3906.02831557 0 -144.42740493 0 457.67343915 0 16306
0.12550000 0.12549900 13753.93116647 0 246.16324707 0 3901.86512144 0 -316.18684368 0 869.09002690 0 17523
0.12650000 0.12650100 13647.96901796 0 133.95077119 0 4027.38099559 0 -19.57553811 0 856.60265897 0 17154
0.12750000 0.12750600 13533.70262583 0 132.24120424 0 4154.13697011 0 458.41749937 0 583.20702901 0 18007
0.12850000 0.12850300 13465.93999794 0 104.73157033 0 4348.87701902 0 185.38947060 0 963.41294756 0 17496
0.12950000 0.12949900 13222.90246817 0 358.17199216 0 4103.87968776 0 242.13292083 0 274.52832879 0 18405
0.13050000 0.13049000 13009.64949216 0 336.11149219 0 3798.49389693 0 -235.27029391 0 798.28140245 0 18100
0.13150000 0.13148800 12777.13067097 0 347.93894957 0 4220.49341275 0 -435.59743792 0 775.70382491 0 19059
0.13250000 0.13249300 12592.00140001 0 194.41009363 0 3880.00835225 0 368.02636125 0 1383.43162447 0 18957
0.13350000 0.13349100 12424.25567900 0 8.15731386 0 3911.36517614 0 522.14315764 0 320.20609759 0 19468
0.13450000 0.13450700 12404.43621758 0 75.77079754 0 3774.69947090 0 415.08595620 0 922.13199894 0 19953
0.13550000 0.13551000 12319.17931647 0 62.30673984 0 3447.46798321 0 621.27146727 0 648.31451341 0 19956
0.13650000 0.13649900 12237.35483606 0 91.25522235 0 3267.56484956 0 515.27831625 0 651.07041506 0 19723
0.13750000 0.13749600 12151.54431872 0 117.18616418 0 2941.29665412 0 238.39490397 0 955.85387141 0 20946
0.13850000 0.13851100 12049.01459090 0 110.23518011 0 3219.93170819 0 5.99713651 0 774.91215369 0 20955
0.13950000 0.13949800 11974.49784487 0 249.81822149 0 3098.75618537 0 -272.87190899 0 637.21561501 0 20506
0.14050000 0.14048300 11558.62132468 0 420.12054229 0 3601.93798675 0 -174.31825301 0 811.31795769 0 21447
0.14150000 0.14148400 11443.35842332 0 368.59215705 0 3475.94600264 0 -3.90662622 0 702.50025661 0 21771
0.14250000 0.14249400 10943.38759613 0 153.90752944 0 3224.03954069 0 314.63228928 0 795.11471755 0 22470
0.14350000 0.14350900 11088.37968963 0 146.02071248 0 3419.04532540 0 389.40812771 0 571.20573614 0 22519
0.14450000 0.14449900 10977.81145399 0 45.61155630 0 3273.86500238 0 -208.20731759 0 522.28931232 0 22218
0.14550000 0.14550500 10833.31761511 0 307.50614103 0 3266.14759198 0 -195.89157069 0 379.84385353 0 23559
0.14650000 0.14650700 10661.78515902 0 173.66387862 0 3433.67186648 0 -387.55572777 0 422.63617449 0 23044
0.14750000 0.14750500 10516.25052160 0 107.88906520 0 3187.32371159 0 -252.44789863 0 337.12128822 0 23649
0.14850000 0.14849900 10653.08231171 0 92.15064126 0 3621.05989172 0 188.10108295 0 194.29051252 0 23640
0.14950000 0.14949500 10400.13505123 0 48.14235759 0 3302.77484248 0 183.17722010 0 141.79219163 0 24457
0.15050000 0.15050000 10399.79180916 0 130.91252526 0 3317.30173264 0 374.84912781 0 192.40268114 0 24591
0.15150000 0.15149900 10113.35076610 0 216.08084777 0 3162.70993352 0 197.50370119 0 234.01137058 0 25020
0.15250000 0.15250500 9920.90268843 0 295.53363620 0 3155.11431870 0 423.95267391 0 48.06972314 0 25297
0.15350000 0.15350100 9748.01940871 0 150.06211103 0 2971.70125808 0 219.46565746 0 618.49784990 0 25452
0.15450000 0.15450400 9576.14371055 0 229.14397659 0 3041.27974724 0 101.77437382 0 225.09039847 0 26061
0.15550000 0.15549900 9420.11250921 0 155.75328599 0 3047.17022404 0 -100.18560593 0 826.94100801 0 26128
0.15650000 0.15649500 9293.12401586 0 55.16099357 0 2837.50468127 0 309.42940385 0 890.95676118 0 26331
0.15750000 0.15749700 9375.70141436 0 -15.33926663 0 2748.60498531 0 192.30856638 0 1001.33012390 0 27345
0.15850000 0.15849900 9257.11681555 0 110.99562738 0 2898.96715634 0 369.76360902 0 907.32719343 0 26980
0.15950000 0.15949700 9112.77798922 0 289.73727416 0 2692.61223870 0 57.11249082 0 575.95687072 0 27777
0.16050000 0.16050000 8994.08266716 0 200.20867014 0 2748.31710486 0 -25.54717505 0 780.16597181 0 28224
0.16150000 0.16150500 8758.88434336 0 105.03229468 0 2631.73659684 0 32.47900401 0 967.86402214 0 28075
0.16250000 0.16249700 8821.56477416 0 3.79479574 0 2744.43071885 0 75.28726911 0 774.89333074 0 28590
0.16350000 0.16349900 8737.53690111 0 -14.32836338 0 2544.61954517 0 130.54160238 0 775.68721643 0 29163
0.16450000 0.16449100 8776.54470145 0 84.24776942 0 2548.68308838 0 284.63625411 0 432.28792003 0 28996
0.16550000 0.16550500 8818.30951066 0 56.69296043 0 2467.83297255 0 76.69954414 0 700.16731777 0 30777
0.16650000 0.16650700 8655.53526351 0 106.97006224 0 2444.93540483 0 42.28642644 0 861.67931990 0 29211
0.16750000 0.16749900 8724.62657037 0 105.95007968 0 2596.40480835 0 -153.84884612 0 1007.68010219 0 30922
0.16850000 0.16850800 8641.50662796 0 -5.81505213 0 2730.37993865 0 -100.64732188 0 926.74251500 0 30867
0.16950000 0.16949900 8656.95252108 0 97.50012427 0 2821.15085752 0 16.20766907 0 1228.95054860 0 30852
0.17050000 0.17049200 8549.88314009 0 48.87999587 0 2678.55038618 0 232.55425263 0 1075.01755280 0 31257
0.17150000 0.17149500 8642.31490767 0 53.08759002 0 2671.26479645 0 404.51188599 0 1128.10381415 0 32608
0.17250000 0.17250900 8381.77203236 0 -5.41000434 0 2331.89804076 0 233.80763980 0 777.88839460 0 32361
0.17350000 0.17350400 8497.96500901 0 235.84051864 0 2566.74205016 0 59.31964805 0 844.13632845 0 32508
0.17450000 0.17449800 8184.79537384 0 245.24535134 0 2309.72017414 0 -123.05228187 0 915.02135194 0 32791
0.17550000 0.17549800 8027.72337396 0 266.34255905 0 2449.53041963 0 24.47714558 0 1025.65380707 0 33633
0.17650000 0.17650100 7798.20515280 0 220.23629127 0 2457.11496213 0 -199.14240526 0 985.79897388 0 33984
0.17750000 0.17750300 7788.45043463 0 107.63871994 0 2372.06843520 0 195.89489239 0 993.00373564 0 34069
0.17850000 0.17849800 7780.20155264 0 -28.52197656 0 2688.90300988 0 233.91282689 0 1151.15639442 0 34536
