### header ###
fiducial parameters:
Omega_m = 0.31
Omega_nu = 0
Omega_de = 0.69
Omega_k = 0
H_0 = 100
w_de = -1
zeff = 0
beta = 0
fgrowth = 0
b_1 = 2
gamma = 0.55
Lx = 3500 Ly = 3500 Lz = 3500
nx = 700 ny = 700 nz = 700
xoffset = -685.467585 yoffset = -31.7331281 zoffset = 572.489161
bins = 400 dk = 0.001
kx_ny = 0.628318531 ky_ny = 0.628318531 kz_ny = 0.628318531
############################
A(data) = 8.00713544 (not used)
A(ran) = 7.99953045 (used)
Ngal = 475735
weighted Ngal = 0
Nran = 23820508
weighted Nran = 0
SN(data) = 3499.13556
SN(ran) = 69.6788114
SN(data+ran) = 3568.81437
############################
13 columns: k_central k_mean P_0(k) sigma^{lin}_{P_0(k)} P^img_1(k) sigma^{lin}_{P_1(k)} P_2(k) sigma^{lin}_{P_2(k)} P^img_3(k) sigma^{lin}_{P_3(k)} P_4(k) sigma^{lin}_{P_4(k)} N_modes
### header ###
0.00050000 0 0 0 0 0 0 0 0 0 0 0 0
0.00150000 0.00179520 61047.15216436 0 -40654.14431338 0 32431.17156356 0 11907.06738672 0 -130206.11093735 0 3
0.00250000 0.00253879 100691.16828453 0 -24009.78275299 0 29798.72633793 0 -22342.40135855 0 102766.89701828 0 6
0.00350000 0.00331552 108291.43348654 0 3876.54271458 0 56807.78043779 0 -67700.84431763 0 125330.96631970 0 7
0.00450000 0.00420575 100485.44448940 0 23332.59936709 0 52315.84898212 0 -43861.13247385 0 75016.10787881 0 24
0.00550000 0.00557378 95126.43927717 0 9753.74380064 0 75186.51095777 0 22260.79832464 0 23215.01127751 0 45
0.00650000 0.00659388 83791.81108357 0 -1697.22130983 0 77557.20642469 0 44211.68227761 0 38890.21224652 0 40
0.00750000 0.00754703 95597.67742146 0 8184.08674505 0 64680.20338385 0 73430.88313453 0 -4020.35006933 0 57
0.00850000 0.00846663 80122.55336192 0 822.29395328 0 57433.03462030 0 52701.16588581 0 11365.63070309 0 75
0.00950000 0.00948925 82448.18446683 0 11545.88815114 0 38603.32831047 0 34400.49525580 0 -7681.62464478 0 112
0.01050000 0.01054430 62364.42664803 0 11721.38449952 0 24465.07674954 0 17438.80086612 0 34560.15817969 0 105
0.01150000 0.01145670 58459.54985424 0 5750.48940084 0 18756.73968928 0 17698.55760637 0 38384.76061855 0 144
0.01250000 0.01249090 61028.66138191 0 -5997.78977566 0 13701.33762359 0 6451.09075374 0 30711.30734948 0 169
0.01350000 0.01339930 61989.51772967 0 -11833.32570343 0 11997.63900374 0 18509.93756908 0 16927.25945950 0 180
0.01450000 0.01448870 67053.00259249 0 -3073.54450176 0 16584.57100636 0 -6039.99747787 0 13616.52361547 0 267
0.01550000 0.01550050 82595.55711017 0 487.15682567 0 14493.67318761 0 859.82802719 0 22731.03995969 0 238
0.01650000 0.01653350 80353.30061114 0 -7696.08510100 0 19215.57682977 0 -6544.80691100 0 13560.60837514 0 315
0.01750000 0.01747870 81094.48203450 0 -979.32387833 0 11036.00759324 0 -8844.14124447 0 -2769.57596851 0 297
0.01850000 0.01844180 87061.02570953 0 4952.49587883 0 24700.91726817 0 -7999.99827262 0 -1973.09935501 0 388
0.01950000 0.01947590 72641.64782145 0 9649.55322410 0 28520.42643761 0 -11642.10665381 0 174.09791375 0 399
0.02050000 0.02045430 70529.15896930 0 8867.57028378 0 19850.35321162 0 2083.02539581 0 -10905.60882385 0 462
0.02150000 0.02154770 64826.80096445 0 -2009.18406159 0 23013.82713556 0 15926.09984940 0 768.66293356 0 571
0.02250000 0.02255340 72555.61585761 0 -5410.63546285 0 15061.24055781 0 14992.37069744 0 -15811.27984103 0 510
0.02350000 0.02348930 72773.85137979 0 -3133.54542995 0 11214.38274607 0 1971.75960370 0 -11380.13544860 0 555
0.02450000 0.02439640 76672.74911818 0 713.69326977 0 18311.41078508 0 -7670.82912808 0 -2920.76856391 0 592
0.02550000 0.02547300 72262.64214291 0 5036.40195631 0 23499.01640911 0 -6987.72204840 0 5629.74569869 0 837
0.02650000 0.02652900 71793.72918684 0 3519.33844361 0 26278.28066184 0 2468.60803529 0 4485.22162684 0 723
0.02750000 0.02749970 69385.49853878 0 213.68147498 0 32190.56994525 0 -1268.77770097 0 -5294.63071573 0 826
0.02850000 0.02848090 66881.49228105 0 7926.64412069 0 32538.57311430 0 5661.54541557 0 5024.74279827 0 831
0.02950000 0.02946900 64224.68794081 0 6691.08339418 0 29606.84294882 0 5447.87169122 0 1123.70810119 0 996
0.03050000 0.03053250 55961.41192866 0 3651.76344844 0 24679.65840452 0 3710.91180762 0 4886.40517199 0 1041
0.03150000 0.03150510 55131.98407649 0 -218.98954750 0 23146.47358688 0 8761.25382087 0 -104.75327209 0 1036
0.03250000 0.03246190 53690.14593861 0 -580.23078810 0 21092.66805627 0 1724.18242076 0 -11723.93113422 0 1059
0.03350000 0.03345080 52820.41482410 0 4635.62808717 0 15833.75666041 0 2545.50533116 0 -6316.91632159 0 1302
0.03450000 0.03451200 48803.81827289 0 1653.37490354 0 15108.51938479 0 1759.95710225 0 -865.81040429 0 1339
0.03550000 0.03553350 50041.92563411 0 -3289.10052133 0 10687.27365075 0 7872.71082650 0 200.75121405 0 1365
0.03650000 0.03647120 53402.48693982 0 -2899.87508698 0 13791.68779411 0 2218.87174901 0 -8906.54486714 0 1308
0.03750000 0.03744890 54367.77221751 0 130.16514334 0 10839.75063583 0 2133.38232908 0 -3331.19750029 0 1579
0.03850000 0.03847530 50487.69743131 0 3292.90940107 0 14521.46472290 0 -827.28314285 0 3145.76927655 0 1662
0.03950000 0.03950240 51297.74871504 0 3903.02771555 0 16252.62270830 0 -3518.54123622 0 3028.74587554 0 1683
0.04050000 0.04050350 46011.82084662 0 1648.39235738 0 20432.09315759 0 1930.99130372 0 8706.11364328 0 1822
0.04150000 0.04152450 47476.68942013 0 2903.38501395 0 19674.85686325 0 4726.23292116 0 4105.52946416 0 1887
0.04250000 0.04250150 43251.15809959 0 1336.47389491 0 17227.65163183 0 -218.45364697 0 10683.24332452 0 1920
0.04350000 0.04349210 43546.67844900 0 513.66064959 0 19529.25579188 0 3398.27364404 0 3502.23170176 0 2005
0.04450000 0.04448520 40888.98832278 0 -336.02512806 0 16698.94812174 0 4240.13571698 0 7154.57091109 0 2151
0.04550000 0.04548030 42653.69545237 0 -101.12321040 0 15143.39720797 0 3204.69618924 0 1558.06433151 0 2274
0.04650000 0.04648670 43727.71095978 0 -976.09851011 0 18128.49597907 0 1958.71640507 0 6452.61873456 0 2311
0.04750000 0.04749250 43529.73779203 0 -375.22669408 0 13775.63292312 0 433.39072359 0 2788.75323510 0 2568
0.04850000 0.04851840 41784.73940061 0 3394.52012593 0 13715.28875286 0 -749.95513355 0 6080.98722435 0 2493
0.04950000 0.04949480 41034.81084064 0 3593.32371804 0 12761.29724648 0 -777.03693282 0 7633.70362297 0 2644
0.05050000 0.05050630 37046.11654797 0 1916.20975009 0 13360.53146567 0 1404.18116118 0 4324.88329114 0 2829
0.05150000 0.05149060 36953.33046599 0 872.09173416 0 13697.35158665 0 2625.84612004 0 6967.42647701 0 2784
0.05250000 0.05249300 35600.51381965 0 -432.15726660 0 11063.20122300 0 4190.12202577 0 703.56098532 0 3055
0.05350000 0.05348950 35940.54491483 0 -404.50524260 0 8299.00640435 0 3265.92614548 0 -796.58622952 0 3009
0.05450000 0.05448610 34771.30741398 0 332.91269755 0 5185.67903951 0 1077.11022220 0 -2633.95106181 0 3336
0.05550000 0.05550870 33759.73981855 0 1102.98403083 0 5227.89781405 0 -88.42856855 0 -2378.45716662 0 3349
0.05650000 0.05647670 33176.00685411 0 1442.62427295 0 5336.86056259 0 657.87435866 0 -1527.91439102 0 3324
0.05750000 0.05747970 31809.34980174 0 1332.32177310 0 5520.55043133 0 -1046.01027624 0 -956.20707857 0 3639
0.05850000 0.05849280 31878.99472485 0 221.57936427 0 5689.87949478 0 255.40753106 0 523.53716333 0 3846
0.05950000 0.05951020 30928.87853217 0 -64.03468685 0 7004.72913932 0 433.84579614 0 852.75945502 0 3787
0.06050000 0.06049470 32050.61575954 0 -332.70785955 0 6849.60586861 0 1201.82335279 0 1710.00984499 0 3930
0.06150000 0.06148310 32233.41984230 0 144.50491121 0 7430.08356955 0 -1032.23741140 0 3218.48123363 0 4083
0.06250000 0.06249100 32042.97585542 0 56.18197264 0 7633.94721411 0 1196.68579407 0 2106.54301372 0 4303
0.06350000 0.06350600 32018.72746407 0 831.54266621 0 10339.71337470 0 -727.16939630 0 3150.09855555 0 4470
0.06450000 0.06451750 31708.25947615 0 1189.98703756 0 8806.32925521 0 -2406.64730561 0 3302.06621369 0 4479
0.06550000 0.06550280 31088.98434904 0 708.81812515 0 11531.38340563 0 707.30896727 0 4600.06377986 0 4636
0.06650000 0.06648880 30753.60363029 0 -292.13664695 0 11079.63255303 0 61.14802104 0 4951.56580355 0 4653
0.06750000 0.06749660 31050.34193543 0 6.26947141 0 10775.57544118 0 2005.69627927 0 1298.13043406 0 5220
0.06850000 0.06852730 31282.52858687 0 -34.79035181 0 10071.51952294 0 980.57062210 0 801.84669104 0 5029
0.06950000 0.06949320 30836.31389668 0 556.82500066 0 9101.15204816 0 891.17377875 0 1192.20150252 0 5040
0.07050000 0.07048030 29797.61910544 0 599.05152583 0 7560.21660315 0 1099.02013855 0 1362.13954384 0 5475
0.07150000 0.07148790 29263.60087944 0 572.34618560 0 7610.50710247 0 1364.71939552 0 539.42594944 0 5509
0.07250000 0.07249820 28821.92584243 0 427.41831158 0 6145.48351642 0 1028.47282096 0 960.81538016 0 5916
0.07350000 0.07351270 28057.49253695 0 978.81676585 0 5665.69753738 0 468.28515525 0 375.27098338 0 5721
0.07450000 0.07449140 27525.02443642 0 868.20202645 0 6317.90175849 0 319.20405220 0 1213.22784735 0 6028
0.07550000 0.07549160 26898.77374467 0 19.34733750 0 5389.57590105 0 597.15483658 0 2080.92165409 0 6183
0.07650000 0.07648840 27232.27216821 0 -252.11462166 0 5704.80498864 0 178.82579645 0 57.47820971 0 6330
0.07750000 0.07749960 26801.22656302 0 419.37426760 0 6427.19667678 0 704.36705057 0 131.84149331 0 6583
0.07850000 0.07848650 26615.65439906 0 1121.64864878 0 6242.58780508 0 -1493.29123132 0 77.57658299 0 6549
0.07950000 0.07947320 25648.81899590 0 1182.25855484 0 8132.81080882 0 -1912.62231685 0 398.17962343 0 6828
0.08050000 0.08048110 25001.86305674 0 859.70733885 0 9828.23840202 0 -2088.03008663 0 1491.94040769 0 7147
0.08150000 0.08149960 24356.23579657 0 1675.56384248 0 10733.69990872 0 -1003.70956651 0 -17.65238601 0 7386
0.08250000 0.08250610 22978.61714263 0 1316.22261282 0 10645.44240759 0 -245.03165547 0 1461.61331001 0 7227
0.08350000 0.08350160 22357.90261330 0 578.78695694 0 10774.13603896 0 816.22742652 0 -507.46789832 0 7798
0.08450000 0.08449610 21590.25833362 0 207.84635980 0 10046.23033305 0 1273.70488551 0 -634.22276561 0 7371
0.08550000 0.08548940 21152.68005679 0 363.70151118 0 9398.48825884 0 608.94686252 0 -2169.24558917 0 8256
0.08650000 0.08650700 20874.43253410 0 280.70225710 0 8793.21962263 0 400.57124559 0 -2748.37246648 0 8037
0.08750000 0.08749060 20686.97807492 0 35.73526401 0 8396.39857345 0 281.60575881 0 -1897.73003997 0 8155
0.08850000 0.08849210 20539.49470833 0 -5.80516454 0 8384.47367962 0 240.33920421 0 -2590.80221199 0 8718
0.08950000 0.08949900 20531.30118797 0 318.26179735 0 8501.27563413 0 537.49493600 0 -1526.23139765 0 8571
0.09050000 0.09049190 20721.52372835 0 408.22000758 0 9517.19465322 0 38.57199363 0 -1252.85569788 0 8932
0.09150000 0.09150830 19994.40415751 0 783.26622276 0 9662.48569949 0 382.01292196 0 382.60418411 0 9285
0.09250000 0.09250820 19523.38745973 0 581.98132265 0 9012.93883633 0 468.99599851 0 804.86611402 0 9204
0.09350000 0.09350330 19355.19884573 0 115.93277701 0 9343.96813143 0 993.17646391 0 549.22274244 0 9349
0.09450000 0.09448040 19326.07863146 0 -361.90447286 0 8587.68405702 0 935.20841455 0 -226.71470852 0 9564
0.09550000 0.09549270 19108.50744877 0 263.95979475 0 7990.19926515 0 603.44945324 0 -123.29365855 0 10155
0.09650000 0.09649430 18951.28043635 0 429.89961957 0 7198.48375132 0 566.56311034 0 -510.17397451 0 9913
0.09750000 0.09749140 18166.25260670 0 408.32076573 0 7072.38104396 0 1049.34083155 0 -234.58491700 0 10476
0.09850000 0.09850240 18353.70706588 0 400.65539526 0 6498.45815931 0 282.37417815 0 -929.51391790 0 10575
0.09950000 0.09950330 17672.31619655 0 228.05335259 0 6538.57319213 0 947.49094447 0 -893.12915131 0 10882
0.10050000 0.10051200 17353.65468826 0 247.78423542 0 6073.91200879 0 410.74006870 0 322.21793901 0 10875
0.10150000 0.10150300 17347.12201662 0 191.14597227 0 5827.76315575 0 299.92270576 0 -530.92240398 0 11118
0.10250000 0.10250800 17178.37978639 0 391.38121599 0 6242.07847814 0 135.73673718 0 -533.84771220 0 11575
0.10350000 0.10349800 16614.02339038 0 424.14311790 0 5386.91854309 0 -85.99509300 0 -79.60082542 0 11364
0.10450000 0.10450100 16538.39941187 0 68.00965146 0 5803.02758210 0 -82.53288775 0 -312.93490188 0 12093
0.10550000 0.10551000 16318.50304097 0 341.35645246 0 6365.24701942 0 186.36383519 0 -84.19318286 0 12067
0.10650000 0.10649700 16583.68522038 0 151.81596729 0 5858.68815897 0 -163.12191816 0 -1212.68530344 0 12054
0.10750000 0.10749900 16059.63208671 0 378.78866098 0 5982.72034158 0 42.55924852 0 -356.72926824 0 12807
0.10850000 0.10850100 15928.97865385 0 447.83346408 0 6008.04274844 0 -123.42874092 0 -382.78687747 0 12736
0.10950000 0.10950300 15697.89923488 0 95.45993770 0 6135.79523220 0 491.79391531 0 -658.83875815 0 12933
0.11050000 0.11050200 15403.59684120 0 118.08634419 0 5431.92754348 0 658.64277800 0 -821.76580339 0 13428
0.11150000 0.11150900 15253.12394692 0 277.13032512 0 5825.90300518 0 527.41690595 0 -1358.81784639 0 13453
0.11250000 0.11250000 14939.33426156 0 428.23766362 0 5359.62526241 0 333.41205940 0 -556.01007756 0 13668
0.11350000 0.11349100 14656.98997868 0 121.14784200 0 4651.05183565 0 549.29803425 0 -369.81232725 0 13791
0.11450000 0.11448600 14495.66620608 0 -12.10946948 0 4847.97313255 0 589.15065297 0 220.02480987 0 14205
0.11550000 0.11549300 14649.57152105 0 104.66502566 0 5123.36399543 0 621.72875429 0 117.72981533 0 14776
0.11650000 0.11649800 14554.23880437 0 11.20319970 0 4876.16327153 0 731.23958291 0 994.06224989 0 14553
0.11750000 0.11747300 14438.20084027 0 166.01179494 0 4753.32690000 0 304.86760602 0 2121.23598876 0 14568
0.11850000 0.11849100 14562.65377123 0 -26.83444354 0 4904.59700167 0 40.95165768 0 1951.19829652 0 16015
0.11950000 0.11950300 14659.64733664 0 -131.80163294 0 4673.04147274 0 111.44294930 0 1843.34278046 0 15270
0.12050000 0.12050700 14311.75489084 0 275.24249374 0 4806.26368495 0 30.07974194 0 1653.49669912 0 15999
0.12150000 0.12150000 14429.23225716 0 301.71642238 0 4525.54703383 0 -175.77426373 0 921.36690130 0 15670
0.12250000 0.12250700 14079.90040914 0 272.43344493 0 4824.46658696 0 -291.25971882 0 574.78320429 0 16887
0.12350000 0.12352200 13823.02247334 0 307.41977689 0 4245.87118123 0 -220.58728397 0 29.86792837 0 16407
0.12450000 0.12449800 13483.65571765 0 416.46888957 0 4495.19779150 0 -197.66757159 0 -66.20342311 0 16306
0.12550000 0.12549900 13056.26397965 0 591.82351218 0 4539.57566937 0 33.33699846 0 -158.52801059 0 17523
0.12650000 0.12650100 12870.58109244 0 190.36648061 0 4788.71405012 0 139.72388135 0 -455.08472960 0 17154
0.12750000 0.12750600 12549.59439595 0 167.26739657 0 4261.39458063 0 351.27061210 0 24.14630452 0 18007
0.12850000 0.12850300 12592.77646274 0 171.47266554 0 4282.13304501 0 191.00313928 0 355.26882860 0 17496
0.12950000 0.12949900 12512.94500080 0 -130.49509862 0 4393.02237807 0 232.14789831 0 187.95271380 0 18405
0.13050000 0.13049000 12694.97402082 0 -163.94016296 0 4377.84222075 0 679.30262888 0 147.34164083 0 18100
0.13150000 0.13148800 12643.70915691 0 -97.55692530 0 4033.41541261 0 72.30349902 0 253.57727576 0 19059
0.13250000 0.13249300 12794.84639068 0 29.38406777 0 4023.04064426 0 606.11677629 0 403.47330193 0 18957
0.13350000 0.13349100 12580.26473570 0 64.61786620 0 3813.58547566 0 74.79034318 0 -45.48798916 0 19468
0.13450000 0.13450700 12587.12957709 0 418.51948412 0 3961.56709686 0 85.87285453 0 272.21199843 0 19953
0.13550000 0.13551000 12180.44308650 0 320.84497073 0 3871.21692634 0 -253.40676196 0 411.51623867 0 19956
0.13650000 0.13649900 11937.51627998 0 438.65893574 0 4322.63560920 0 319.98243663 0 709.93753719 0 19723
0.13750000 0.13749600 11856.24541581 0 162.85728960 0 4014.50388182 0 130.37773197 0 1249.46756648 0 20946
0.13850000 0.13851100 11659.49020378 0 71.15895280 0 4184.15404269 0 369.82782850 0 1397.26095816 0 20955
0.13950000 0.13949800 11631.58794524 0 190.11513883 0 4111.06562656 0 290.99398302 0 1218.08859795 0 20506
0.14050000 0.14048300 11449.33747872 0 332.07341533 0 4219.15366144 0 120.71491410 0 1385.85646360 0 21447
0.14150000 0.14148400 11221.46903395 0 127.60411460 0 4073.06540779 0 -175.98242344 0 1134.03858025 0 21771
0.14250000 0.14249400 11071.98157658 0 98.62784055 0 4291.30092996 0 -78.39515997 0 1314.51747479 0 22470
0.14350000 0.14350900 10995.26143791 0 106.80873847 0 3967.82296039 0 -46.09918149 0 707.52155591 0 22519
0.14450000 0.14449900 10972.21992996 0 105.98396099 0 4064.84974277 0 253.45658742 0 663.54781789 0 22218
0.14550000 0.14550500 10763.55089643 0 277.71272940 0 4014.18278440 0 255.35327667 0 855.21197497 0 23559
0.14650000 0.14650700 10580.90182622 0 143.70106043 0 3671.51647591 0 431.94246350 0 877.23372180 0 23044
0.14750000 0.14750500 10490.17519666 0 -28.80620314 0 3305.57614066 0 474.52219582 0 698.38245901 0 23649
0.14850000 0.14849900 10477.38666149 0 124.40421273 0 3282.49034341 0 277.97957243 0 862.31154964 0 23640
0.14950000 0.14949500 10320.43645719 0 245.91301252 0 3186.55972118 0 -62.59938138 0 296.11493325 0 24457
0.15050000 0.15050000 10133.52454192 0 284.35612430 0 3221.20502554 0 -276.16260393 0 576.62674637 0 24591
0.15150000 0.15149900 9958.61502676 0 104.41534474 0 2988.16580508 0 110.02713113 0 709.29202065 0 25020
0.15250000 0.15250500 9748.69482053 0 114.39040217 0 2998.87274318 0 78.75966090 0 477.67559393 0 25297
0.15350000 0.15350100 9893.41010591 0 8.03519719 0 2980.79163675 0 234.96469774 0 -48.40056420 0 25452
0.15450000 0.15450400 9818.50582851 0 -94.23699942 0 2905.22301987 0 403.73128709 0 93.26662088 0 26061
0.15550000 0.15549900 9771.34879711 0 54.65288458 0 2528.97435020 0 4.98970996 0 -92.25461039 0 26128
0.15650000 0.15649500 9632.49077155 0 200.19206165 0 2725.05415042 0 143.73981356 0 -295.48713244 0 26331
0.15750000 0.15749700 9638.37017603 0 183.19272136 0 2541.95111489 0 44.17447927 0 196.16616435 0 27345
0.15850000 0.15849900 9373.96305936 0 245.55759090 0 2469.94778659 0 30.07232348 0 -158.41507288 0 26980
0.15950000 0.15949700 9217.43360340 0 126.87998456 0 2360.38713251 0 153.63182856 0 -0.64558186 0 27777
0.16050000 0.16050000 9268.90884148 0 -29.77126697 0 2454.02578351 0 11.18315879 0 66.14861510 0 28224
0.16150000 0.16150500 9137.94538353 0 133.62745931 0 2375.23512010 0 -11.08472582 0 -35.20700340 0 28075
0.16250000 0.16249700 9129.82936944 0 193.76900602 0 2163.74264374 0 72.38698435 0 292.16764945 0 28590
0.16350000 0.16349900 9065.68739176 0 67.60839041 0 2475.81611875 0 238.79904383 0 306.83626537 0 29163
0.16450000 0.16449100 8924.21629756 0 30.16278438 0 2259.49610877 0 150.13518838 0 432.25359583 0 28996
0.16550000 0.16550500 9091.40840232 0 -59.63952751 0 2459.16334222 0 263.67634323 0 25.78899463 0 30777
0.16650000 0.16650700 8925.92143558 0 33.00172846 0 2408.78426430 0 88.83071539 0 368.71948879 0 29211
0.16750000 0.16749900 9057.95890904 0 134.90520559 0 2375.34584334 0 -193.75461200 0 134.55310566 0 30922
0.16850000 0.16850800 8876.33956504 0 111.54260022 0 2349.39231397 0 -129.65028023 0 603.04309892 0 30867
0.16950000 0.16949900 8798.68935109 0 201.15646114 0 2525.84088228 0 -64.41646061 0 411.49630849 0 30852
0.17050000 0.17049200 8555.08713275 0 206.42024436 0 2440.35146235 0 318.00381219 0 423.95599561 0 31257
0.17150000 0.17149500 8533.52931633 0 110.94358745 0 2350.72099295 0 312.98029842 0 112.10839602 0 32608
0.17250000 0.17250900 8247.17685187 0 185.30199923 0 2201.27782487 0 321.13395841 0 77.64202043 0 32361
0.17350000 0.17350400 8255.83540988 0 177.38750145 0 1916.79658330 0 -14.84876264 0 183.97110579 0 32508
0.17450000 0.17449800 8040.82193422 0 27.36547224 0 1874.44494087 0 73.84321651 0 134.81662699 0 32791
0.17550000 0.17549800 8154.95545845 0 -12.66109271 0 1769.08069790 0 -39.80423266 0 5.58616503 0 33633
0.17650000 0.17650100 8086.09667041 0 12.54450113 0 1634.03155209 0 -24.11563418 0 -315.04860869 0 33984
0.17750000 0.17750300 8046.08128851 0 235.42198476 0 1787.64898662 0 -177.69420485 0 -479.93324096 0 34069
0.17850000 0.17849800 7845.46183512 0 249.30114392 0 1855.75485658 0 -174.35811338 0 -333.94685269 0 34536
