### header ###
fiducial parameters:
Omega_m = 0.31
Omega_nu = 0
Omega_de = 0.69
Omega_k = 0
H_0 = 100
w_de = -1
zeff = 0
beta = 0
fgrowth = 0
b_1 = 2
gamma = 0.55
Lx = 3500 Ly = 3500 Lz = 3500
nx = 700 ny = 700 nz = 700
xoffset = -685.467585 yoffset = -31.7331281 zoffset = 572.489161
bins = 400 dk = 0.001
kx_ny = 0.628318531 ky_ny = 0.628318531 kz_ny = 0.628318531
############################
A(data) = 8.05715872 (not used)
A(ran) = 8.0505809 (used)
Ngal = 478404
weighted Ngal = 0
Nran = 23820508
weighted Nran = 0
SN(data) = 3493.36434
SN(ran) = 70.1234793
SN(data+ran) = 3563.48782
############################
13 columns: k_central k_mean P_0(k) sigma^{lin}_{P_0(k)} P^img_1(k) sigma^{lin}_{P_1(k)} P_2(k) sigma^{lin}_{P_2(k)} P^img_3(k) sigma^{lin}_{P_3(k)} P_4(k) sigma^{lin}_{P_4(k)} N_modes
### header ###
0.00050000 0 0 0 0 0 0 0 0 0 0 0 0
0.00150000 0.00179520 9150.01421758 0 3042.25411182 0 8294.64390837 0 -10617.39620882 0 -40043.06270663 0 3
0.00250000 0.00253879 20289.37089068 0 -2678.17392713 0 -7405.70231030 0 42039.73504118 0 42473.88089732 0 6
0.00350000 0.00331552 30928.65708567 0 -26364.97696517 0 -6219.03697019 0 21686.14466655 0 45392.21354977 0 7
0.00450000 0.00420575 35258.04681301 0 -24721.95468533 0 -452.02212456 0 14649.46079781 0 -11571.68666797 0 24
0.00550000 0.00557378 76147.36730553 0 -14494.44825035 0 -13949.02552978 0 18637.04785799 0 -29589.79156860 0 45
0.00650000 0.00659388 58938.09573290 0 -17526.82584843 0 -30431.95259430 0 1398.82215596 0 5762.60252419 0 40
0.00750000 0.00754703 63337.35182985 0 19177.70947889 0 -23174.81873842 0 -28865.55080221 0 20017.98820938 0 57
0.00850000 0.00846663 65212.11786814 0 5394.01590330 0 -28253.36196299 0 -32671.77318187 0 -4271.14929879 0 75
0.00950000 0.00948925 56241.09885358 0 39.91539880 0 3163.96110623 0 -16832.70180555 0 4831.15427115 0 112
0.01050000 0.01054430 48845.67166071 0 8706.31294512 0 -753.68982871 0 -16295.58332859 0 -6870.35540532 0 105
0.01150000 0.01145670 49325.21404860 0 4954.87642867 0 15018.39066076 0 -17129.88300368 0 3481.81433480 0 144
0.01250000 0.01249090 54020.87628094 0 -2145.98263473 0 21298.83474440 0 -11511.67466745 0 -25096.97432694 0 169
0.01350000 0.01339930 52161.72222064 0 -3917.56567803 0 21005.08596696 0 -2080.58948435 0 -5852.11119802 0 180
0.01450000 0.01448870 57526.04214878 0 -3247.82289440 0 16675.69623962 0 62.54114095 0 -8905.72551511 0 267
0.01550000 0.01550050 76493.48817936 0 -10091.56043086 0 13950.24348551 0 4413.87156571 0 -6704.68020906 0 238
0.01650000 0.01653350 86527.56109976 0 -21442.88569029 0 14298.46810106 0 17034.55028699 0 -32026.25664494 0 315
0.01750000 0.01747870 83384.46025350 0 1759.99031922 0 12568.74951789 0 -16362.12800075 0 -25340.56547295 0 297
0.01850000 0.01844180 83967.19670870 0 20771.90280628 0 8240.11270864 0 1090.51770032 0 -11960.10382261 0 388
0.01950000 0.01947590 69481.05270197 0 9051.01656138 0 12571.62832234 0 1170.15650381 0 1203.25168269 0 399
0.02050000 0.02045430 65264.48996453 0 -424.30588107 0 7796.18998968 0 14108.24556067 0 -3258.07586719 0 462
0.02150000 0.02154770 67004.06291679 0 -6002.29621186 0 7090.14105297 0 5883.99949350 0 -16212.65161570 0 571
0.02250000 0.02255340 67550.92503958 0 41.21506829 0 7208.82530270 0 -7317.25657965 0 -24623.63244094 0 510
0.02350000 0.02348930 68191.90192333 0 6476.18064178 0 12095.18618539 0 -18634.83339303 0 -17797.43346700 0 555
0.02450000 0.02439640 64388.33690163 0 2233.37649452 0 14711.68726329 0 -11564.26821034 0 -17876.71131270 0 592
0.02550000 0.02547300 58821.28270607 0 2866.44773835 0 8762.17282383 0 -5925.77537504 0 -18897.91183072 0 837
0.02650000 0.02652900 59412.76629788 0 1523.34152087 0 9185.08027028 0 10162.00256136 0 -9606.10542151 0 723
0.02750000 0.02749970 61688.12904811 0 -1660.10687703 0 13482.88065491 0 10212.28198836 0 -16379.84372046 0 826
0.02850000 0.02848090 59030.66036839 0 126.34297681 0 3246.70458960 0 5898.33815414 0 -153.31183837 0 831
0.02950000 0.02946900 60119.29134456 0 4141.34843494 0 6261.97544584 0 -854.08259784 0 -458.27245192 0 996
0.03050000 0.03053250 56941.86629135 0 3457.11197813 0 15332.73396237 0 -8225.80726497 0 9937.99835795 0 1041
0.03150000 0.03150510 57828.53806283 0 892.93538563 0 22092.72043389 0 -9117.08512357 0 13881.59507163 0 1036
0.03250000 0.03246190 57193.76168097 0 3085.36974466 0 31804.25653233 0 -1758.50662770 0 6845.97414607 0 1059
0.03350000 0.03345080 56003.81893271 0 2784.15822030 0 33280.75104689 0 -3907.72238127 0 16079.11937839 0 1302
0.03450000 0.03451200 54848.86473088 0 704.42462666 0 35378.40298379 0 3551.08279886 0 9406.96965965 0 1339
0.03550000 0.03553350 54196.70479906 0 -400.52363459 0 31451.93515660 0 9434.58403775 0 6702.60968432 0 1365
0.03650000 0.03647120 53547.53439494 0 865.67864362 0 30205.96644476 0 5435.17173465 0 218.26098852 0 1308
0.03750000 0.03744890 51763.56142016 0 2389.18624937 0 24613.11373236 0 5718.39073119 0 725.17527060 0 1579
0.03850000 0.03847530 49575.89148250 0 3243.13930101 0 26217.93649158 0 1596.64031117 0 5056.74181700 0 1662
0.03950000 0.03950240 47296.87486507 0 1896.41243331 0 24095.15037735 0 3190.63433672 0 2095.54819518 0 1683
0.04050000 0.04050350 45622.62862925 0 -32.94138429 0 21184.12545928 0 4321.70553391 0 5385.47914087 0 1822
0.04150000 0.04152450 45447.90734361 0 -359.68336450 0 19898.73927108 0 8438.79450518 0 -1862.12144335 0 1887
0.04250000 0.04250150 46794.96638104 0 -8.05927950 0 17710.40499392 0 644.97288578 0 1984.16060750 0 1920
0.04350000 0.04349210 45357.22500334 0 880.22324950 0 15419.98388194 0 436.35810664 0 -4547.71382811 0 2005
0.04450000 0.04448520 44461.69537201 0 2338.16497660 0 14113.67099983 0 -3155.08110172 0 -3325.37345743 0 2151
0.04550000 0.04548030 41466.85295506 0 2543.42373409 0 13497.49612367 0 441.24432358 0 -7150.47415091 0 2274
0.04650000 0.04648670 39347.60998478 0 2447.33809932 0 14782.99303512 0 -93.21967422 0 -8450.48688019 0 2311
0.04750000 0.04749250 38385.86785103 0 913.82664809 0 13492.95647050 0 1540.33753947 0 -8367.05691268 0 2568
0.04850000 0.04851840 36129.10660649 0 701.47717379 0 11553.74950176 0 4798.29161108 0 -6000.84573731 0 2493
0.04950000 0.04949480 36539.77913401 0 278.47782705 0 12348.07808425 0 5140.22714613 0 -4760.20281371 0 2644
0.05050000 0.05050630 35830.37528288 0 -133.60088573 0 10415.20448531 0 2261.38947631 0 -2817.65200287 0 2829
0.05150000 0.05149060 36703.87098783 0 1139.38651314 0 12009.48639130 0 -301.64555950 0 622.89799179 0 2784
0.05250000 0.05249300 36893.42918872 0 473.63087367 0 11034.83392681 0 -1938.74193110 0 1024.63293872 0 3055
0.05350000 0.05348950 35644.36022593 0 556.57033719 0 12630.97598337 0 -1256.87495179 0 979.26740947 0 3009
0.05450000 0.05448610 35397.22593598 0 1531.91150028 0 15267.62869243 0 -2782.41986530 0 -432.44957598 0 3336
0.05550000 0.05550870 35641.25997498 0 986.29279957 0 14792.29378797 0 478.71639246 0 2321.31289823 0 3349
0.05650000 0.05647670 34320.11017762 0 -260.75546394 0 15973.71084612 0 1898.07328204 0 -1310.53143786 0 3324
0.05750000 0.05747970 34531.37013516 0 -153.29522988 0 14372.98484708 0 2874.97342846 0 -824.49623869 0 3639
0.05850000 0.05849280 33931.02868349 0 1285.07616310 0 14611.15055393 0 924.38521704 0 -3053.62538941 0 3846
0.05950000 0.05951020 32525.17560127 0 2336.63699578 0 13027.36521187 0 264.56545091 0 343.41369041 0 3787
0.06050000 0.06049470 30451.66133248 0 1824.97379358 0 12614.92111238 0 1270.73750246 0 2915.91888564 0 3930
0.06150000 0.06148310 30718.61508386 0 -529.69226870 0 12170.92088715 0 1962.75780363 0 1259.87555181 0 4083
0.06250000 0.06249100 29783.55725292 0 -955.69775163 0 12231.81867365 0 4589.78866242 0 2265.87376786 0 4303
0.06350000 0.06350600 31009.04216385 0 -183.43299081 0 9532.78448656 0 2988.53119180 0 -394.43053425 0 4470
0.06450000 0.06451750 30390.20992974 0 -319.66133921 0 6835.02361682 0 1217.28031824 0 2015.67244394 0 4479
0.06550000 0.06550280 30667.12877345 0 38.38575713 0 6791.88583933 0 785.09204913 0 1026.95812693 0 4636
0.06650000 0.06648880 30395.41392240 0 766.50936638 0 7829.26302391 0 -1497.38799150 0 1607.69049134 0 4653
0.06750000 0.06749660 29551.25987823 0 1633.56651444 0 8924.73669682 0 -391.51629835 0 396.93730859 0 5220
0.06850000 0.06852730 28387.33709329 0 1096.28970325 0 9340.45820446 0 -1486.39317295 0 1083.49120299 0 5029
0.06950000 0.06949320 28869.20466940 0 -115.91616853 0 10743.10031249 0 -1592.62105726 0 1709.65553060 0 5040
0.07050000 0.07048030 28472.15110140 0 -452.59124205 0 12624.77548147 0 -565.64964355 0 -759.03665436 0 5475
0.07150000 0.07148790 28947.04311288 0 297.92082943 0 12541.84376858 0 684.13237696 0 643.31425152 0 5509
0.07250000 0.07249820 28983.24961503 0 686.13868222 0 11985.79161618 0 -1158.44198415 0 -338.26505937 0 5916
0.07350000 0.07351270 28711.20259424 0 681.39751273 0 13453.31754765 0 -361.34421322 0 1236.52401877 0 5721
0.07450000 0.07449140 28512.01147075 0 -67.42802223 0 12446.51105189 0 562.79851990 0 762.39599771 0 6028
0.07550000 0.07549160 28058.48904618 0 378.97799773 0 12595.76599044 0 1782.76609138 0 -761.92985284 0 6183
0.07650000 0.07648840 27748.35322801 0 -125.20806351 0 11445.35144179 0 1507.79597683 0 40.38110078 0 6330
0.07750000 0.07749960 27607.51325632 0 282.95215351 0 10499.55345578 0 2775.79861506 0 -1317.52914715 0 6583
0.07850000 0.07848650 27475.30969798 0 401.00528072 0 9894.84950813 0 861.01055148 0 -627.19626828 0 6549
0.07950000 0.07947320 26556.30673803 0 225.59086755 0 7849.97934365 0 1333.62830743 0 -309.38068562 0 6828
0.08050000 0.08048110 26157.70304456 0 1046.66575787 0 8035.30791646 0 -476.29708949 0 -593.07247042 0 7147
0.08150000 0.08149960 25360.16348788 0 924.00765077 0 7791.29602211 0 -139.74381154 0 -1710.95099260 0 7386
0.08250000 0.08250610 24772.99810274 0 654.70213760 0 9114.85958628 0 -643.93098001 0 426.85362301 0 7227
0.08350000 0.08350160 24670.24692843 0 246.33043917 0 9328.64403388 0 -1113.22260959 0 -236.04978558 0 7798
0.08450000 0.08449610 24670.46837492 0 574.78320429 0 10929.92364915 0 268.63231582 0 -1023.89884358 0 7371
0.08550000 0.08548940 23947.33484102 0 1292.09601704 0 11392.20428266 0 -268.00008607 0 1699.59078734 0 8256
0.08650000 0.08650700 22828.80858784 0 1345.25424849 0 11687.28173907 0 743.95282626 0 1538.93135422 0 8037
0.08750000 0.08749060 22357.57044356 0 467.20892528 0 11608.88967936 0 1605.39852011 0 3814.84772069 0 8155
0.08850000 0.08849210 22003.47749585 0 -305.14219968 0 10560.65054413 0 2933.22492933 0 2428.68123200 0 8718
0.08950000 0.08949900 21672.41498378 0 392.26035858 0 10181.43449141 0 2563.28748482 0 3152.20229727 0 8571
0.09050000 0.09049190 20990.47049820 0 472.33541167 0 7653.74453089 0 1619.51573425 0 1780.07551644 0 8932
0.09150000 0.09150830 20571.71517356 0 606.92616324 0 7042.13145256 0 1023.53456410 0 2228.88113064 0 9285
0.09250000 0.09250820 19924.31634141 0 667.59918155 0 6893.02045422 0 -593.77445582 0 1972.50144947 0 9204
0.09350000 0.09350330 19768.19656147 0 212.17010264 0 7016.47687595 0 -893.76027383 0 1153.62552285 0 9349
0.09450000 0.09448040 19233.51399597 0 340.70318530 0 7582.60484393 0 -60.99743743 0 2121.95568987 0 9564
0.09550000 0.09549270 19074.73685807 0 333.72983513 0 7542.39016019 0 41.40883397 0 1725.09035139 0 10155
0.09650000 0.09649430 18981.06499011 0 35.39202194 0 7302.77397879 0 467.25985797 0 854.11692205 0 9913
0.09750000 0.09749140 18831.25643531 0 431.81291730 0 7846.22582554 0 829.58840087 0 1253.97400269 0 10476
0.09850000 0.09850240 18658.19599840 0 317.27746768 0 7201.46220670 0 190.87470032 0 1967.20887820 0 10575
0.09950000 0.09950330 18089.74284221 0 362.14031338 0 7507.29089051 0 630.00642432 0 1015.68096410 0 10882
0.10050000 0.10051200 18027.95926972 0 508.44226290 0 7069.69046903 0 -550.29232902 0 1338.55549198 0 10875
0.10150000 0.10150300 17570.11863847 0 588.09656765 0 7588.08564471 0 -444.17627519 0 927.11122341 0 11118
0.10250000 0.10250800 17025.13881090 0 372.50400941 0 7488.58973389 0 -95.65326049 0 1236.35793390 0 11575
0.10350000 0.10349800 16818.86139952 0 46.42515073 0 7340.20950900 0 728.50582591 0 1107.06971869 0 11364
0.10450000 0.10450100 17055.80915064 0 -51.10885485 0 7052.35120836 0 370.93506098 0 -445.40530325 0 12093
0.10550000 0.10551000 16738.91921433 0 169.85389165 0 7131.07543783 0 842.86633280 0 89.52605738 0 12067
0.10650000 0.10649700 16591.21440125 0 135.10118574 0 6496.40977922 0 -237.70731260 0 39.42544843 0 12054
0.10750000 0.10749900 16466.09713080 0 352.43320621 0 6707.76938768 0 524.91566777 0 565.89877085 0 12807
0.10850000 0.10850100 16185.41369665 0 469.64594397 0 6101.12778319 0 385.32797601 0 905.64862898 0 12736
0.10950000 0.10950300 15723.80847496 0 631.13580145 0 6236.60874968 0 303.02627840 0 1018.91408295 0 12933
0.11050000 0.11050200 14954.50334656 0 518.42617819 0 5418.66289835 0 798.10424525 0 1278.49920216 0 13428
0.11150000 0.11150900 14792.40451122 0 187.16990043 0 5374.82756439 0 683.49350382 0 566.48449684 0 13453
0.11250000 0.11250000 14498.21284078 0 63.38529500 0 5268.24536569 0 467.31079067 0 504.60902405 0 13668
0.11350000 0.11349100 14504.85623567 0 343.54434385 0 5055.30241477 0 243.84470225 0 -326.00910303 0 13791
0.11450000 0.11448600 14153.08847619 0 49.50414282 0 4842.20445131 0 -329.62532432 0 -355.81247974 0 14205
0.11550000 0.11549300 14125.18621764 0 -58.58045964 0 4721.56040009 0 -72.69468426 0 -658.25081770 0 14776
0.11650000 0.11649800 14144.00916984 0 29.05987010 0 5067.71449090 0 -11.05576062 0 -347.20153273 0 14553
0.11750000 0.11747300 14489.79787392 0 139.80581656 0 4824.75446740 0 -51.42408394 0 -389.78126506 0 14568
0.11850000 0.11849100 14259.93641069 0 17.10950993 0 5196.41919459 0 484.17615583 0 379.28913006 0 16015
0.11950000 0.11950300 14158.73536184 0 180.27405653 0 4554.06934256 0 869.88391259 0 1004.35397581 0 15270
0.12050000 0.12050700 14455.03077399 0 -77.46907072 0 5265.61015238 0 697.71811952 0 1443.52113126 0 15999
0.12150000 0.12150000 14308.76536314 0 109.40818817 0 4532.12399477 0 369.66174363 0 2018.01977680 0 15670
0.12250000 0.12250700 14120.64656447 0 149.32247974 0 4821.41062531 0 709.71276899 0 1860.78169205 0 16887
0.12350000 0.12352200 13905.40056999 0 268.13849013 0 4335.20269787 0 555.88828199 0 2188.52250668 0 16407
0.12450000 0.12449800 13742.96956490 0 261.48291568 0 4321.66124462 0 283.70839329 0 1436.30197547 0 16306
0.12550000 0.12549900 13300.51946515 0 297.34506854 0 3996.20132890 0 554.31047570 0 1777.25207362 0 17523
0.12650000 0.12650100 13255.56582639 0 157.51600010 0 3883.07538622 0 -181.80425182 0 1791.30285381 0 17154
0.12750000 0.12750600 13215.04111755 0 -11.85480601 0 3671.32824639 0 -14.03760413 0 1258.61330679 0 18007
0.12850000 0.12850300 13395.40928885 0 96.53251381 0 4044.15556769 0 -105.50951188 0 1516.83099388 0 17496
0.12950000 0.12949900 12940.00456906 0 199.89089442 0 3704.83310129 0 -381.71618366 0 1106.57146407 0 18405
0.13050000 0.13049000 13042.20212713 0 175.88720144 0 4343.06404849 0 -52.44694531 0 1257.89360567 0 18100
0.13150000 0.13148800 12887.18957967 0 80.32318389 0 4075.04735393 0 -44.56843258 0 1179.46832898 0 19059
0.13250000 0.13249300 12812.11921740 0 264.55991475 0 4062.97851988 0 464.15517810 0 1023.26661383 0 18957
0.13350000 0.13349100 12611.48869169 0 154.85864215 0 3707.81155667 0 321.20814299 0 1043.37949187 0 19468
0.13450000 0.13450700 12459.13350218 0 137.72311226 0 3756.79552167 0 728.30652406 0 1518.84615700 0 19953
0.13550000 0.13551000 12368.56188517 0 17.86929286 0 3244.43476301 0 553.49223089 0 1265.12383378 0 19956
0.13650000 0.13649900 12244.55184720 0 70.35798083 0 3048.12244397 0 233.80542534 0 701.60561276 0 19723
0.13750000 0.13749600 12114.34130733 0 283.50466252 0 3183.22695141 0 -283.10605882 0 880.25425201 0 20946
0.13850000 0.13851100 11759.91618988 0 347.30782705 0 3168.85507380 0 -285.01935655 0 445.94341823 0 20955
0.13950000 0.13949800 11589.07021793 0 177.20591533 0 3250.84563908 0 -229.42410640 0 579.45018920 0 20506
0.14050000 0.14048300 11502.15246811 0 6.20342499 0 3208.17289923 0 -175.87834358 0 -186.61960589 0 21447
0.14150000 0.14148400 11443.46914657 0 253.41672705 0 3548.27042836 0 33.42535561 0 -179.32072937 0 21771
0.14250000 0.14249400 11260.55434056 0 417.55065570 0 3308.20028164 0 -142.54843141 0 -293.60815891 0 22470
0.14350000 0.14350900 10964.83468931 0 266.01813993 0 3543.35431614 0 96.17520988 0 -96.48744944 0 22519
0.14450000 0.14449900 10692.17869065 0 250.39066068 0 3194.90825410 0 549.95130142 0 151.35868027 0 22218
0.14550000 0.14550500 10655.32999365 0 1.52488057 0 2834.07226058 0 648.67325673 0 85.54998554 0 23559
0.14650000 0.14650700 10582.73983214 0 0.02749048 0 2644.44762574 0 406.90240092 0 -269.57346343 0 23044
0.14750000 0.14750500 10635.27801340 0 -16.63616804 0 2626.01220491 0 -55.55195736 0 -294.15513176 0 23649
0.14850000 0.14849900 10430.11890684 0 152.40058604 0 2520.72546821 0 -374.15489304 0 -418.70549918 0 23640
0.14950000 0.14949500 10292.08023333 0 328.12502430 0 2488.07318232 0 -111.53374236 0 -338.95265074 0 24457
0.15050000 0.15050000 10215.11650351 0 83.65971825 0 2497.48465842 0 -140.33175198 0 -24.47736703 0 24591
0.15150000 0.15149900 10257.51243524 0 -94.89159527 0 2630.95046178 0 464.24264946 0 -469.01703592 0 25020
0.15250000 0.15250500 10112.88572846 0 94.07135745 0 2389.45198516 0 383.54311725 0 -114.75468165 0 25297
0.15350000 0.15350100 10127.80014999 0 133.14802764 0 2508.26910279 0 223.54691639 0 -125.20806351 0 25452
0.15450000 0.15450400 9953.84285477 0 179.39048501 0 2542.84797320 0 -30.94925161 0 269.99089008 0 26061
0.15550000 0.15549900 9828.43770387 0 333.56153579 0 2572.17856165 0 23.99516728 0 679.85070896 0 26128
0.15650000 0.15649500 9606.38222963 0 123.58486070 0 2350.37775088 0 93.38387680 0 627.42325094 0 26331
0.15750000 0.15749700 9515.14627313 0 47.09447277 0 2459.59516289 0 29.21875796 0 392.79625910 0 27345
0.15850000 0.15849900 9520.41669974 0 167.23971576 0 2572.63252696 0 63.04825343 0 129.43215543 0 26980
0.15950000 0.15949700 9280.06974490 0 353.58472799 0 2594.40071756 0 24.74963550 0 430.33808363 0 27777
0.16050000 0.16050000 9003.08446724 0 331.13558942 0 2530.66841590 0 -189.90587189 0 704.59514046 0 28224
0.16150000 0.16150500 8845.31491090 0 171.10174266 0 2761.22743560 0 85.13986663 0 807.67737729 0 28075
0.16250000 0.16249700 8684.35652501 0 75.36078935 0 2601.52022241 0 285.50210991 0 999.60173400 0 28590
0.16350000 0.16349900 8774.23058556 0 -25.84059166 0 2776.99442614 0 257.33743727 0 804.59152036 0 29163
0.16450000 0.16449100 8837.67500677 0 -121.40361271 0 2668.82888499 0 270.58879562 0 785.41425378 0 28996
0.16550000 0.16550500 8710.47613926 0 21.92563905 0 2509.13274413 0 152.56224198 0 770.20309394 0 30777
0.16650000 0.16650700 8794.26042116 0 64.38689750 0 2292.41413045 0 8.46635352 0 698.97704285 0 29211
0.16750000 0.16749900 8675.12220611 0 97.31510572 0 2281.45252888 0 7.77790958 0 596.88356463 0 30922
0.16850000 0.16850800 8629.26063671 0 148.52748681 0 2052.33291141 0 -36.18978295 0 317.90194680 0 30867
0.16950000 0.16949900 8459.46653562 0 112.71848112 0 2008.68580697 0 12.71944386 0 171.30325897 0 30852
0.17050000 0.17049200 8412.76346953 0 127.78127180 0 1978.43621557 0 131.97214675 0 35.83602217 0 31257
0.17150000 0.17149500 8310.44411588 0 32.99508507 0 1719.01164507 0 271.11583828 0 381.85680218 0 32608
0.17250000 0.17250900 8277.52609420 0 27.70893575 0 1844.66038711 0 324.34161091 0 117.36885754 0 32361
0.17350000 0.17350400 8223.13883469 0 48.97754305 0 1455.09171069 0 259.87299966 0 208.89048003 0 32508
0.17450000 0.17449800 8280.72599607 0 94.90023168 0 1610.56929580 0 171.82255100 0 546.29632699 0 32791
0.17550000 0.17549800 8100.59034360 0 170.87586723 0 1408.68759738 0 50.24665292 0 783.24850704 0 33633
0.17650000 0.17650100 8098.05478121 0 123.32466106 0 1545.29794099 0 46.30235865 0 822.16551432 0 33984
0.17750000 0.17750300 8045.05156231 0 17.14615932 0 1527.52685966 0 59.56235341 0 1000.13984899 0 34069
0.17850000 0.17849800 7980.61063186 0 70.04651633 0 1494.18808963 0 103.68036382 0 1065.36802173 0 34536
