### header ###
fiducial parameters:
Omega_m = 0.31
Omega_nu = 0
Omega_de = 0.69
Omega_k = 0
H_0 = 100
w_de = -1
zeff = 0
beta = 0
fgrowth = 0
b_1 = 2
gamma = 0.55
Lx = 3500 Ly = 3500 Lz = 3500
nx = 700 ny = 700 nz = 700
xoffset = -685.467585 yoffset = -31.7331281 zoffset = 572.489161
bins = 400 dk = 0.001
kx_ny = 0.628318531 ky_ny = 0.628318531 kz_ny = 0.628318531
############################
A(data) = 8.07138437 (not used)
A(ran) = 8.07264996 (used)
Ngal = 480337
weighted Ngal = 0
Nran = 23820508
weighted Nran = 0
SN(data) = 3487.07471
SN(ran) = 70.3157089
SN(data+ran) = 3557.39042
############################
13 columns: k_central k_mean P_0(k) sigma^{lin}_{P_0(k)} P^img_1(k) sigma^{lin}_{P_1(k)} P_2(k) sigma^{lin}_{P_2(k)} P^img_3(k) sigma^{lin}_{P_3(k)} P_4(k) sigma^{lin}_{P_4(k)} N_modes
### header ###
0.00050000 0 0 0 0 0 0 0 0 0 0 0 0
0.00150000 0.00179520 40589.59265968 0 -54210.65592833 0 -19955.76174389 0 -5989.65161692 0 8599.79718037 0 3
0.00250000 0.00253879 46896.61032288 0 -17845.59807996 0 13380.12948060 0 -30016.96186010 0 -16611.14458593 0 6
0.00350000 0.00331552 60426.21618853 0 1502.93522623 0 -2147.95350854 0 -10774.04746036 0 6043.96137016 0 7
0.00450000 0.00420575 63406.00024372 0 -2373.19781233 0 584.36519419 0 -25595.00749728 0 12607.28120826 0 24
0.00550000 0.00557378 68759.46929354 0 13367.06413731 0 26197.00979767 0 -49900.31059968 0 -19988.64654861 0 45
0.00650000 0.00659388 62003.46885894 0 8641.99381025 0 56678.89857691 0 -26870.76076288 0 6080.30074021 0 40
0.00750000 0.00754703 53661.57934058 0 13066.00762549 0 43762.25661322 0 -8511.00820765 0 -4521.66064781 0 57
0.00850000 0.00846663 56526.87555715 0 -3623.57330945 0 45268.97857454 0 -523.26810584 0 -35842.77628668 0 75
0.00950000 0.00948925 68500.15544629 0 -14580.48021419 0 42847.46113670 0 9596.59429449 0 -57590.04018623 0 112
0.01050000 0.01054430 80827.74972962 0 -13415.45019677 0 54865.91611110 0 -2474.18848700 0 -27006.50746516 0 105
0.01150000 0.01145670 94139.78441258 0 -7258.67290904 0 28128.35541579 0 19888.77417874 0 -17074.41065634 0 144
0.01250000 0.01249090 101628.21913393 0 -4334.47192443 0 34742.96226244 0 16876.54821183 0 -2306.73064644 0 169
0.01350000 0.01339930 98815.84862999 0 -3688.62321776 0 18488.90015192 0 12157.96626711 0 -12514.49512628 0 180
0.01450000 0.01448870 108756.80329867 0 5118.59182344 0 22710.99905177 0 13753.04538049 0 -5828.67108638 0 267
0.01550000 0.01550050 96139.99989107 0 2577.82544730 0 37077.78339695 0 18450.70063130 0 10382.18681270 0 238
0.01650000 0.01653350 91471.79702428 0 9910.29540125 0 22826.59412287 0 -15032.12034354 0 -10008.55121169 0 315
0.01750000 0.01747870 89531.59354631 0 6440.83778096 0 28353.34505610 0 -18213.75288018 0 -6817.47398199 0 297
0.01850000 0.01844180 82465.56801680 0 5865.09903504 0 26077.42868963 0 -13459.07515655 0 -23622.58355409 0 388
0.01950000 0.01947590 78290.63722068 0 5424.46479655 0 41787.28603532 0 -9193.37344157 0 -11708.98349572 0 399
0.02050000 0.02045430 76121.67951195 0 1756.63540480 0 37355.14513366 0 15421.86617716 0 -21118.35584985 0 462
0.02150000 0.02154770 76144.48850108 0 -1595.40021079 0 32646.30683479 0 22427.87970615 0 -29304.45775802 0 571
0.02250000 0.02255340 78542.31116380 0 2180.89367488 0 34932.74190984 0 2789.52829784 0 -22801.34922229 0 510
0.02350000 0.02348930 72877.15617034 0 10518.87466259 0 27727.86942710 0 180.41135336 0 -17213.92194905 0 555
0.02450000 0.02439640 66729.46926129 0 10000.60128248 0 37992.13598048 0 -7715.33987386 0 11909.06040519 0 592
0.02550000 0.02547300 66455.65066852 0 1352.00836663 0 38788.78975118 0 -71.45602328 0 2588.54345773 0 837
0.02650000 0.02652900 63319.52538689 0 -1676.06209710 0 42337.24840906 0 6518.12260819 0 2496.97533148 0 723
0.02750000 0.02749970 66080.07741067 0 -70.90672525 0 39034.48463890 0 8629.29385369 0 -11945.26690735 0 826
0.02850000 0.02848090 67318.73838814 0 -1239.02636418 0 31474.07980624 0 8387.36355640 0 -4034.01331815 0 831
0.02950000 0.02946900 65251.31389800 0 -309.21460075 0 26863.01013551 0 12517.15248423 0 -4922.31272138 0 996
0.03050000 0.03053250 64499.39231956 0 3822.37690157 0 22497.52462926 0 9390.40546172 0 -5026.25970677 0 1041
0.03150000 0.03150510 57689.58038635 0 3408.94736516 0 9921.12413493 0 7806.94121708 0 5616.81322330 0 1036
0.03250000 0.03246190 58798.36299369 0 980.57726550 0 9539.67147260 0 9521.30248573 0 5093.66802027 0 1059
0.03350000 0.03345080 58675.12801846 0 -3048.70927719 0 7958.06737853 0 3989.19254729 0 13217.69847551 0 1302
0.03450000 0.03451200 56487.56880404 0 2831.65849377 0 10679.97698870 0 1960.94194236 0 6238.19209212 0 1339
0.03550000 0.03553350 56350.05052979 0 4379.51414179 0 11178.95130665 0 -4088.44486696 0 14006.15872584 0 1365
0.03650000 0.03647120 52118.98304684 0 2704.35997533 0 16176.33439030 0 -6055.97484258 0 13253.12991493 0 1308
0.03750000 0.03744890 51738.20579633 0 3589.88022503 0 21293.18785874 0 -2562.21346931 0 10905.78598105 0 1579
0.03850000 0.03847530 46539.30640098 0 4465.10321264 0 22181.29903244 0 -6544.13149919 0 6845.18801101 0 1662
0.03950000 0.03950240 47367.62702067 0 2945.44877593 0 29522.69328020 0 -742.98067614 0 8969.97821603 0 1683
0.04050000 0.04050350 42354.41051253 0 -383.62948139 0 24646.21998357 0 -1353.64707070 0 7807.70520749 0 1822
0.04150000 0.04152450 45661.16031962 0 -1112.70221033 0 27670.29333804 0 8755.80623706 0 8058.15012257 0 1887
0.04250000 0.04250150 45621.07850377 0 -1894.66300599 0 24089.39276844 0 8292.87233640 0 5945.97129551 0 1920
0.04350000 0.04349210 46809.69257305 0 437.65024694 0 25589.80350461 0 8661.85756098 0 3756.03153125 0 2005
0.04450000 0.04448520 45066.24430711 0 2465.24204855 0 20766.80953686 0 2018.34087422 0 8965.70429865 0 2151
0.04550000 0.04548030 41991.57042822 0 2001.65488071 0 19118.14037136 0 1688.23058207 0 5520.08539369 0 2274
0.04650000 0.04648670 41813.19527539 0 434.74154721 0 16222.06309180 0 825.54700232 0 7787.71966119 0 2311
0.04750000 0.04749250 41770.78827134 0 -1502.80235834 0 15709.85734569 0 2529.02971183 0 2241.69181046 0 2568
0.04850000 0.04851840 42942.46168365 0 -527.50769901 0 11580.43380457 0 664.29962875 0 438.17064621 0 2493
0.04950000 0.04949480 42546.07245514 0 -292.94492666 0 9927.18069660 0 1321.59269035 0 -2626.93120787 0 2644
0.05050000 0.05050630 41883.72598449 0 657.72377504 0 10111.56812181 0 -119.30651439 0 -1960.29974752 0 2829
0.05150000 0.05149060 40091.78093584 0 2649.27515936 0 10724.73132561 0 1137.93603859 0 -3756.13118218 0 2784
0.05250000 0.05249300 39605.26298331 0 1853.75076579 0 11704.88673554 0 -196.49611963 0 -109.76084171 0 3055
0.05350000 0.05348950 37824.61170597 0 1305.59318099 0 13313.03119220 0 -662.46051560 0 1779.01257326 0 3009
0.05450000 0.05448610 37596.18964496 0 581.65247461 0 14303.33992398 0 -233.78770962 0 5253.22022091 0 3336
0.05550000 0.05550870 37370.20349541 0 398.42542904 0 17201.63166850 0 -1099.02788917 0 7337.61858499 0 3349
0.05650000 0.05647670 38613.40412605 0 220.66479024 0 19207.16186291 0 2053.56193946 0 3893.10691251 0 3324
0.05750000 0.05747970 37331.22891205 0 412.73751610 0 17286.11350687 0 1266.15355999 0 2721.86532087 0 3639
0.05850000 0.05849280 37340.41894165 0 631.40818064 0 15338.93446426 0 -352.28372982 0 843.06231295 0 3846
0.05950000 0.05951020 36473.78807810 0 149.73547745 0 16226.38129848 0 -1093.66113333 0 -1552.69425397 0 3787
0.06050000 0.06049470 37275.75656471 0 225.07600445 0 15406.25419916 0 1055.23573728 0 -2037.45170685 0 3930
0.06150000 0.06148310 35872.11794745 0 1095.81580774 0 13473.57990207 0 561.52298809 0 -2521.17943353 0 4083
0.06250000 0.06249100 35158.39588964 0 603.26454542 0 12423.36989302 0 1689.39317618 0 -3578.37607954 0 4303
0.06350000 0.06350600 35123.18589672 0 390.04146469 0 13336.17235107 0 905.99297829 0 -3799.45718919 0 4470
0.06450000 0.06451750 34065.66815329 0 1836.44472210 0 14289.49951795 0 1102.14253415 0 -281.67108553 0 4479
0.06550000 0.06550280 33211.32757028 0 1484.37800984 0 15784.92770796 0 1040.05447272 0 2008.23184166 0 4636
0.06650000 0.06648880 32074.86415090 0 475.26293435 0 14827.28233439 0 2019.45917902 0 5259.47608443 0 4653
0.06750000 0.06749660 31754.54179389 0 1644.40632044 0 15549.86225206 0 1802.98415649 0 5830.94091297 0 5220
0.06850000 0.06852730 30263.76398031 0 1152.98332802 0 15185.69348877 0 98.63348744 0 5722.24390023 0 5029
0.06950000 0.06949320 29555.02446867 0 485.04090440 0 14235.79874258 0 1289.59367163 0 4634.96374768 0 5040
0.07050000 0.07048030 28810.96424086 0 -18.41106171 0 15016.39764230 0 1361.86273572 0 4031.65491297 0 5475
0.07150000 0.07148790 29355.39045219 0 21.80450782 0 13225.78127262 0 1379.93276982 0 4425.18748167 0 5509
0.07250000 0.07249820 29030.41771876 0 -292.34923558 0 10591.50911340 0 1530.21743459 0 2771.81257813 0 5916
0.07350000 0.07351270 28839.97373188 0 232.44906555 0 10477.32022754 0 2165.69137290 0 2744.55251442 0 5721
0.07450000 0.07449140 28884.92737064 0 258.39595153 0 10625.50115059 0 1780.13087807 0 3000.32321773 0 6028
0.07550000 0.07549160 27941.67601934 0 800.23456055 0 9322.13350689 0 594.39561324 0 2135.77395124 0 6183
0.07650000 0.07648840 27726.87291786 0 1009.03978368 0 10001.49814079 0 743.29291570 0 4607.42687586 0 6330
0.07750000 0.07749960 27598.10178022 0 484.73198654 0 10187.56855936 0 -245.86872323 0 4039.18409384 0 6583
0.07850000 0.07848650 26463.74210255 0 972.62844351 0 11062.37079863 0 -1207.79133587 0 4320.88618188 0 6549
0.07950000 0.07947320 26384.24281035 0 1244.80611774 0 11935.96615450 0 -813.35194376 0 3114.46781429 0 6828
0.08050000 0.08048110 24902.65502637 0 1218.13288725 0 12171.47450339 0 -284.20111175 0 4273.40805306 0 7147
0.08150000 0.08149960 24355.46073383 0 516.58374334 0 11294.87854750 0 1483.94618917 0 3026.40961501 0 7386
0.08250000 0.08250610 23867.39265583 0 -270.37067082 0 9604.25634327 0 2342.05136261 0 2582.78584882 0 7227
0.08350000 0.08350160 24232.89009809 0 -388.45480054 0 9233.58812531 0 1928.10142694 0 581.13539704 0 7798
0.08450000 0.08449610 23408.11262235 0 350.19770383 0 7999.21213756 0 940.08134470 0 855.40574065 0 7371
0.08550000 0.08548940 23002.75481074 0 1078.42007822 0 7675.88918053 0 1223.42545851 0 917.34654015 0 8256
0.08650000 0.08650700 22686.41849067 0 583.32328842 0 6508.02464796 0 -887.87754765 0 701.56243069 0 8037
0.08750000 0.08749060 21896.74028460 0 431.38774003 0 7282.20159927 0 -44.42947491 0 217.34309280 0 8155
0.08850000 0.08849210 21456.17248007 0 509.19960992 0 7860.09944853 0 -728.43385580 0 -907.46670472 0 8718
0.08950000 0.08949900 21128.09949569 0 670.42926777 0 8253.70952351 0 -480.57654303 0 236.73848418 0 8571
0.09050000 0.09049190 20672.91622240 0 405.46964209 0 8314.64052699 0 -288.37980713 0 -32.55938908 0 8932
0.09150000 0.09150830 20471.84280369 0 191.24340873 0 8158.85291679 0 658.63613460 0 -157.10632408 0 9285
0.09250000 0.09250820 20256.59680922 0 -81.33165123 0 7910.79962388 0 1578.60349404 0 -447.13037145 0 9204
0.09350000 0.09350330 20071.24609175 0 43.83068358 0 6512.54215648 0 2077.10170203 0 -1160.50143657 0 9349
0.09450000 0.09448040 19616.94860444 0 325.87180620 0 5520.81616712 0 1198.24699187 0 -1166.66872149 0 9564
0.09550000 0.09549270 19413.66072077 0 600.44220982 0 4645.23886512 0 771.85176311 0 -347.20042550 0 10155
0.09650000 0.09649430 18758.06836826 0 693.65457631 0 4270.00884934 0 145.93434834 0 -553.77789687 0 9913
0.09750000 0.09749140 18421.80186352 0 284.15239352 0 4442.69282721 0 -268.60795671 0 -758.08111273 0 10476
0.09850000 0.09850240 18104.91192721 0 301.26467153 0 5377.70636884 0 -707.28239370 0 -1245.93549487 0 10575
0.09950000 0.09950330 18107.79073166 0 468.54535489 0 6012.56025697 0 -1263.86158875 0 -1096.59197771 0 10882
0.10050000 0.10051200 17742.29328940 0 399.36768388 0 6646.61693771 0 -721.45496946 0 -775.11477723 0 10875
0.10150000 0.10150300 17791.23296510 0 577.46270689 0 6902.19941150 0 -349.17462102 0 -213.32937505 0 11118
0.10250000 0.10250800 17133.42614762 0 323.47686234 0 6880.92947552 0 478.95334022 0 -413.64323227 0 11575
0.10350000 0.10349800 17016.17022779 0 9.88530516 0 6785.78498836 0 1126.69762890 0 -465.47610645 0 11364
0.10450000 0.10450100 16863.26142205 0 1.17220488 0 6388.26638272 0 687.22487729 0 -1502.86879228 0 12093
0.10550000 0.10551000 16444.39537416 0 419.82934015 0 5730.62565011 0 247.92928287 0 -1207.03841778 0 12067
0.10650000 0.10649700 16309.75590436 0 318.85970289 0 5464.71269727 0 676.20237793 0 -143.15298035 0 12054
0.10750000 0.10749900 16279.63918086 0 -215.50840857 0 4935.53307721 0 731.43002689 0 307.08760715 0 12807
0.10850000 0.10850100 16390.03025930 0 -333.86602472 0 4604.43734816 0 1422.92660709 0 -570.74734189 0 12736
0.10950000 0.10950300 16399.44173539 0 8.66143681 0 4649.35776995 0 951.91876717 0 -324.14120183 0 12933
0.11050000 0.11050200 16078.89793189 0 594.92819206 0 3951.76808940 0 746.61461315 0 528.30379916 0 13428
0.11150000 0.11150900 15840.40005530 0 390.45778410 0 4046.01571826 0 600.53078842 0 673.49740898 0 13453
0.11250000 0.11250000 15429.72752778 0 321.39969421 0 3601.25150262 0 -196.97776576 0 1407.96789626 0 13668
0.11350000 0.11349100 15219.02118648 0 475.67261037 0 4076.78570893 0 -396.43905397 0 1181.54992605 0 13791
0.11450000 0.11448600 14831.48981782 0 255.74523696 0 4123.45555804 0 -192.11922963 0 1467.76952261 0 14205
0.11550000 0.11549300 14576.49417725 0 285.09575559 0 4438.77322422 0 -496.26602730 0 365.86836514 0 14776
0.11650000 0.11649800 14666.51217803 0 218.43260956 0 4762.00760265 0 71.06063056 0 445.33886930 0 14553
0.11750000 0.11747300 14349.06862548 0 250.54678046 0 4725.45785843 0 -105.92992805 0 142.80530935 0 14568
0.11850000 0.11849100 14055.65201778 0 364.94271879 0 4675.23379305 0 -206.77898769 0 48.10570819 0 16015
0.11950000 0.11950300 13934.74223076 0 357.22087946 0 4973.72152551 0 -108.80297489 0 -399.67881621 0 15270
0.12050000 0.12050700 13555.62582897 0 227.73004071 0 4896.22632410 0 148.79543708 0 -256.60334214 0 15999
0.12150000 0.12150000 13668.45281887 0 -185.13591436 0 4686.80437248 0 138.74730230 0 319.68569833 0 15670
0.12250000 0.12250700 13997.63303573 0 -405.91364232 0 4377.60970192 0 861.88194344 0 -250.21461072 0 16887
0.12350000 0.12352200 14231.92342890 0 -164.54581913 0 4570.96571023 0 355.27104306 0 40.44963847 0 16407
0.12450000 0.12449800 14302.67558449 0 151.50262049 0 4362.57348482 0 -133.44144425 0 -62.41923466 0 16306
0.12550000 0.12549900 14191.62016656 0 298.21978220 0 4254.72904109 0 -189.87265492 0 475.87634115 0 17523
0.12650000 0.12650100 13956.33326416 0 69.71811118 0 4979.06945840 0 -160.42912876 0 646.37907103 0 17154
0.12750000 0.12750600 14009.36970004 0 -55.04462343 0 4597.58357910 0 176.26033879 0 32.18647319 0 18007
0.12850000 0.12850300 14080.78619512 0 119.60103823 0 5010.20483579 0 224.51353035 0 -130.00127293 0 17496
0.12950000 0.12949900 13691.81542424 0 384.38793564 0 4283.25134982 0 157.69426453 0 38.66721562 0 18405
0.13050000 0.13049000 13495.94599820 0 272.43012323 0 4649.42420390 0 555.82849143 0 490.74315168 0 18100
0.13150000 0.13148800 13258.11246110 0 197.51477351 0 4054.97322903 0 337.87088461 0 182.18624703 0 19059
0.13250000 0.13249300 12969.34622982 0 282.65320074 0 3909.59360416 0 612.40585679 0 584.66525419 0 18957
0.13350000 0.13349100 12799.93966010 0 223.97652259 0 3702.27539426 0 130.05774178 0 139.82242504 0 19468
0.13450000 0.13450700 12526.45323708 0 71.77313466 0 3141.75002264 0 478.75403837 0 728.91328746 0 19953
0.13550000 0.13551000 12640.71962921 0 149.64246992 0 3499.66292240 0 213.30723040 0 423.13221464 0 19956
0.13650000 0.13649900 12315.19327954 0 209.50277959 0 3155.91152608 0 165.47810888 0 845.97876330 0 19723
0.13750000 0.13749600 12192.29047405 0 304.80670824 0 3340.34324059 0 -54.54382218 0 333.03227866 0 20946
0.13850000 0.13851100 11926.99757140 0 407.50473539 0 3322.61644855 0 -275.37979056 0 517.65222269 0 20955
0.13950000 0.13949800 11535.59088906 0 250.16257079 0 3732.21496057 0 -225.22880253 0 445.74300915 0 20506
0.14050000 0.14048300 11330.53143342 0 215.51062304 0 3641.76513913 0 0.50550256 0 436.44779247 0 21447
0.14150000 0.14148400 11291.88901980 0 136.07222863 0 3382.36271328 0 384.80646951 0 994.01796059 0 21771
0.14250000 0.14249400 11110.52433927 0 111.17942797 0 3535.93585851 0 611.00410047 0 829.13443556 0 22470
0.14350000 0.14350900 11109.41710679 0 225.47128644 0 3118.15489845 0 171.07295461 0 803.32152471 0 22519
0.14450000 0.14449900 11007.90603285 0 132.84575317 0 3148.52628543 0 526.78246173 0 686.77534090 0 22218
0.14550000 0.14550500 10772.65234743 0 50.86747817 0 3101.81214702 0 -284.62407456 0 854.88534139 0 23559
0.14650000 0.14650700 10873.74267302 0 188.40446465 0 3265.50539714 0 -164.68533042 0 763.64384872 0 23044
0.14750000 0.14750500 10627.78204950 0 67.98385294 0 3153.40918068 0 -336.76365213 0 510.24594462 0 23649
0.14850000 0.14849900 10705.66478228 0 48.47198070 0 3114.27958477 0 208.28260940 0 329.84455635 0 23640
0.14950000 0.14949500 10651.36610137 0 -49.77220380 0 3109.05344745 0 -3.11945036 0 -226.16552121 0 24457
0.15050000 0.15050000 10554.47218688 0 265.18107217 0 3044.93361443 0 122.87623191 0 1.70436296 0 24591
0.15150000 0.15149900 10343.73262860 0 259.65930379 0 2822.31345162 0 229.62340825 0 197.45941189 0 25020
0.15250000 0.15250500 10116.88283772 0 154.48661203 0 2862.86030511 0 239.61728863 0 335.72949699 0 25297
0.15350000 0.15350100 10042.13357287 0 255.10193489 0 2906.20845677 0 245.02169038 0 601.04675876 0 25452
0.15450000 0.15450400 9833.28738214 0 226.15555612 0 3093.85114548 0 9.58544446 0 388.69396276 0 26061
0.15550000 0.15549900 9616.13694780 0 241.04783300 0 3130.11300926 0 104.14606580 0 791.30583781 0 26128
0.15650000 0.15649500 9482.79294001 0 15.72879102 0 3055.00943001 0 134.82769932 0 746.33669780 0 26331
0.15750000 0.15749700 9429.22503253 0 44.07792859 0 3012.90137873 0 442.95721223 0 724.66040750 0 27345
0.15850000 0.15849900 9367.46360470 0 70.11217522 0 2533.94582405 0 146.50235861 0 342.53897675 0 26980
0.15950000 0.15949700 9293.86586163 0 107.68311996 0 2447.13879747 0 83.83820412 0 71.57770813 0 27777
0.16050000 0.16050000 9138.83116952 0 196.97665852 0 2211.37578510 0 -12.20790245 0 236.55911252 0 28224
0.16150000 0.16150500 9025.83809474 0 150.12633052 0 2024.64102704 0 -64.57844872 0 352.91706680 0 28075
0.16250000 0.16249700 9018.29784154 0 -7.18633741 0 2057.68084430 0 47.50049492 0 -106.17639800 0 28590
0.16350000 0.16349900 9025.41734640 0 70.06257120 0 2228.71504577 0 -149.38337752 0 -233.15769433 0 29163
0.16450000 0.16449100 8869.13148158 0 263.82581962 0 2317.17184875 0 -205.99838879 0 -91.34136504 0 28996
0.16550000 0.16550500 8777.71836788 0 117.93243888 0 2686.10171170 0 -123.90042195 0 -61.77615403 0 30777
0.16650000 0.16650700 8753.04922818 0 89.24991360 0 2695.75677895 0 42.01836545 0 131.70641095 0 29211
0.16750000 0.16749900 8632.15051349 0 135.73562995 0 2746.88877496 0 12.77834863 0 7.92553689 0 30922
0.16850000 0.16850800 8545.64243968 0 180.20762259 0 2691.32784902 0 289.61547858 0 127.20329645 0 30867
0.16950000 0.16949900 8424.82123126 0 74.65182839 0 2517.35948147 0 217.53132232 0 473.87003589 0 30852
0.17050000 0.17049200 8341.14767261 0 -175.49745561 0 2229.06936017 0 454.45249986 0 281.07317999 0 31257
0.17150000 0.17149500 8540.90348466 0 -198.65522297 0 2215.80471503 0 466.79039140 0 242.05320009 0 32608
0.17250000 0.17250900 8703.06875395 0 2.39602895 0 2003.12749992 0 184.86021347 0 -247.52625025 0 32361
0.17350000 0.17350400 8556.72583682 0 239.19764752 0 1971.15062584 0 -186.14903208 0 -174.35368445 0 32508
0.17450000 0.17449800 8365.76145068 0 346.54383664 0 1827.93010431 0 -295.93999052 0 225.29191478 0 32791
0.17550000 0.17549800 8174.36524386 0 146.73709189 0 2037.14168176 0 -97.92485865 0 404.41334230 0 33633
0.17650000 0.17650100 8167.74399362 0 35.49765192 0 2096.34540256 0 -15.39329958 0 171.24457565 0 33984
0.17750000 0.17750300 8151.63376101 0 -37.36378155 0 2051.52463170 0 189.29357233 0 -242.39533493 0 34069
