### header ###
fiducial parameters:
Omega_m = 0.31
Omega_nu = 0
Omega_de = 0.69
Omega_k = 0
H_0 = 100
w_de = -1
zeff = 0
beta = 0
fgrowth = 0
b_1 = 2
gamma = 0.55
Lx = 3500 Ly = 3500 Lz = 3500
nx = 700 ny = 700 nz = 700
xoffset = -685.467585 yoffset = -31.7331281 zoffset = 572.489161
bins = 400 dk = 0.001
kx_ny = 0.628318531 ky_ny = 0.628318531 kz_ny = 0.628318531
############################
A(data) = 8.04573466 (not used)
A(ran) = 8.03952837 (used)
Ngal = 477737
weighted Ngal = 0
Nran = 23820508
weighted Nran = 0
SN(data) = 3491.82233
SN(ran) = 70.0272078
SN(data+ran) = 3561.84953
############################
13 columns: k_central k_mean P_0(k) sigma^{lin}_{P_0(k)} P^img_1(k) sigma^{lin}_{P_1(k)} P_2(k) sigma^{lin}_{P_2(k)} P^img_3(k) sigma^{lin}_{P_3(k)} P_4(k) sigma^{lin}_{P_4(k)} N_modes
### header ###
0.00050000 0 0 0 0 0 0 0 0 0 0 0 0
0.00150000 0.00179520 53099.65885603 0 -43084.40888782 0 32254.23581296 0 -77394.55397310 0 -72002.22106318 0 3
0.00250000 0.00253879 91126.34048994 0 -32392.08625695 0 11324.66310126 0 -46596.55032029 0 62016.09130924 0 6
0.00350000 0.00331552 89183.36893077 0 2405.94974914 0 12765.94762291 0 -28987.01420547 0 13109.41113878 0 7
0.00450000 0.00420575 82210.57237622 0 25343.44427740 0 17665.11918541 0 -21991.63010830 0 56671.25867278 0 24
0.00550000 0.00557378 77712.66186514 0 -7569.93810434 0 29901.25606575 0 42444.42851330 0 12337.89154542 0 45
0.00650000 0.00659388 76868.95071396 0 -20939.86997378 0 15452.75796340 0 41756.17280258 0 38711.17275420 0 40
0.00750000 0.00754703 96109.10810483 0 -16462.11109387 0 31432.78003466 0 21690.79504298 0 -42018.14400778 0 57
0.00850000 0.00846663 115203.11080809 0 10869.12551357 0 52621.22370062 0 27848.22559787 0 30031.90949861 0 75
0.00950000 0.00948925 98322.24438958 0 9023.41325561 0 24054.51494526 0 1123.27628053 0 -18867.35221422 0 112
0.01050000 0.01054430 97373.34615262 0 13310.81672723 0 39706.35330890 0 -4646.70041199 0 43351.58408569 0 105
0.01150000 0.01145670 81366.63977855 0 10778.22172681 0 33662.63552989 0 5038.41711943 0 -16062.95378415 0 144
0.01250000 0.01249090 80250.21726708 0 5679.62652200 0 36970.82473920 0 -9160.64364941 0 -18740.24192530 0 169
0.01350000 0.01339930 71816.20600622 0 6476.64567942 0 34792.67700088 0 -23110.04563823 0 -48238.79753740 0 180
0.01450000 0.01448870 68728.46678405 0 5264.63578780 0 37630.62457515 0 -19042.95928585 0 -50102.60197412 0 267
0.01550000 0.01550050 63883.54961315 0 1551.32128569 0 28371.06077581 0 -7785.04015859 0 -34300.62288594 0 238
0.01650000 0.01653350 64154.82157121 0 -7535.92392249 0 19964.61960375 0 19673.86035401 0 -39979.39683893 0 315
0.01750000 0.01747870 74029.12084448 0 -14428.12502468 0 2766.79681498 0 38320.76258109 0 -33848.42914035 0 297
0.01850000 0.01844180 82629.32770086 0 -13197.10395134 0 -2275.93851112 0 29403.33361865 0 -44450.06943095 0 388
0.01950000 0.01947590 88272.78093768 0 -2785.37617603 0 -16134.25955599 0 9024.80836853 0 -25953.08648191 0 399
0.02050000 0.02045430 86395.02537169 0 9123.18597455 0 -12081.45650262 0 -9602.92766429 0 -10534.67487010 0 462
0.02150000 0.02154770 75520.78444404 0 8438.56198636 0 1098.14099596 0 -27352.18544600 0 7283.61885685 0 571
0.02250000 0.02255340 71275.76583182 0 5735.19852026 0 12104.15476850 0 -12195.16927851 0 21021.91590068 0 510
0.02350000 0.02348930 69450.05019248 0 3613.44213224 0 24991.67651791 0 -12074.14876824 0 7578.44164980 0 555
0.02450000 0.02439640 69355.82470827 0 6075.70572541 0 33558.33423010 0 -331.90400876 0 27662.54271067 0 592
0.02550000 0.02547300 70464.82876211 0 -893.32180976 0 30971.94987571 0 10605.22772385 0 20533.84782268 0 837
0.02650000 0.02652900 72571.56000535 0 -3083.65353432 0 33352.27826522 0 15414.33699628 0 25053.79226014 0 723
0.02750000 0.02749970 73319.05265386 0 1702.09313275 0 23729.43148859 0 5840.13094257 0 4858.96795109 0 826
0.02850000 0.02848090 74822.34219448 0 1214.50116471 0 28858.13234458 0 5690.77635309 0 18882.07840623 0 831
0.02950000 0.02946900 66601.47318638 0 5867.11419815 0 19155.56482925 0 2347.14463203 0 12101.94030353 0 996
0.03050000 0.03053250 65713.47273593 0 2589.71712416 0 13585.63182923 0 8174.66419663 0 8580.38739496 0 1041
0.03150000 0.03150510 59947.44886337 0 2834.94697424 0 16081.11239686 0 -1164.98572812 0 1919.08855454 0 1036
0.03250000 0.03246190 55121.90826091 0 6487.04259242 0 11681.63485342 0 -5363.01339381 0 -3902.76197975 0 1059
0.03350000 0.03345080 53464.71340530 0 4615.41002205 0 19430.15848475 0 -6217.21003659 0 -6187.64692933 0 1302
0.03450000 0.03451200 46967.80537146 0 2682.00495152 0 19870.72628929 0 -11622.84080863 0 -6901.80080781 0 1339
0.03550000 0.03553350 46835.04819689 0 2175.75611616 0 27791.09240181 0 -2131.87649291 0 -13520.30511280 0 1365
0.03650000 0.03647120 47781.28907589 0 -498.36312562 0 27662.43198742 0 -2372.90993188 0 -8450.05505952 0 1308
0.03750000 0.03744890 49828.89410460 0 -2382.77537330 0 29813.23108344 0 6284.30832499 0 -12560.33455102 0 1579
0.03850000 0.03847530 50531.54383759 0 -2018.63982699 0 26967.86505154 0 4518.94792823 0 -10274.84062358 0 1662
0.03950000 0.03950240 51990.21190920 0 776.29397983 0 26112.41723605 0 7954.03705230 0 -4427.43516361 0 1683
0.04050000 0.04050350 50411.18766681 0 1473.34997432 0 22149.74290671 0 2504.93633302 0 -1445.37020950 0 1822
0.04150000 0.04152450 51361.63602925 0 1752.63829554 0 27751.45347896 0 3129.38223582 0 -4833.11407264 0 1887
0.04250000 0.04250150 48358.71081518 0 2306.11059625 0 21875.37069770 0 201.33472557 0 2575.10165540 0 1920
0.04350000 0.04349210 47871.97141615 0 7.34244612 0 23802.50883239 0 453.19689822 0 2721.25634300 0 2005
0.04450000 0.04448520 48181.88578783 0 -494.11688905 0 22202.44717285 0 355.32640469 0 6656.99170607 0 2151
0.04550000 0.04548030 50156.08130299 0 -677.55763049 0 25633.76063414 0 2863.71287412 0 1461.29221259 0 2274
0.04650000 0.04648670 48657.88503178 0 908.44217654 0 24049.42167584 0 3552.02394647 0 716.56432359 0 2311
0.04750000 0.04749250 47378.81006873 0 2221.36302209 0 22454.89617871 0 737.54305742 0 -1537.24836085 0 2568
0.04850000 0.04851840 45077.53807842 0 3514.54412696 0 24106.44414866 0 -189.78296909 0 -2630.38577322 0 2493
0.04950000 0.04949480 41339.96411264 0 3264.90749160 0 20519.89669340 0 640.89051962 0 -808.64288402 0 2644
0.05050000 0.05050630 38830.86458549 0 2039.95405226 0 20104.90595920 0 2780.22754499 0 -2637.52742272 0 2829
0.05150000 0.05149060 36746.38871513 0 1007.28703466 0 15505.24078304 0 5732.96191065 0 -3545.30304531 0 2784
0.05250000 0.05249300 36199.85876208 0 467.47133938 0 13006.77068771 0 4946.07393044 0 -6549.74516787 0 3055
0.05350000 0.05348950 34254.67273794 0 1119.23488197 0 8049.70193873 0 3289.21124458 0 -6760.39614755 0 3009
0.05450000 0.05448610 34538.89931604 0 944.78265382 0 8180.02320184 0 -100.86998633 0 -8988.81224055 0 3336
0.05550000 0.05550870 33920.50997492 0 -677.65617418 0 6768.65610186 0 -2136.85903908 0 -6202.68314643 0 3349
0.05650000 0.05647670 34588.39260798 0 -959.25971852 0 8090.00520107 0 -3388.15353916 0 -8500.79952417 0 3324
0.05750000 0.05747970 36707.52485502 0 -1084.27512359 0 9079.69388266 0 -1642.53509755 0 -9278.40889618 0 3639
0.05850000 0.05849280 36744.17425017 0 -719.67675410 0 11501.26668212 0 -303.54778490 0 -5081.84277736 0 3846
0.05950000 0.05951020 38022.14198074 0 599.86534170 0 11811.95611653 0 631.76138780 0 -9704.29479800 0 3787
0.06050000 0.06049470 37617.22706212 0 776.20318676 0 14883.52974447 0 -232.86095603 0 -2453.05141892 0 3930
0.06150000 0.06148310 36135.86072463 0 1993.57208360 0 12449.27913309 0 3170.00659558 0 -5342.41886965 0 4083
0.06250000 0.06249100 34738.86550226 0 1139.19828362 0 12604.18095731 0 1426.19294292 0 -510.26476757 0 4303
0.06350000 0.06350600 33043.58184928 0 1007.79525437 0 10995.90363275 0 4228.33261872 0 -736.49007933 0 4470
0.06450000 0.06451750 33522.90279068 0 -208.73325302 0 9888.89259738 0 1792.11113352 0 -4167.58984476 0 4479
0.06550000 0.06550280 32549.20254613 0 388.82018726 0 8312.12710926 0 -119.61432502 0 -1168.30742556 0 4636
0.06650000 0.06648880 31966.02319793 0 1224.52161867 0 9097.84142304 0 -412.21933130 0 -2588.11163706 0 4653
0.06750000 0.06749660 31101.27462959 0 1131.34800532 0 9124.40393028 0 -744.47322553 0 437.16085019 0 5220
0.06850000 0.06852730 30862.33386001 0 560.45118704 0 10361.69193946 0 -108.13608877 0 -929.46077074 0 5029
0.06950000 0.06949320 30375.92663072 0 717.60180043 0 10268.82835121 0 1090.80447353 0 1716.19927457 0 5040
0.07050000 0.07048030 30604.90230797 0 779.75961749 0 11998.41406648 0 475.26293435 0 1352.19659615 0 5475
0.07150000 0.07148790 28355.00590482 0 1024.29301835 0 11074.76073011 0 288.01774211 0 2599.94795229 0 5509
0.07250000 0.07249820 28158.02924630 0 1081.46607478 0 12232.37228990 0 831.42308510 0 3160.14115417 0 5916
0.07350000 0.07351270 27468.66630309 0 537.59347969 0 10616.62114609 0 1234.60850658 0 4394.18497218 0 5721
0.07450000 0.07449140 27848.44704437 0 -539.95409934 0 12282.64064457 0 734.37305083 0 2931.95161198 0 6028
0.07550000 0.07549160 27592.56561781 0 -148.69357169 0 10784.74332613 0 473.88553715 0 1638.50477131 0 6183
0.07650000 0.07648840 28366.41039939 0 461.74584021 0 12992.37666545 0 -2030.06646620 0 559.40042342 0 6330
0.07750000 0.07749960 27108.92646973 0 971.87220372 0 11871.41450081 0 -1162.10692367 0 1154.13484980 0 6583
0.07850000 0.07848650 27078.92046947 0 1370.75381255 0 13373.81825545 0 -1305.91427841 0 418.19285054 0 6549
0.07950000 0.07947320 25740.83001514 0 853.82018374 0 12085.33181630 0 751.95368818 0 -92.31705830 0 6828
0.08050000 0.08048110 25013.04610481 0 561.98138233 0 11209.06803016 0 2941.46273900 0 -560.29396003 0 7147
0.08150000 0.08149960 23872.37520199 0 237.02636463 0 8242.41575220 0 3525.15141414 0 -1995.19971535 0 7386
0.08250000 0.08250610 23482.62936838 0 -48.93148218 0 7794.99417860 0 2956.22214798 0 -1688.24165440 0 7227
0.08350000 0.08350160 23447.53009870 0 440.93097679 0 5814.83068036 0 1302.63687026 0 -2142.14053801 0 7798
0.08450000 0.08449610 22182.40626492 0 1056.98184291 0 5112.84528686 0 -525.51025161 0 -1611.62116665 0 7371
0.08550000 0.08548940 21957.19517811 0 856.58162155 0 5444.54999377 0 -444.84172191 0 -581.75433999 0 8256
0.08650000 0.08650700 21314.66816889 0 -218.31967184 0 5641.37163975 0 -199.37381685 0 510.64565554 0 8037
0.08750000 0.08749060 21694.44891017 0 -129.21956680 0 5823.87676974 0 1242.22626605 0 -100.09160190 0 8155
0.08850000 0.08849210 21784.46691094 0 463.73110805 0 6447.81334559 0 -55.03388328 0 -220.61607201 0 8718
0.08950000 0.08949900 21122.78477978 0 799.88688955 0 6956.15485034 0 619.32495257 0 -61.37134984 0 8571
0.09050000 0.09049190 20318.93399795 0 653.74881043 0 6624.93732572 0 -128.17212487 0 2333.86891457 0 8932
0.09150000 0.09150830 20667.71222973 0 316.29756693 0 7463.62164143 0 -212.00844670 0 798.65896873 0 9285
0.09250000 0.09250820 20017.21314664 0 317.33282930 0 7867.76149731 0 -1154.37844094 0 1177.65246771 0 9204
0.09350000 0.09350330 20007.13733105 0 726.59917157 0 8698.90555982 0 -900.45792311 0 1217.91144075 0 9349
0.09450000 0.09448040 19172.39476298 0 494.99824611 0 9054.44898207 0 276.87787611 0 2189.17577384 0 9564
0.09550000 0.09549270 19098.76380293 0 -1.63483983 0 8078.46783861 0 1879.83716306 0 2121.39100130 0 10155
0.09650000 0.09649430 19018.82161774 0 -82.81191034 0 7857.08777618 0 1583.37566604 0 524.33437072 0 9913
0.09750000 0.09749140 18853.51180820 0 457.60479073 0 7349.37739395 0 1005.68265479 0 -182.03344895 0 10476
0.09850000 0.09850240 18350.49609169 0 498.53696112 0 6570.17360716 0 64.67367071 0 1429.14925364 0 10575
0.09950000 0.09950330 17761.22696484 0 330.34502543 0 6410.20065818 0 -85.09447010 0 671.07921324 0 10882
0.10050000 0.10051200 17901.73476679 0 -19.99108246 0 5949.73588595 0 498.52367433 0 406.54697930 0 10875
0.10150000 0.10150300 17563.47524358 0 515.59941367 0 6088.99251519 0 -21.48850367 0 717.91403999 0 11118
0.10250000 0.10250800 16995.90787337 0 1050.19007886 0 6057.56925736 0 138.87131234 0 537.70531017 0 11575
0.10350000 0.10349800 16429.77990540 0 381.66635820 0 6048.76675913 0 448.16009766 0 2005.17588001 0 11364
0.10450000 0.10450100 16142.45307635 0 95.03210307 0 6394.34508904 0 691.70473991 0 1227.69937589 0 12093
0.10550000 0.10551000 16211.98727621 0 -16.03914829 0 6735.89309272 0 -35.17123979 0 1258.33649866 0 12067
0.10650000 0.10649700 16170.57678139 0 -77.86667790 0 6126.76021515 0 681.91901923 0 782.14681072 0 12054
0.10750000 0.10749900 16282.62870856 0 -138.01099270 0 6041.34830150 0 -278.88418137 0 1302.82509979 0 12807
0.10850000 0.10850100 16470.19389098 0 0.59921207 0 5696.93256569 0 115.06802845 0 338.62712439 0 12736
0.10950000 0.10950300 16328.02524031 0 30.14163624 0 5463.15149947 0 333.22715158 0 -700.24039511 0 12933
0.11050000 0.11050200 16050.99567335 0 267.43429027 0 4804.38138973 0 468.77787371 0 -379.92357427 0 13428
0.11150000 0.11150900 16094.28846339 0 -89.47667482 0 4138.00459285 0 353.68880784 0 -608.67116163 0 13453
0.11250000 0.11250000 15844.05392249 0 49.35311631 0 4265.51348546 0 502.71565651 0 -827.83675909 0 13668
0.11350000 0.11349100 16102.81415350 0 259.98040121 0 4187.99613940 0 237.26552684 0 -999.48768905 0 13791
0.11450000 0.11448600 15443.67865705 0 302.60331560 0 3864.44066355 0 71.81875264 0 238.79461490 0 14205
0.11550000 0.11549300 15663.90719769 0 361.48261728 0 4151.88928817 0 334.78613491 0 -118.14170581 0 14776
0.11650000 0.11649800 15266.30001345 0 98.95214895 0 4326.15660849 0 -305.93940706 0 181.36468053 0 14553
0.11750000 0.11747300 14959.26444623 0 292.98921596 0 4436.60304856 0 94.51458261 0 -254.57599946 0 14568
0.11850000 0.11849100 14892.71977407 0 531.93662894 0 4636.12634179 0 -43.25027231 0 478.82490125 0 16015
0.11950000 0.11950300 14340.87510511 0 307.06435527 0 4272.50012242 0 714.81711073 0 754.06739498 0 15270
0.12050000 0.12050700 14290.60675043 0 143.74756419 0 4388.38307397 0 576.86590859 0 545.33746367 0 15999
0.12150000 0.12150000 13975.26693960 0 369.33732451 0 4055.03966298 0 231.67400281 0 785.05329599 0 15670
0.12250000 0.12250700 13581.53506905 0 591.86780148 0 4555.60839571 0 -94.93522023 0 661.16837529 0 16887
0.12350000 0.12352200 13134.87748586 0 471.09531129 0 4476.29733303 0 -107.28828086 0 952.57424880 0 16407
0.12450000 0.12449800 12813.33717313 0 184.20916078 0 4578.17379369 0 138.76944695 0 874.22426392 0 16306
0.12550000 0.12549900 12754.54312834 0 -45.12836005 0 4420.68104547 0 336.86108859 0 817.94695856 0 17523
0.12650000 0.12650100 12824.74166769 0 -157.85370601 0 4240.71147787 0 410.88733063 0 270.80470595 0 17154
0.12750000 0.12750600 12752.10721688 0 54.17478160 0 3767.44709814 0 360.38424266 0 -137.98663359 0 18007
0.12850000 0.12850300 12610.49218245 0 287.41319318 0 3395.12910379 0 136.45422383 0 215.21277750 0 17496
0.12950000 0.12949900 12448.94696335 0 54.33854128 0 2819.92182946 0 174.39908099 0 -383.65494773 0 18405
0.13050000 0.13049000 12426.02725097 0 -136.46197446 0 2723.03898730 0 393.11403483 0 -124.85153466 0 18100
0.13150000 0.13148800 12665.18946706 0 -225.57315183 0 2503.46371382 0 317.48784185 0 -261.10202771 0 19059
0.13250000 0.13249300 12812.11921740 0 -113.89546925 0 2221.34087744 0 360.21483609 0 -735.62865246 0 18957
0.13350000 0.13349100 12590.45127453 0 237.62537740 0 2150.26762443 0 -92.18131160 0 -536.01345894 0 19468
0.13450000 0.13450700 12485.59635850 0 477.06661607 0 2593.39313600 0 -576.78618785 0 -595.16071088 0 19953
0.13550000 0.13551000 12071.26996378 0 530.11855320 0 2833.49649969 0 -152.26771814 0 101.93890857 0 19956
0.13650000 0.13649900 11854.25239734 0 372.59369524 0 2954.43950368 0 -58.46187504 0 432.81496270 0 19723
0.13750000 0.13749600 11717.95207882 0 54.46853037 0 2941.42952202 0 114.95951966 0 250.76711973 0 20946
0.13850000 0.13851100 11690.27126677 0 63.61427067 0 3203.06855749 0 -142.95589297 0 116.57497185 0 20955
0.13950000 0.13949800 11670.56252860 0 201.18414195 0 3198.48461501 0 -243.38741523 0 23.07195684 0 20506
0.14050000 0.14048300 11672.33410057 0 106.11860046 0 3572.39702414 0 -151.42843592 0 340.94013305 0 21447
0.14150000 0.14148400 11366.73793557 0 232.63175890 0 3368.88769397 0 -291.23093077 0 405.13304342 0 21771
0.14250000 0.14249400 11351.56885057 0 245.77682293 0 4129.58962599 0 158.29217007 0 262.13286115 0 22470
0.14350000 0.14350900 11276.94138129 0 72.72867629 0 4054.40854047 0 17.50833507 0 285.71691302 0 22519
0.14450000 0.14449900 11056.42496021 0 117.02340101 0 3972.24081799 0 170.57027106 0 316.48911815 0 22218
0.14550000 0.14550500 10936.88814146 0 265.26522184 0 4130.35361640 0 -174.54302121 0 24.25414896 0 23559
0.14650000 0.14650700 10725.32923115 0 106.78991552 0 4186.40172463 0 273.07010361 0 622.60678964 0 23044
0.14750000 0.14750500 10748.12714796 0 94.49498459 0 4007.93799320 0 91.53457711 0 111.14288930 0 23649
0.14850000 0.14849900 10631.57985692 0 119.84684384 0 3960.20520091 0 148.58506290 0 299.73890517 0 23640
0.14950000 0.14949500 10541.92724286 0 195.70998456 0 3617.12921641 0 324.78228944 0 187.74787579 0 24457
0.15050000 0.15050000 10434.20459470 0 166.52887250 0 3671.49433126 0 101.80515488 0 385.48188133 0 24591
0.15150000 0.15149900 10325.76224542 0 91.52782299 0 3481.72575620 0 356.51003621 0 333.38770029 0 25020
0.15250000 0.15250500 10188.96367229 0 150.14183177 0 3598.22875794 0 137.93791536 0 619.75012984 0 25297
0.15350000 0.15350100 9998.53075773 0 225.43364054 0 3438.35545988 0 651.31622067 0 807.15587079 0 25452
0.15450000 0.15450400 9922.84034527 0 91.41876059 0 3201.69558921 0 575.56491042 0 972.34609923 0 26061
0.15550000 0.15549900 9729.98259158 0 88.44561993 0 2840.73780012 0 801.57874078 0 1276.42867742 0 26128
0.15650000 0.15649500 9621.27450651 0 25.01991095 0 2637.67136295 0 256.01207999 0 912.23444779 0 26331
0.15750000 0.15749700 9502.55703981 0 212.03280581 0 2450.53800119 0 299.50970804 0 1154.48916419 0 27345
0.15850000 0.15849900 9477.28999457 0 64.71330964 0 2332.48487397 0 -127.75580545 0 1450.89529959 0 26980
0.15950000 0.15949700 9439.25655882 0 -7.12299264 0 2330.20397506 0 -220.15324883 0 1237.57588963 0 27777
0.16050000 0.16050000 9429.55720228 0 -1.32313174 0 2490.32086426 0 -66.39586011 0 1004.15688843 0 28224
0.16150000 0.16150500 9421.81764723 0 195.32356043 0 2468.50838437 0 14.13913735 0 862.62268197 0 28075
0.16250000 0.16249700 9274.14605112 0 256.42839940 0 2542.69296065 0 -73.79582696 0 1151.35569627 0 28590
0.16350000 0.16349900 9040.36498490 0 335.55123256 0 2541.91789792 0 51.83398141 0 1039.42224298 0 29163
0.16450000 0.16449100 8834.22044143 0 159.39718809 0 2580.91462593 0 193.30839731 0 1008.61239194 0 28996
0.16550000 0.16550500 8707.59733480 0 96.37207582 0 2540.20168757 0 259.54082991 0 848.18104871 0 30777
0.16650000 0.16650700 8628.44128467 0 131.79720401 0 2272.10748674 0 -82.88277322 0 650.01190080 0 29211
0.16750000 0.16749900 8427.33464899 0 217.83913295 0 2219.32571432 0 -81.86876971 0 450.99129112 0 30922
0.16850000 0.16850800 8261.38264461 0 108.73011900 0 2224.50756234 0 -203.00221769 0 35.84078327 0 30867
0.16950000 0.16949900 8031.72048322 0 176.71098241 0 2084.25442386 0 -43.60990142 0 -49.08450171 0 30852
0.17050000 0.17049200 8103.66844989 0 95.07473152 0 1938.13295323 0 194.81312625 0 -226.20981051 0 31257
0.17150000 0.17149500 7996.47727333 0 -58.53805264 0 1795.62106049 0 -30.14218985 0 -398.86721480 0 32608
0.17250000 0.17250900 8029.28457176 0 8.32802697 0 1886.10409891 0 201.43437650 0 -555.38006228 0 32361
0.17350000 0.17350400 8081.03661797 0 68.07176720 0 1891.77312921 0 -121.63945323 0 -170.75517889 0 32508
0.17450000 0.17449800 8075.74404670 0 70.54222431 0 1879.99217561 0 47.43882207 0 -82.02555383 0 32791
0.17550000 0.17549800 8074.38215075 0 9.33484454 0 2092.32614865 0 -117.66559585 0 206.72584053 0 33633
0.17650000 0.17650100 7981.87287689 0 102.45897567 0 2055.59924723 0 108.61485609 0 -55.49947454 0 33984
0.17750000 0.17750300 7942.89829353 0 151.23909916 0 2146.48088934 0 117.18727142 0 -129.05791085 0 34069
