### header ###
fiducial parameters:
Omega_m = 0.31
Omega_nu = 0
Omega_de = 0.69
Omega_k = 0
H_0 = 100
w_de = -1
zeff = 0
beta = 0
fgrowth = 0
b_1 = 2
gamma = 0.55
Lx = 3500 Ly = 3500 Lz = 3500
nx = 700 ny = 700 nz = 700
xoffset = -685.467585 yoffset = -31.7331281 zoffset = 572.489161
bins = 400 dk = 0.001
kx_ny = 0.628318531 ky_ny = 0.628318531 kz_ny = 0.628318531
############################
A(data) = 8.05031586 (not used)
A(ran) = 8.05529713 (used)
Ngal = 479264
weighted Ngal = 0
Nran = 23820508
weighted Nran = 0
SN(data) = 3475.2418
SN(ran) = 70.1645594
SN(data+ran) = 3545.40636
############################
13 columns: k_central k_mean P_0(k) sigma^{lin}_{P_0(k)} P^img_1(k) sigma^{lin}_{P_1(k)} P_2(k) sigma^{lin}_{P_2(k)} P^img_3(k) sigma^{lin}_{P_3(k)} P_4(k) sigma^{lin}_{P_4(k)} N_modes
### header ###
0.00050000 0 0 0 0 0 0 0 0 0 0 0 0
0.00150000 0.00179520 42989.62978737 0 -36346.34561943 0 35177.99390457 0 -33914.30947302 0 -87533.26036304 0 3
0.00250000 0.00253879 61001.75563260 0 -11903.52424278 0 28682.08237997 0 -41546.90586350 0 39499.52228129 0 6
0.00350000 0.00331552 66008.99308534 0 6781.41142005 0 5608.33182249 0 -8312.37070040 0 7758.86518272 0 7
0.00450000 0.00420575 48025.43383814 0 23005.19072220 0 21252.55242665 0 -39124.94553267 0 17631.90221096 0 24
0.00550000 0.00557378 48453.71136213 0 -3658.67257912 0 33324.15456018 0 -7842.79340484 0 -20379.94250770 0 45
0.00650000 0.00659388 40314.66683444 0 -19406.02081665 0 44603.97474593 0 -1975.25845835 0 12585.57945161 0 40
0.00750000 0.00754703 67975.21652663 0 -1922.85314498 0 43454.22453676 0 -602.24810600 0 -24481.68523676 0 57
0.00850000 0.00846663 69432.22374952 0 -2185.30046016 0 38245.13860258 0 14001.17617967 0 -2112.97603444 0 75
0.00950000 0.00948925 64627.72056421 0 11912.38210264 0 28820.70788670 0 17879.70084040 0 17276.14841453 0 112
0.01050000 0.01054430 57712.94299172 0 3167.10564648 0 27099.62571689 0 22326.34648757 0 20858.93127935 0 105
0.01150000 0.01145670 70557.39339759 0 -11961.10033184 0 36325.97254177 0 30528.94615972 0 31995.47558195 0 144
0.01250000 0.01249090 70223.67352756 0 -4213.07495512 0 43248.83291138 0 12126.85303437 0 25597.00051575 0 169
0.01350000 0.01339930 86103.04816622 0 506.71165854 0 44983.42331747 0 13936.07090974 0 22211.52647920 0 180
0.01450000 0.01448870 91170.96195896 0 -2329.83858834 0 57506.66558035 0 -4291.88776318 0 17788.68633039 0 267
0.01550000 0.01550050 86699.73575069 0 7565.36523419 0 60127.15269518 0 -9314.83684483 0 19255.54792236 0 238
0.01650000 0.01653350 87246.04425725 0 3094.01723035 0 45502.82607471 0 20438.84727573 0 221.88385320 0 315
0.01750000 0.01747870 86895.82662323 0 -6624.53872202 0 50356.93327520 0 13635.56801416 0 -18188.95087258 0 297
0.01850000 0.01844180 93150.80435978 0 -4482.22102681 0 7400.18829254 0 29575.95116258 0 -31837.25206029 0 388
0.01950000 0.01947590 94822.28251441 0 -6048.58960193 0 11031.75582051 0 7068.51680260 0 -28483.55559597 0 399
0.02050000 0.02045430 89323.76600947 0 4627.74459190 0 5566.38985608 0 -3382.07483283 0 -23449.52311717 0 462
0.02150000 0.02154770 85395.63733355 0 10041.60210128 0 7932.09170451 0 4840.02320333 0 13650.62637592 0 571
0.02250000 0.02255340 85163.56140536 0 7439.60576890 0 19968.16274769 0 6187.34797656 0 24668.14318671 0 510
0.02350000 0.02348930 77902.88440553 0 1049.30207841 0 21629.34364023 0 12245.88052617 0 29040.93642734 0 555
0.02450000 0.02439640 77676.45536299 0 3157.86025525 0 30224.90012020 0 2025.93648904 0 36822.56630988 0 592
0.02550000 0.02547300 72242.71195824 0 7270.81924936 0 30179.50358844 0 -2448.97680339 0 22857.81807886 0 837
0.02650000 0.02652900 70224.55931354 0 4887.12487310 0 34881.91993892 0 -3175.97457866 0 28775.64352468 0 723
0.02750000 0.02749970 60157.71231168 0 5204.92274005 0 37035.04422315 0 4389.54566808 0 19521.28371801 0 826
0.02850000 0.02848090 61468.12195396 0 1269.68563160 0 23683.25989409 0 6049.58611116 0 792.67991332 0 831
0.02950000 0.02946900 55739.07964630 0 -998.30073583 0 16908.76867705 0 5438.11697305 0 -6504.45935936 0 996
0.03050000 0.03053250 57429.15930662 0 2479.92395126 0 14648.90718157 0 661.25806112 0 -14874.89333111 0 1041
0.03150000 0.03150510 58453.68152209 0 934.72012503 0 19347.78038810 0 -10338.61721454 0 -23360.05873264 0 1036
0.03250000 0.03246190 54611.03119378 0 5506.27820464 0 18361.67913975 0 -9618.75001645 0 -12810.90126167 0 1059
0.03350000 0.03345080 53421.64206176 0 3139.71271487 0 23335.03527855 0 -4881.69943394 0 -2886.53293557 0 1302
0.03450000 0.03451200 54811.55099624 0 -3139.85665510 0 29639.61703028 0 5348.57508225 0 -10217.61884892 0 1339
0.03550000 0.03553350 52900.57845579 0 35.37674214 0 27735.50933122 0 8048.28468115 0 -1587.66065575 0 1365
0.03650000 0.03647120 55134.53071120 0 2591.65478100 0 27253.75247836 0 14856.51327192 0 -9421.91729815 0 1308
0.03750000 0.03744890 49765.67112989 0 2416.84491676 0 23873.81460422 0 5043.30001467 0 -1951.28687511 0 1579
0.03850000 0.03847530 48360.48238715 0 2410.04650933 0 19672.97456803 0 5526.37447418 0 -1349.59459982 0 1662
0.03950000 0.03950240 45272.96461147 0 732.46639650 0 17971.82258289 0 811.27366839 0 -1508.72605211 0 1683
0.04050000 0.04050350 45261.33867041 0 748.88443974 0 17498.59142014 0 808.91637044 0 -112.51364311 0 1822
0.04150000 0.04152450 44659.11492353 0 896.71769179 0 16966.34476611 0 287.31464949 0 -6806.50130809 0 1887
0.04250000 0.04250150 43876.85517509 0 602.67660497 0 17060.90242006 0 1099.88820881 0 4004.18447509 0 1920
0.04350000 0.04349210 44643.94583853 0 181.12108938 0 14985.83802580 0 791.00134888 0 -1355.88368032 0 2005
0.04450000 0.04448520 42353.96761953 0 1823.70047623 0 14986.50236529 0 1021.27248814 0 -395.89318836 0 2151
0.04550000 0.04548030 43933.76692466 0 -494.46013112 0 16916.51930442 0 1509.65612740 0 -2966.02115544 0 2274
0.04650000 0.04648670 41704.90793867 0 110.10275510 0 14630.63784561 0 2318.95449304 0 1404.36939070 0 2311
0.04750000 0.04749250 42366.92223957 0 2285.49392744 0 14472.85721695 0 1648.80203339 0 -123.04896017 0 2568
0.04850000 0.04851840 40637.42510290 0 1068.01098566 0 12172.91390562 0 -513.20889874 0 -565.59428192 0 2493
0.04950000 0.04949480 38057.13052716 0 2817.74058147 0 14185.86255765 0 272.27511069 0 2054.07126641 0 2644
0.05050000 0.05050630 36986.87961019 0 1934.78911114 0 13146.50342692 0 1224.88700539 0 6029.42340767 0 2829
0.05150000 0.05149060 35576.92976779 0 -936.58359729 0 11800.55162197 0 4150.11771620 0 6831.95658285 0 2784
0.05250000 0.05249300 36919.22770555 0 -1470.65939939 0 12996.25197913 0 5483.55779411 0 5620.52245212 0 3055
0.05350000 0.05348950 38074.51407713 0 -82.77249286 0 11523.41133176 0 3340.34324059 0 4622.35236972 0 3009
0.05450000 0.05448610 36648.06647074 0 2181.18155532 0 12328.92296231 0 1918.12526228 0 7020.44076824 0 3336
0.05550000 0.05550870 36432.82047627 0 301.85261197 0 8569.12684062 0 -442.52871326 0 8177.63157968 0 3349
0.05650000 0.05647670 35611.36469797 0 -578.18794417 0 11788.81495766 0 616.52586885 0 4813.11745402 0 3324
0.05750000 0.05747970 36191.66524172 0 107.12739998 0 11292.11046630 0 -367.42845571 0 3555.22384834 0 3639
0.05850000 0.05849280 36056.36143243 0 595.20721465 0 11609.88618859 0 -557.28782384 0 2701.34830298 0 3846
0.05950000 0.05951020 34814.71092727 0 899.97738421 0 10551.36086360 0 -2015.94925206 0 3374.84460472 0 3787
0.06050000 0.06049470 35736.26052193 0 1304.95098615 0 11817.04938595 0 -2236.76462591 0 3312.98352596 0 3930
0.06150000 0.06148310 34905.72543728 0 1042.31322699 0 13233.53190000 0 827.97848485 0 4537.01796234 0 4083
0.06250000 0.06249100 34458.84640760 0 805.69543115 0 15123.90991629 0 -1614.57747738 0 5816.04863609 0 4303
0.06350000 0.06350600 34078.40132683 0 1145.69773828 0 14998.01758310 0 564.59002206 0 5172.11544161 0 4470
0.06450000 0.06451750 33409.74363103 0 1192.21257485 0 18598.73761412 0 2621.12930967 0 6130.09298492 0 4479
0.06550000 0.06550280 31652.56568231 0 272.41905091 0 15539.89715972 0 3000.82147235 0 5323.59591745 0 4636
0.06650000 0.06648880 31661.75571191 0 -584.98745884 0 15053.71137694 0 4982.10327540 0 7542.92163178 0 4653
0.06750000 0.06749660 31695.63702586 0 286.72228011 0 12316.52195852 0 3135.97026909 0 5104.25316280 0 5220
0.06850000 0.06852730 31234.36397391 0 533.23209094 0 11051.66386053 0 1293.72364879 0 5176.10147855 0 5029
0.06950000 0.06949320 30111.63023730 0 272.81101121 0 9482.95902488 0 511.19373562 0 4520.35411349 0 5040
0.07050000 0.07048030 29761.52332654 0 1111.01921695 0 10442.34275344 0 -316.45700841 0 4106.00557412 0 5475
0.07150000 0.07148790 29191.74149137 0 809.58956779 0 9061.91172900 0 582.63791151 0 2789.59473178 0 5509
0.07250000 0.07249820 28917.36928236 0 197.38744177 0 10418.92478645 0 -1029.37410820 0 1158.76308157 0 5916
0.07350000 0.07351270 27855.75477875 0 1640.76352558 0 10055.53108590 0 -903.49949074 0 1886.24803913 0 5721
0.07450000 0.07449140 27527.68179437 0 311.43570910 0 9942.47157718 0 805.81501226 0 1736.87130500 0 6028
0.07550000 0.07549160 26473.81791814 0 198.09607056 0 8948.71935238 0 12.86360553 0 1651.38188508 0 6183
0.07650000 0.07648840 26721.83799407 0 156.12974504 0 8029.98212823 0 2930.96617507 0 1232.70406671 0 6330
0.07750000 0.07749960 26273.51956217 0 -228.60253990 0 7239.34062990 0 2758.17147395 0 573.93838590 0 6583
0.07850000 0.07848650 26377.71013871 0 358.97030678 0 5774.13988665 0 363.20657826 0 311.31280630 0 6549
0.07950000 0.07947320 26030.70347889 0 258.50556754 0 5576.58746724 0 173.77128017 0 -168.51414034 0 6828
0.08050000 0.08048110 25734.29734350 0 855.10346619 0 5789.01001888 0 -596.13950440 0 2140.65684649 0 7147
0.08150000 0.08149960 25067.74338942 0 740.89686461 0 6707.12719284 0 -510.65008447 0 967.91716930 0 7386
0.08250000 0.08250610 24218.16390608 0 899.73822200 0 8050.98632841 0 -1255.73450233 0 359.37887557 0 7227
0.08350000 0.08350160 23992.95281927 0 1050.51006905 0 8863.76140405 0 -909.32242636 0 854.36604935 0 7798
0.08450000 0.08449610 22780.75469812 0 1201.62405094 0 9844.40399626 0 -999.51315540 0 177.66541681 0 7371
0.08550000 0.08548940 22537.27427536 0 1088.37077654 0 10621.65905388 0 -692.18970774 0 2036.90916294 0 8256
0.08650000 0.08650700 21873.93129548 0 -396.19546282 0 10744.39577449 0 454.03064428 0 117.33785503 0 8037
0.08750000 0.08749060 21806.39011408 0 60.82360193 0 10366.24266496 0 1320.09792650 0 118.86805032 0 8155
0.08850000 0.08849210 21693.56312418 0 376.61405638 0 9203.74820993 0 1010.15808848 0 -2077.05741273 0 8718
0.08950000 0.08949900 21024.24108889 0 886.53447465 0 8526.33230520 0 977.34857558 0 -1364.42044275 0 8571
0.09050000 0.09049190 20048.43710263 0 571.56669393 0 8283.80410237 0 571.44268389 0 -611.32630512 0 8932
0.09150000 0.09150830 19512.75802790 0 860.85996786 0 8016.04207128 0 518.48707598 0 -971.16911110 0 9285
0.09250000 0.09250820 18429.66321414 0 1023.47588077 0 7341.12851196 0 652.96156814 0 -768.74043983 0 9204
0.09350000 0.09350330 17878.03999168 0 31.42159699 0 7205.07178459 0 1724.18242076 0 627.17080194 0 9349
0.09450000 0.09448040 17828.54669974 0 -227.15206535 0 6675.10602947 0 1924.04895606 0 859.30098453 0 9564
0.09550000 0.09549270 18254.16686576 0 -524.26350784 0 6063.33793859 0 1434.48611420 0 393.31001498 0 10155
0.09650000 0.09649430 18732.15912819 0 -232.03385336 0 5666.43938314 0 571.41500308 0 1098.07124031 0 9913
0.09750000 0.09749140 18696.61696552 0 356.74034056 0 5481.74193284 0 -678.41573566 0 1187.57327075 0 10476
0.09850000 0.09850240 18293.47361887 0 419.11074627 0 5984.90158957 0 -1664.01540770 0 1784.28299988 0 10575
0.09950000 0.09950330 18030.50590443 0 518.48929045 0 6517.81258309 0 -477.63019740 0 740.24802638 0 10882
0.10050000 0.10051200 18188.28653309 0 134.41913053 0 7083.47551343 0 -127.25755084 0 450.19408373 0 10875
0.10150000 0.10150300 17532.25128759 0 385.92366709 0 6718.60919368 0 48.73516986 0 -610.31097293 0 11118
0.10250000 0.10250800 17496.93057142 0 619.29173559 0 6949.67754032 0 281.87038737 0 -886.31192092 0 11575
0.10350000 0.10349800 16915.96568818 0 679.29266379 0 6441.18102302 0 -114.29628741 0 -92.03626414 0 11364
0.10450000 0.10450100 16271.33493724 0 551.58114763 0 6478.27331117 0 518.37081657 0 -1065.29937331 0 12093
0.10550000 0.10551000 16011.13530400 0 -55.29330785 0 6002.26299489 0 491.36873803 0 28.51588678 0 12067
0.10650000 0.10649700 16312.96687856 0 -321.90459222 0 5616.65821075 0 1598.44510012 0 -982.92902729 0 12054
0.10750000 0.10749900 16434.09811208 0 -316.51126280 0 5319.13377055 0 1204.93467606 0 -510.85049355 0 12807
0.10850000 0.10850100 16270.44915126 0 74.78137459 0 4317.39839956 0 623.85021172 0 -426.65653563 0 12736
0.10950000 0.10950300 16506.51111639 0 403.68035440 0 5044.62869365 0 -97.76973538 0 7.66648878 0 12933
0.11050000 0.11050200 15849.25791515 0 529.81738597 0 4586.76591775 0 -846.55563143 0 743.59629740 0 13428
0.11150000 0.11150900 15429.83825102 0 686.36787935 0 5479.89285459 0 -426.11399172 0 809.76229605 0 13453
0.11250000 0.11250000 15033.11685277 0 572.93634051 0 5618.08654066 0 -390.71466204 0 1480.08194781 0 13668
0.11350000 0.11349100 14625.76602269 0 570.61779569 0 6209.20474575 0 488.26516539 0 1561.41924593 0 13791
0.11450000 0.11448600 14219.07953211 0 245.30957082 0 6186.36253965 0 407.19913923 0 1661.22518184 0 14205
0.11550000 0.11549300 14135.37275648 0 101.00241134 0 5810.76713715 0 698.46217974 0 1925.13404389 0 14776
0.11650000 0.11649800 14074.14280023 0 -122.50973796 0 5593.73849838 0 457.81405767 0 1894.49692112 0 14553
0.11750000 0.11747300 13981.68888799 0 133.10484557 0 5664.12526725 0 431.39881235 0 1755.42852140 0 14568
0.11850000 0.11849100 14086.21163428 0 192.65845184 0 5436.03537599 0 334.25134163 0 1776.91990387 0 16015
0.11950000 0.11950300 13923.44845945 0 -139.84235523 0 5165.52740834 0 240.67801735 0 2119.05474077 0 15270
0.12050000 0.12050700 14074.91786297 0 80.90669541 0 5331.01437508 0 676.86450295 0 2389.92809513 0 15999
0.12150000 0.12150000 13941.05345591 0 9.37516994 0 4988.56951309 0 596.07860661 0 2150.85445765 0 15670
0.12250000 0.12250700 13964.08389153 0 93.15279738 0 5041.29592388 0 520.07927629 0 2128.51050616 0 16887
0.12350000 0.12352200 13939.17116069 0 211.72499518 0 4744.54654641 0 376.51772716 0 2254.72393677 0 16407
0.12450000 0.12449800 13531.04526787 0 210.81706455 0 4248.29602037 0 -86.13980828 0 2131.37823829 0 16306
0.12550000 0.12549900 13431.83723750 0 267.11319285 0 4511.45196433 0 134.97053231 0 2307.37284128 0 17523
0.12650000 0.12650100 13305.39128807 0 -30.21748166 0 4115.19560372 0 -238.09041504 0 2123.63868324 0 17154
0.12750000 0.12750600 13256.11944263 0 316.72274420 0 4139.52150135 0 378.40555854 0 1556.51420603 0 18007
0.12850000 0.12850300 13051.05998699 0 45.24439801 0 4031.34488787 0 -257.62310325 0 1288.95147679 0 17496
0.12950000 0.12949900 13049.50986151 0 68.74430021 0 4240.97721366 0 -23.64251374 0 1019.84858716 0 18405
0.13050000 0.13049000 12850.76163102 0 398.83178336 0 4397.10806593 0 -535.48198734 0 671.59296911 0 18100
0.13150000 0.13148800 12662.86427884 0 521.91617498 0 4982.78975954 0 -205.84005454 0 715.19467701 0 19059
0.13250000 0.13249300 12155.08746266 0 253.05798373 0 4657.07518035 0 -287.65014093 0 709.55000582 0 18957
0.13350000 0.13349100 12231.26505741 0 98.32047282 0 5225.15187749 0 -264.11037836 0 -42.07671661 0 19468
0.13450000 0.13450700 11991.21705535 0 -23.26251155 0 5279.49484770 0 -134.69815312 0 -2.35616858 0 19953
0.13550000 0.13551000 12214.54584694 0 163.76743470 0 5383.17609730 0 372.30027863 0 -132.93433177 0 19956
0.13650000 0.13649900 12147.33683529 0 36.08182778 0 4892.27350414 0 333.06438840 0 162.74213742 0 19723
0.13750000 0.13749600 11957.88935764 0 112.65315440 0 4507.87560342 0 858.33326334 0 317.18335292 0 20946
0.13850000 0.13851100 11890.68034599 0 44.40467290 0 4583.82067935 0 562.84502367 0 392.58367047 0 20955
0.13950000 0.13949800 11656.50067608 0 143.40985828 0 4264.66091645 0 867.04718297 0 498.06749455 0 20506
0.14050000 0.14048300 11497.61281493 0 301.61455699 0 4104.04577263 0 235.06324143 0 647.59702676 0 21447
0.14150000 0.14148400 11400.39780302 0 183.62564926 0 3868.51527909 0 -116.80859791 0 1477.94498912 0 21771
0.14250000 0.14249400 11322.89152929 0 7.37580703 0 3969.83812350 0 221.81963372 0 1425.41788018 0 22470
0.14350000 0.14350900 11341.93592798 0 137.78622451 0 4033.24932774 0 -40.02379686 0 1324.10610809 0 22519
0.14450000 0.14449900 11123.92185230 0 387.42285987 0 3963.62654928 0 -184.71073709 0 941.07896117 0 22218
0.14550000 0.14550500 10749.48904391 0 337.86424121 0 4024.18109371 0 -15.06356575 0 891.25571395 0 23559
0.14650000 0.14650700 10513.26099390 0 171.10617158 0 3761.58983831 0 378.75765847 0 1376.81037422 0 23044
0.14750000 0.14750500 10481.38377075 0 -14.17246504 0 3694.05972924 0 467.50455635 0 829.77109423 0 23649
0.14850000 0.14849900 10481.84880839 0 -35.81011293 0 3538.58214414 0 598.43590457 0 806.77830452 0 23640
0.14950000 0.14949500 10383.24975588 0 118.13838412 0 3229.21031638 0 257.89437521 0 562.09653451 0 24457
0.15050000 0.15050000 10268.29687962 0 208.42765685 0 2907.13853206 0 -47.96276448 0 686.27487182 0 24591
0.15150000 0.15149900 10202.73764436 0 1.71863519 0 3006.92232332 0 10.05666046 0 493.40604580 0 25020
0.15250000 0.15250500 10093.54237700 0 38.93837686 0 3047.48024914 0 78.45893656 0 450.31034314 0 25297
0.15350000 0.15350100 10233.88409408 0 63.21289890 0 2998.19733137 0 -99.04227767 0 445.88916384 0 25452
0.15450000 0.15450400 9999.73764114 0 191.96532431 0 2939.80189027 0 259.45889471 0 570.39302750 0 26061
0.15550000 0.15549900 9883.55573682 0 48.87667417 0 2970.76011047 0 215.07326621 0 835.67596506 0 26128
0.15650000 0.15649500 9911.12582562 0 157.02106718 0 2793.16002038 0 443.03471850 0 804.18627328 0 26331
0.15750000 0.15749700 9857.98973881 0 119.17032479 0 2799.21658205 0 97.90514991 0 975.97560730 0 27345
0.15850000 0.15849900 9612.40557433 0 175.42769996 0 2734.17774607 0 237.15812529 0 1037.01401233 0 26980
0.15950000 0.15949700 9546.85741141 0 217.78377132 0 2599.27254048 0 97.79199075 0 1353.08238214 0 27777
0.16050000 0.16050000 9441.39351751 0 103.40654522 0 2459.09690827 0 88.66695570 0 976.71634583 0 28224
0.16150000 0.16150500 9239.58932536 0 103.47032181 0 2221.62875789 0 377.81318916 0 1060.53163024 0 28075
0.16250000 0.16249700 9202.95100254 0 201.79976321 0 2115.42301823 0 31.24909017 0 669.48369123 0 28590
0.16350000 0.16349900 8840.02233963 0 322.41059746 0 1950.06891938 0 163.34668635 0 664.19222720 0 29163
0.16450000 0.16449100 8630.95470241 0 276.59442460 0 2291.68335701 0 -455.34714370 0 682.66861562 0 28996
0.16550000 0.16550500 8420.46980761 0 147.18330658 0 2113.61822928 0 -25.09431697 0 616.10290605 0 30777
0.16650000 0.16650700 8414.23608873 0 -48.30401353 0 2333.24886438 0 46.52779118 0 548.44325078 0 29211
0.16750000 0.16749900 8452.65705585 0 -28.04664166 0 2220.95334607 0 145.87345056 0 394.50139713 0 30922
0.16850000 0.16850800 8486.57158677 0 -7.10851004 0 2303.28715342 0 169.38331784 0 448.00619235 0 30867
0.16950000 0.16949900 8453.36568464 0 123.26044158 0 2145.76118823 0 150.13186668 0 247.94699859 0 30852
0.17050000 0.17049200 8282.68579756 0 212.81119025 0 1866.12962493 0 202.66119009 0 421.56215898 0 31257
0.17150000 0.17149500 8145.30039121 0 146.54332621 0 1780.57377106 0 58.95968677 0 226.89740188 0 32608
0.17250000 0.17250900 8030.61325074 0 -20.44615501 0 1647.19654630 0 76.64230022 0 102.08960291 0 32361
0.17350000 0.17350400 8120.81948104 0 -65.21776475 0 1648.59165922 0 122.52191751 0 -27.10936936 0 32508
0.17450000 0.17449800 8151.52303776 0 -1.08099439 0 1664.42508371 0 -157.78284313 0 -62.48168257 0 32791
0.17550000 0.17549800 8104.49887426 0 219.02276447 0 1720.67249379 0 -63.62955048 0 153.00513497 0 33633
0.17650000 0.17650100 8040.20188403 0 122.27611190 0 1861.43495921 0 -130.83834068 0 142.11661074 0 33984
0.17750000 0.17750300 7919.92321953 0 99.25674860 0 1998.78714859 0 -66.80919000 0 222.42861158 0 34069
0.17850000 0.17849800 7996.87587702 0 133.06055628 0 2274.70948307 0 -234.98462793 0 489.49197898 0 34536
