### header ###
fiducial parameters:
Omega_m = 0.31
Omega_nu = 0
Omega_de = 0.69
Omega_k = 0
H_0 = 100
w_de = -1
zeff = 0
beta = 0
fgrowth = 0
b_1 = 2
gamma = 0.55
Lx = 3500 Ly = 3500 Lz = 3500
nx = 700 ny = 700 nz = 700
xoffset = -685.467585 yoffset = -31.7331281 zoffset = 572.489161
bins = 400 dk = 0.001
kx_ny = 0.628318531 ky_ny = 0.628318531 kz_ny = 0.628318531
############################
A(data) = 8.01633313 (not used)
A(ran) = 8.01492119 (used)
Ngal = 476371
weighted Ngal = 0
Nran = 23820508
weighted Nran = 0
SN(data) = 3489.17579
SN(ran) = 69.8128703
SN(data+ran) = 3558.98866
############################
13 columns: k_central k_mean P_0(k) sigma^{lin}_{P_0(k)} P^img_1(k) sigma^{lin}_{P_1(k)} P_2(k) sigma^{lin}_{P_2(k)} P^img_3(k) sigma^{lin}_{P_3(k)} P_4(k) sigma^{lin}_{P_4(k)} N_modes
### header ###
0.00050000 0 0 0 0 0 0 0 0 0 0 0 0
0.00150000 0.00179520 23229.62674627 0 -36916.01673135 0 5139.08669668 0 -20786.85044478 0 -29460.02392172 0 3
0.00250000 0.00253879 38907.59579648 0 -28794.79864662 0 5658.00227163 0 -15635.78349265 0 12515.15946576 0 6
0.00350000 0.00331552 55964.95507260 0 -25453.83535584 0 -16987.71435301 0 -12557.78791632 0 -30162.67365472 0 7
0.00450000 0.00420575 54225.71429009 0 -2376.72988395 0 -13151.15380335 0 -32837.85805415 0 17304.71501257 0 24
0.00550000 0.00557378 63815.12264577 0 4823.41471610 0 -4942.74116067 0 -46273.01698909 0 5141.30116164 0 45
0.00650000 0.00659388 30877.50294501 0 4.47191269 0 -19972.25950787 0 -5538.13328314 0 26917.92886661 0 40
0.00750000 0.00754703 65035.07139429 0 -3033.99415751 0 -2484.12036236 0 -1234.27633683 0 -6312.66454885 0 57
0.00850000 0.00846663 71386.59980326 0 -29357.16202416 0 -35879.09351209 0 9725.86368675 0 -9139.96054665 0 75
0.00950000 0.00948925 73625.42388159 0 -10192.03070626 0 -9104.27444376 0 6268.16487541 0 -46927.94500212 0 112
0.01050000 0.01054430 99112.80838163 0 -12378.63770075 0 -37063.16792819 0 -24828.02755709 0 -34137.85971111 0 105
0.01150000 0.01145670 99046.59587922 0 379.24926969 0 -18817.85892228 0 -30041.98531419 0 -1155.72926457 0 144
0.01250000 0.01249090 89372.81640841 0 8826.39230778 0 -19457.06423406 0 -19335.93300055 0 9755.91397631 0 169
0.01350000 0.01339930 79181.40575234 0 5262.41025051 0 -15118.37375388 0 -2069.14070048 0 -1621.84092246 0 180
0.01450000 0.01448870 81289.13350481 0 45.62440020 0 -15600.57349973 0 21541.87227417 0 2249.44243783 0 267
0.01550000 0.01550050 76007.52384307 0 9018.50821571 0 -12323.49752315 0 10137.80953163 0 14809.78806118 0 238
0.01650000 0.01653350 79237.43171592 0 7125.20710567 0 -6660.19160794 0 -6497.07411871 0 684.71478125 0 315
0.01750000 0.01747870 68020.94522813 0 -955.08545207 0 3089.53293880 0 -9907.21729495 0 28836.87348093 0 297
0.01850000 0.01844180 71212.43213386 0 4811.88842596 0 12173.46752186 0 -8626.62542340 0 16529.65227526 0 388
0.01950000 0.01947590 73477.60834526 0 -681.88580226 0 26874.74679982 0 -4071.03917235 0 16088.53085449 0 399
0.02050000 0.02045430 74361.62275878 0 726.99556080 0 29553.03145020 0 -9893.15544243 0 18850.07938750 0 462
0.02150000 0.02154770 75687.31220932 0 3258.46339855 0 24774.88039796 0 1481.38848214 0 21979.33982775 0 571
0.02250000 0.02255340 78983.76475432 0 -7154.62627271 0 33467.43044334 0 4633.00394619 0 11536.91956804 0 510
0.02350000 0.02348930 76874.04398338 0 1267.70368546 0 25212.68012129 0 7509.28390898 0 -7942.11215847 0 555
0.02450000 0.02439640 80484.72910674 0 1267.55974524 0 23818.34225688 0 1986.46365106 0 -18879.53177152 0 592
0.02550000 0.02547300 73036.92981748 0 4935.74345138 0 18735.92371862 0 -8351.64423653 0 -20891.81608406 0 837
0.02650000 0.02652900 70540.23129412 0 3219.64382774 0 18971.65351401 0 -11.00685416 0 -20972.86550174 0 723
0.02750000 0.02749970 64772.98946583 0 4648.59377954 0 17970.05101092 0 8108.68421304 0 -22164.24765222 0 826
0.02850000 0.02848090 62378.82067030 0 3954.02684366 0 10031.00588643 0 7701.05657484 0 -22270.54197048 0 831
0.02950000 0.02946900 57285.88342346 0 731.90835132 0 7321.57478633 0 10030.78443993 0 -16349.61627371 0 996
0.03050000 0.03053250 55236.50682278 0 336.11481389 0 6482.28149275 0 1115.10490481 0 -16280.30352034 0 1041
0.03150000 0.03150510 55240.49285972 0 1444.82766559 0 10830.85955900 0 -5676.19410130 0 -12373.10153834 0 1036
0.03250000 0.03246190 56218.95420394 0 2852.85092347 0 10188.80865974 0 -2972.23272967 0 -8642.66922207 0 1059
0.03350000 0.03345080 51182.59653693 0 1526.72965227 0 14743.57555876 0 -2615.48242401 0 -3052.50708460 0 1302
0.03450000 0.03451200 52011.80294260 0 2607.14496342 0 10814.81576034 0 1280.30399110 0 -2919.12985984 0 1339
0.03550000 0.03553350 50289.39209381 0 -739.36113316 0 10582.56267494 0 11509.79237223 0 -5255.60077074 0 1365
0.03650000 0.03647120 48980.75402349 0 -197.74618510 0 8109.76930087 0 5534.00330598 0 -10159.90989197 0 1308
0.03750000 0.03744890 48693.20574795 0 2729.93704566 0 4318.09595602 0 1381.27252113 0 -5388.42437927 0 1579
0.03850000 0.03847530 45945.05472797 0 2523.46033244 0 2956.99721072 0 -3174.86734617 0 -3178.88660008 0 1662
0.03950000 0.03950240 44826.52847479 0 1072.52960142 0 4594.08472445 0 -4834.92993391 0 2045.86667372 0 1683
0.04050000 0.04050350 46008.27770268 0 -1852.90926910 0 8978.78071426 0 -4411.78996864 0 -1543.08347603 0 1822
0.04150000 0.04152450 45758.37533152 0 -231.42376827 0 11108.64204405 0 1058.85195857 0 462.49543660 0 1887
0.04250000 0.04250150 47385.45346362 0 684.94176391 0 9929.95985013 0 2136.51579701 0 876.55498829 0 1920
0.04350000 0.04349210 46746.13742859 0 -785.93908197 0 9938.41910629 0 741.22460543 0 -3092.87678089 0 2005
0.04450000 0.04448520 47414.02006166 0 3178.52121336 0 13261.32343529 0 -2203.91303818 0 -5711.17157541 0 2151
0.04550000 0.04548030 42689.45906154 0 3872.43488207 0 14202.02815188 0 -4597.61679607 0 -3893.35050366 0 2274
0.04650000 0.04648670 40098.31360748 0 3286.49852500 0 13814.82895298 0 -2950.43132210 0 -4170.97797616 0 2311
0.04750000 0.04749250 39025.62677905 0 442.55085791 0 14527.22233181 0 293.64469759 0 -5282.03041009 0 2568
0.04850000 0.04851840 38250.89621149 0 180.82102938 0 14527.33305506 0 2116.61882931 0 -5637.42989211 0 2493
0.04950000 0.04949480 39314.61445682 0 110.99341291 0 14712.24087953 0 4572.31653386 0 -5173.44412059 0 2644
0.05050000 0.05050630 36829.43115127 0 1933.01753916 0 13072.31885064 0 2830.31874247 0 -2221.29658814 0 2829
0.05150000 0.05149060 36126.78141828 0 1714.10660517 0 11915.70380008 0 4925.11401956 0 3383.64710295 0 2784
0.05250000 0.05249300 35340.20346316 0 -1298.07507244 0 9730.62478642 0 4831.64145344 0 4437.73242569 0 3055
0.05350000 0.05348950 37497.09233783 0 -2367.79451782 0 9746.70180206 0 1654.71465485 0 2132.56297705 0 3009
0.05450000 0.05448610 37685.43258300 0 -740.82378727 0 8779.05811918 0 -995.69209611 0 -2019.41488972 0 3336
0.05550000 0.05550870 37808.00321874 0 2803.55693338 0 11559.28566417 0 -4321.60588299 0 533.08593625 0 3349
0.05650000 0.05647670 35449.15513938 0 1878.29810991 0 8073.11990572 0 -4013.83954233 0 -304.99050883 0 3324
0.05750000 0.05747970 34946.47159261 0 912.53782949 0 10459.62665248 0 3068.20764120 0 -310.28418732 0 3639
0.05850000 0.05849280 33559.33073933 0 162.99126473 0 8962.63726468 0 1734.77863561 0 -1974.11800889 0 3846
0.05950000 0.05951020 34797.10593081 0 -293.15087190 0 8997.69224505 0 2659.30668564 0 -3458.87247777 0 3787
0.06050000 0.06049470 33787.30990735 0 -438.78958917 0 9786.11927841 0 1348.86382638 0 1.93736896 0 3930
0.06150000 0.06148310 34644.64001806 0 910.01333943 0 9674.38844867 0 -1813.72431157 0 -1136.30840684 0 4083
0.06250000 0.06249100 33259.04929025 0 1596.88390232 0 12288.28753023 0 -1352.90522494 0 1961.48448627 0 4303
0.06350000 0.06350600 32403.04785852 0 1735.54262602 0 12052.88990459 0 -1724.97962815 0 3263.98848864 0 4470
0.06450000 0.06451750 31345.64083834 0 1142.86322313 0 12261.82467391 0 30.02194441 0 3945.04718823 0 4479
0.06550000 0.06550280 30854.58323263 0 -44.25187482 0 13272.28503686 0 2150.11261188 0 2619.84491999 0 4636
0.06650000 0.06648880 30928.21419268 0 -343.51555580 0 12541.06870584 0 2928.31988944 0 718.69906782 0 4653
0.06750000 0.06749660 30262.21385484 0 833.76488180 0 11425.31053386 0 1613.25987073 0 2208.80700575 0 5220
0.06850000 0.06852730 29872.24657472 0 190.05977721 0 9167.33133360 0 2099.99926975 0 1870.01601095 0 5029
0.06950000 0.06949320 29237.24874637 0 -300.72877100 0 8799.22082268 0 1752.67151252 0 1631.92781037 0 5040
0.07050000 0.07048030 29752.55474343 0 997.12817664 0 8441.05325944 0 -666.36461733 0 692.02251563 0 5475
0.07150000 0.07148790 28275.06371963 0 1723.67309382 0 9266.66115955 0 -894.03708195 0 2086.74569695 0 5509
0.07250000 0.07249820 27557.79851788 0 959.18664118 0 9168.90360372 0 -941.65582929 0 3262.92554546 0 5916
0.07350000 0.07351270 27307.67470023 0 -112.87792260 0 9406.64856223 0 698.60722720 0 832.87245242 0 5721
0.07450000 0.07449140 27292.17344548 0 222.84714546 0 8969.07028540 0 1588.04818711 0 1441.18487072 0 6028
0.07550000 0.07549160 27502.99051003 0 226.14226933 0 8752.57311822 0 1192.16828555 0 -1345.65285218 0 6183
0.07650000 0.07648840 26964.87552384 0 167.80329709 0 7939.65410236 0 -453.86234494 0 807.48028991 0 6330
0.07750000 0.07749960 26496.29473752 0 476.05128388 0 7876.43112764 0 -83.73058113 0 48.04879644 0 6583
0.07850000 0.07848650 26251.26418928 0 1287.45671294 0 7768.06628464 0 -96.01366466 0 691.10572714 0 6549
0.07950000 0.07947320 25425.37948106 0 306.62699844 0 8308.66147159 0 -120.19119314 0 -391.38453769 0 6828
0.08050000 0.08048110 24844.41459782 0 536.63129466 0 7816.29733155 0 154.98818835 0 -468.52542470 0 7147
0.08150000 0.08149960 24946.83360240 0 433.28221480 0 8966.10290234 0 445.23478944 0 -36.28721940 0 7386
0.08250000 0.08250610 24496.63287527 0 161.22301445 0 8823.95639632 0 273.75990944 0 -33.59797315 0 7227
0.08350000 0.08350160 24252.48811302 0 168.13989577 0 9259.17626797 0 511.02100735 0 794.46477208 0 7798
0.08450000 0.08449610 24048.86805960 0 197.00987550 0 7653.21305930 0 1228.85089767 0 1218.69757581 0 7371
0.08550000 0.08548940 23568.32916247 0 64.82071119 0 8066.67581268 0 1481.48813306 0 646.93711620 0 8256
0.08650000 0.08650700 23448.19443819 0 313.66346086 0 7281.10543912 0 995.38207101 0 231.89987823 0 8037
0.08750000 0.08749060 22895.13181350 0 1113.28904354 0 6940.47643840 0 -145.95870746 0 -120.98618606 0 8155
0.08850000 0.08849210 21662.67133794 0 1054.95117854 0 6299.14524025 0 440.16477191 0 1187.20788403 0 8718
0.08950000 0.08949900 21212.35988756 0 829.35366759 0 6272.22841862 0 -414.62424025 0 957.58779748 0 8571
0.09050000 0.09049190 20288.70655119 0 665.61280647 0 5865.75230220 0 -58.41647851 0 -19.85677516 0 8932
0.09150000 0.09150830 19928.74527134 0 482.59502785 0 5579.12302962 0 195.70887733 0 26.57280450 0 9285
0.09250000 0.09250820 19148.81071111 0 694.81163425 0 6139.63732891 0 305.27617481 0 -633.92602731 0 9204
0.09350000 0.09350330 18835.35319550 0 359.14303505 0 5464.29194893 0 -499.29541537 0 -278.94175746 0 9349
0.09450000 0.09448040 18341.97040158 0 452.85033446 0 5953.47833174 0 985.46016074 0 -1598.55582337 0 9564
0.09550000 0.09549270 18065.71589735 0 460.64303666 0 5652.94221919 0 -328.28114408 0 -1131.70231971 0 10155
0.09650000 0.09649430 17653.05035136 0 319.39560342 0 6096.73207024 0 534.58623627 0 -1160.86682329 0 9913
0.09750000 0.09749140 17411.67367031 0 -13.34026911 0 6276.19231090 0 -46.26792372 0 -1180.73057401 0 10476
0.09850000 0.09850240 17577.20492635 0 450.95807414 0 5907.35102654 0 468.92956456 0 -456.84633648 0 10575
0.09950000 0.09950330 17332.28510136 0 310.96513530 0 6281.96099213 0 186.30625910 0 -238.83336804 0 10882
0.10050000 0.10051200 16809.33920018 0 175.53067258 0 5764.52910871 0 694.21815764 0 328.37082991 0 10875
0.10150000 0.10150300 16780.21898591 0 250.31536887 0 5910.88309816 0 695.92329566 0 886.31634985 0 11118
0.10250000 0.10250800 16597.30417990 0 149.26711811 0 4923.94035313 0 603.09292438 0 -55.51929400 0 11575
0.10350000 0.10349800 16414.94299014 0 39.95835942 0 5182.20232952 0 1162.47231038 0 716.75144588 0 11364
0.10450000 0.10450100 16378.07214849 0 155.96919633 0 4284.86790924 0 -178.22567644 0 -325.99692347 0 12093
0.10550000 0.10551000 16234.35337235 0 226.41686298 0 4629.38329598 0 -107.14821595 0 -95.12931808 0 12067
0.10650000 0.10649700 15722.47979598 0 485.64213164 0 4770.90975181 0 -397.78544867 0 -734.53249231 0 12054
0.10750000 0.10749900 15589.27972841 0 543.80062498 0 4731.83551752 0 -161.92167815 0 -229.66880478 0 12807
0.10850000 0.10850100 15177.94286140 0 306.77536759 0 4812.46418685 0 261.33233207 0 -13.04430587 0 12736
0.10950000 0.10950300 14946.53127269 0 11.01603312 0 4338.33616579 0 909.69113478 0 75.44671059 0 12933
0.11050000 0.11050200 15265.08205772 0 -279.10230617 0 4518.56039687 0 364.12115229 0 -205.48241845 0 13428
0.11150000 0.11150900 15137.63959906 0 67.03572977 0 4651.18470354 0 199.83553279 0 454.09707823 0 13453
0.11250000 0.11250000 15346.57436839 0 381.48034314 0 5389.88592614 0 -444.37557704 0 428.38049661 0 13668
0.11350000 0.11349100 14784.76460709 0 340.35551430 0 5419.58190131 0 -433.78157665 0 774.23342018 0 13791
0.11450000 0.11448600 14679.46679806 0 217.77269900 0 5622.46010896 0 -42.55127645 0 990.84241784 0 14205
0.11550000 0.11549300 14694.52515982 0 92.39965784 0 5231.40774101 0 579.69378035 0 567.21859197 0 14776
0.11650000 0.11649800 14590.44530652 0 31.39989523 0 5098.01944392 0 1054.21708340 0 273.60268243 0 14553
0.11750000 0.11747300 14306.88306792 0 65.84368328 0 4123.17874992 0 841.26970356 0 276.12274356 0 14568
0.11850000 0.11849100 14331.68507551 0 182.03898511 0 4142.58853532 0 474.31292888 0 -34.99098234 0 16015
0.11950000 0.11950300 14028.08192898 0 131.91678512 0 3355.86663998 0 502.48535215 0 485.36864522 0 15270
0.12050000 0.12050700 14070.48893304 0 114.21545943 0 3737.74005065 0 249.20370746 0 156.79962069 0 15999
0.12150000 0.12150000 13952.23650398 0 211.24224182 0 3417.63914015 0 -142.18747362 0 1071.95716222 0 15670
0.12250000 0.12250700 13774.08279764 0 217.03971110 0 4114.65305981 0 -13.83564492 0 713.61022733 0 16887
0.12350000 0.12352200 13733.89025855 0 116.32030838 0 3978.06486084 0 -12.50397642 0 977.54787743 0 16407
0.12450000 0.12449800 13498.93552590 0 179.13471431 0 3769.00829594 0 283.20349528 0 618.49009928 0 16306
0.12550000 0.12549900 13349.68058735 0 290.21449136 0 3610.28651967 0 112.88013706 0 604.79363348 0 17523
0.12650000 0.12650100 13144.28896196 0 239.47777734 0 3239.70688031 0 -124.77402838 0 -472.93996061 0 17154
0.12750000 0.12750600 12806.69377824 0 270.31530919 0 3186.62615513 0 -39.84841124 0 -42.36094318 0 18007
0.12850000 0.12850300 12546.38342175 0 336.70164711 0 2998.69558598 0 -166.74146114 0 -15.14937626 0 17496
0.12950000 0.12949900 12448.17190061 0 -76.30271202 0 3358.96689093 0 115.13778409 0 -61.86318250 0 18405
0.13050000 0.13049000 12574.39640354 0 -25.93016677 0 3274.06430422 0 -168.65254441 0 -117.58808957 0 18100
0.13150000 0.13148800 12612.48520092 0 196.81943151 0 3783.91164515 0 -44.31908383 0 64.56837290 0 19059
0.13250000 0.13249300 12489.25022569 0 146.12257786 0 4228.72015009 0 -118.27678818 0 362.96963051 0 18957
0.13350000 0.13349100 12397.01775995 0 137.40533653 0 4156.87183434 0 425.02004602 0 724.58290122 0 19468
0.13450000 0.13450700 12191.95830431 0 187.51978590 0 4259.18011566 0 53.80408016 0 582.63458982 0 19953
0.13550000 0.13551000 12180.99670274 0 410.83639793 0 4225.05521057 0 160.24975710 0 65.77713860 0 19956
0.13650000 0.13649900 11940.39508443 0 147.40586031 0 3780.12491006 0 -166.10258800 0 250.05738370 0 19723
0.13750000 0.13749600 11588.40587844 0 160.38594670 0 3724.29824832 0 -47.24295264 0 661.31231551 0 20946
0.13850000 0.13851100 11676.20941426 0 14.07093183 0 3765.08869296 0 -1.14667210 0 240.37463565 0 20955
0.13950000 0.13949800 11636.12759841 0 -128.92836465 0 4060.68654864 0 451.92800980 0 62.48400776 0 20506
0.14050000 0.14048300 11762.01993160 0 87.41013611 0 3921.46313637 0 146.68394473 0 -471.38208450 0 21447
0.14150000 0.14148400 11466.49958219 0 340.21821747 0 3884.50371613 0 53.06909924 0 85.87075079 0 21771
0.14250000 0.14249400 11336.62121207 0 314.03770544 0 3846.28205085 0 -36.35453914 0 -229.48168249 0 22470
0.14350000 0.14350900 11144.18420672 0 69.20623760 0 3898.17803728 0 95.62834776 0 285.74902276 0 22519
0.14450000 0.14449900 11112.96025073 0 -27.33690564 0 3375.66395676 0 489.11551993 0 20.78341802 0 22218
0.14550000 0.14550500 11224.12639191 0 -66.04165644 0 3278.84754855 0 345.21294320 0 -614.78862109 0 23559
0.14650000 0.14650700 11197.55281235 0 -1.14172277 0 3113.43808808 0 255.34774050 0 -658.00722655 0 23044
0.14750000 0.14750500 10985.20776697 0 129.65470916 0 2783.43851919 0 200.97155332 0 -659.33590553 0 23649
0.14850000 0.14849900 10869.73449144 0 362.91869781 0 3017.40781493 0 110.90040538 0 -151.14276994 0 23640
0.14950000 0.14949500 10621.13865461 0 305.41679333 0 2887.36335993 0 74.04528644 0 -687.49061308 0 24457
0.15050000 0.15050000 10238.55661515 0 329.43598756 0 2878.11796871 0 16.78819106 0 -194.74890677 0 24591
0.15150000 0.15149900 10172.69842713 0 211.28763835 0 2995.13029739 0 -246.10899267 0 -396.62064010 0 25020
0.15250000 0.15250500 10000.68986107 0 22.70989182 0 3037.88054352 0 -163.28911026 0 -127.64618944 0 25297
0.15350000 0.15350100 10142.01701506 0 -37.32513913 0 3241.34558438 0 -1.06517758 0 -116.65912152 0 25452
0.15450000 0.15450400 10114.80124065 0 115.49099125 0 3023.85190797 0 145.27333055 0 -295.92891820 0 26061
0.15550000 0.15549900 9991.49983147 0 226.65270350 0 3138.14044475 0 96.14243580 0 -107.22328631 0 26128
0.15650000 0.15649500 9846.18664055 0 182.62138940 0 2966.54155471 0 423.00820460 0 -236.51925215 0 26331
0.15750000 0.15749700 9651.82305069 0 203.57465688 0 2621.49469639 0 267.96576187 0 284.40262806 0 27345
0.15850000 0.15849900 9446.96289689 0 154.78224310 0 2565.59052838 0 594.26606704 0 -100.64610392 0 26980
0.15950000 0.15949700 9250.44020369 0 124.17390838 0 2229.37938526 0 464.42645005 0 91.78901913 0 27777
0.16050000 0.16050000 9095.62695807 0 225.40263803 0 1986.05397505 0 190.44177242 0 -22.66659903 0 28224
0.16150000 0.16150500 9008.87529312 0 137.09531144 0 1773.78643595 0 112.95653610 0 385.34901343 0 28075
0.16250000 0.16249700 8710.05539091 0 -16.57549170 0 1687.42230236 0 69.39856388 0 396.01276946 0 28590
0.16350000 0.16349900 8941.76593239 0 9.57492575 0 1674.21301885 0 140.26974697 0 76.08491939 0 29163
0.16450000 0.16449100 8907.93998007 0 12.28186558 0 1724.55887980 0 92.82295282 0 -86.33899941 0 28996
0.16550000 0.16550500 8737.08293580 0 282.94329565 0 1939.74951265 0 -158.38185590 0 46.29139705 0 30777
0.16650000 0.16650700 8726.94068626 0 111.82162281 0 1840.97330295 0 -82.07593291 0 121.74685478 0 29211
0.16750000 0.16749900 8558.87386784 0 93.42484440 0 2121.95568987 0 -133.38054646 0 -88.08178333 0 30922
0.16850000 0.16850800 8483.88101184 0 139.75931279 0 1890.20085909 0 -76.62070919 0 117.79957098 0 30867
0.16950000 0.16949900 8479.21956309 0 60.95436608 0 1937.71220489 0 262.77505599 0 -133.02069591 0 30852
0.17050000 0.17049200 8383.87577408 0 -23.77892478 0 1478.31037584 0 160.04824079 0 113.71720482 0 31257
0.17150000 0.17149500 8468.53476964 0 58.57171250 0 1663.45071913 0 232.40145455 0 -58.07567235 0 32608
0.17250000 0.17250900 8301.28730326 0 171.10284989 0 1516.57633041 0 201.26939886 0 -44.70595086 0 32361
0.17350000 0.17350400 8219.89464352 0 -1.47632843 0 1256.98567504 0 314.48281289 0 -111.51049048 0 32508
0.17450000 0.17449800 8058.75910043 0 12.02111233 0 1268.63376075 0 214.69680716 0 25.29317592 0 32791
0.17550000 0.17549800 8182.44804098 0 146.11150554 0 1061.90792022 0 -45.68363714 0 -58.89956404 0 33633
0.17650000 0.17650100 8060.91820377 0 172.28426695 0 1344.88886177 0 -54.26457815 0 142.99464610 0 33984
0.17750000 0.17750300 7824.82302166 0 245.78568079 0 1489.81452132 0 -316.82460959 0 472.06524695 0 34069
0.17850000 0.17849800 7727.17618909 0 198.72497861 0 1610.63572974 0 -35.01810953 0 550.71639906 0 34536
