### header ###
fiducial parameters:
Omega_m = 0.31
Omega_nu = 0
Omega_de = 0.69
Omega_k = 0
H_0 = 100
w_de = -1
zeff = 0
beta = 0
fgrowth = 0
b_1 = 2
gamma = 0.55
Lx = 3500 Ly = 3500 Lz = 3500
nx = 700 ny = 700 nz = 700
xoffset = -685.467585 yoffset = -31.7331281 zoffset = 572.489161
bins = 400 dk = 0.001
kx_ny = 0.628318531 ky_ny = 0.628318531 kz_ny = 0.628318531
############################
A(data) = 8.03606946 (not used)
A(ran) = 8.03020392 (used)
Ngal = 476725
weighted Ngal = 0
Nran = 23820508
weighted Nran = 0
SN(data) = 3494.32469
SN(ran) = 69.9459884
SN(data+ran) = 3564.27068
############################
13 columns: k_central k_mean P_0(k) sigma^{lin}_{P_0(k)} P^img_1(k) sigma^{lin}_{P_1(k)} P_2(k) sigma^{lin}_{P_2(k)} P^img_3(k) sigma^{lin}_{P_3(k)} P_4(k) sigma^{lin}_{P_4(k)} N_modes
### header ###
0.00050000 0 0 0 0 0 0 0 0 0 0 0 0
0.00150000 0.00179520 26506.59199960 0 -28678.53923602 0 28784.27993804 0 8975.78011424 0 -47465.50637206 0 3
0.00250000 0.00253879 57220.77815353 0 -36275.81491034 0 22000.37724491 0 -37616.00910639 0 13058.14627487 0 6
0.00350000 0.00331552 53261.42552163 0 -1192.01327300 0 2816.06866043 0 -9461.52300403 0 35978.85515870 0 7
0.00450000 0.00420575 53664.12597528 0 24961.89196415 0 7135.67045262 0 -29262.82581670 0 30219.36395779 0 24
0.00550000 0.00557378 36664.89640447 0 6197.95526373 0 10083.47763374 0 339.73103518 0 32622.72278292 0 45
0.00650000 0.00659388 40509.42902800 0 96.08342031 0 28774.86846195 0 14413.17738618 0 25395.92709704 0 40
0.00750000 0.00754703 38960.74295561 0 112.98532415 0 7304.85557585 0 31992.48605424 0 13308.27009252 0 57
0.00850000 0.00846663 47034.01787388 0 -9021.33165854 0 12230.04710168 0 30595.04793888 0 9153.38020433 0 75
0.00950000 0.00948925 50100.83040215 0 -11989.66692987 0 498.35758946 0 7539.16811367 0 957.72177261 0 112
0.01050000 0.01054430 63354.84610306 0 -2451.50129345 0 11616.97247648 0 -9801.52088224 0 -6320.71412900 0 105
0.01150000 0.01145670 63338.79123207 0 -108.87317343 0 19349.33051358 0 -28106.98582889 0 2936.04837216 0 144
0.01250000 0.01249090 68776.40995051 0 305.73899798 0 22941.85702424 0 -22495.42088755 0 2189.25328012 0 169
0.01350000 0.01339930 74335.49207221 0 -1335.21164988 0 26126.14691883 0 -16029.18319346 0 -22060.05707568 0 180
0.01450000 0.01448870 75852.40057236 0 -4191.27354755 0 35946.96686322 0 3115.88507186 0 -28509.79700579 0 267
0.01550000 0.01550050 81719.29332402 0 -6664.62053787 0 38966.27911802 0 8420.00476996 0 -35259.70766173 0 238
0.01650000 0.01653350 79767.02101200 0 1876.18329587 0 21334.59835356 0 19688.25437628 0 -25520.49075125 0 315
0.01750000 0.01747870 83956.78872337 0 -2893.81852530 0 16839.23447719 0 12194.72638551 0 -21436.57446514 0 297
0.01850000 0.01844180 83261.88961775 0 -2431.93649549 0 9809.28258193 0 8221.37833504 0 -21791.99609182 0 388
0.01950000 0.01947590 81418.56898194 0 4307.03470353 0 9754.44135711 0 -4203.97350412 0 -6361.18347621 0 399
0.02050000 0.02045430 78341.56991484 0 9439.73266879 0 11642.43882356 0 -7544.71534840 0 -1516.34381159 0 462
0.02150000 0.02154770 72459.84024793 0 4034.87695949 0 14082.66849034 0 -4845.26041296 0 -3552.52220109 0 571
0.02250000 0.02255340 73562.53307662 0 -1341.42322410 0 17028.34978509 0 51.45619368 0 2705.27897829 0 510
0.02350000 0.02348930 74375.24171831 0 3939.05706051 0 29385.72862219 0 1734.20287472 0 3846.51456967 0 555
0.02450000 0.02439640 65485.93646091 0 9139.04154369 0 22204.66163781 0 7543.24272920 0 1253.09928903 0 592
0.02550000 0.02547300 65381.85660761 0 4092.22052972 0 32496.60900324 0 12074.81310773 0 13225.89199587 0 837
0.02650000 0.02652900 59176.15071650 0 -1316.05652794 0 25850.44603085 0 4633.04823549 0 12863.71625106 0 723
0.02750000 0.02749970 62536.49057571 0 539.63632362 0 26849.05900624 0 8886.50395922 0 17931.07642756 0 826
0.02850000 0.02848090 64563.94397326 0 -2618.51624101 0 28119.82972568 0 1840.65220553 0 15548.64429633 0 831
0.02950000 0.02946900 63666.97493970 0 614.54060101 0 28173.19833130 0 -723.95842210 0 15964.52081652 0 996
0.03050000 0.03053250 64288.02163878 0 5721.26953564 0 28660.71279307 0 -4451.20744499 0 6835.93154746 0 1041
0.03150000 0.03150510 59332.38121969 0 4903.11331014 0 30045.19628839 0 -4111.64138746 0 15234.63316447 0 1036
0.03250000 0.03246190 57300.49889222 0 -222.43636221 0 31263.04129519 0 905.69845445 0 6596.03855794 0 1059
0.03350000 0.03345080 57620.59980273 0 -1235.57179884 0 27550.26933700 0 9834.83750762 0 1977.63900818 0 1302
0.03450000 0.03451200 58977.07031626 0 -1079.99345558 0 25117.56885110 0 8129.82128112 0 -3950.00758975 0 1339
0.03550000 0.03553350 54630.07559246 0 1910.39677956 0 16155.73986614 0 5775.43534865 0 -272.08023777 0 1365
0.03650000 0.03647120 56612.13245825 0 3017.48532120 0 19851.46044410 0 1063.05833477 0 -4126.11291599 0 1308
0.03750000 0.03744890 52024.86828588 0 1476.78239501 0 20265.56539232 0 -1693.31277917 0 4176.32590905 0 1579
0.03850000 0.03847530 52324.92828847 0 3186.53757653 0 23469.34257860 0 -699.60816536 0 4905.08418396 0 1662
0.03950000 0.03950240 48834.26716614 0 1878.71885825 0 22097.03864057 0 -1030.97405914 0 4826.94678771 0 1683
0.04050000 0.04050350 48697.08106164 0 2027.30945732 0 25353.96298598 0 1666.30737893 0 5701.54972514 0 1822
0.04150000 0.04152450 47538.58371587 0 1918.86710805 0 26821.26747094 0 3986.62376793 0 4165.76291117 0 1887
0.04250000 0.04250150 44640.18124809 0 750.49103407 0 24089.06059870 0 1225.42954930 0 1386.18863335 0 1920
0.04350000 0.04349210 45582.87898315 0 1331.25882992 0 23091.55485578 0 3135.16198937 0 -100.53327693 0 2005
0.04450000 0.04448520 44610.83958732 0 -543.90249037 0 21231.73645600 0 -1500.77612289 0 454.89317838 0 2151
0.04550000 0.04548030 44365.47686934 0 -746.72644363 0 21698.87784009 0 688.03980039 0 -5148.11064140 0 2274
0.04650000 0.04648670 45392.87788926 0 -751.91272057 0 21741.50629065 0 -19.43314801 0 -8478.21198154 0 2311
0.04750000 0.04749250 45624.51092447 0 2164.31840463 0 19494.93158494 0 -100.40195916 0 -8905.13868189 0 2568
0.04850000 0.04851840 43687.40769744 0 1620.98835345 0 19503.45727505 0 -2760.85097656 0 -6607.45412483 0 2493
0.04950000 0.04949480 42934.60033302 0 1890.20085909 0 19325.19284547 0 2489.09183621 0 -4487.66861062 0 2644
0.05050000 0.05050630 40499.57465891 0 1960.89765306 0 19645.73664897 0 1077.97607800 0 -8175.02958335 0 2829
0.05150000 0.05149060 39236.55456684 0 2175.03641505 0 18951.61260609 0 2773.87203054 0 -6601.26469525 0 2784
0.05250000 0.05249300 38245.24932583 0 1396.95093307 0 20508.60292209 0 2421.43993156 0 -2010.62346382 0 3055
0.05350000 0.05348950 37451.58508283 0 307.68329822 0 18741.68132753 0 2729.26163385 0 -2102.92236351 0 3009
0.05450000 0.05448610 38004.97987727 0 -1079.75429336 0 17729.22794611 0 3633.95915013 0 957.93325401 0 3336
0.05550000 0.05550870 38999.82826222 0 -1228.18655818 0 18086.31042151 0 4835.88215384 0 2398.47592989 0 3349
0.05650000 0.05647670 39808.99375997 0 -116.24723104 0 16720.64987838 0 2279.93562038 0 3272.23737063 0 3324
0.05750000 0.05747970 38000.55094734 0 1897.79647392 0 14965.46494813 0 4558.74186363 0 4496.94721882 0 3639
0.05850000 0.05849280 37457.23196849 0 2331.66552193 0 12738.37753411 0 1346.59399979 0 6093.56538534 0 3846
0.05950000 0.05951020 34892.32792425 0 712.17857573 0 12182.87899796 0 906.32293357 0 3408.51554450 0 3787
0.06050000 0.06049470 34452.75662895 0 738.93041972 0 12224.95383227 0 -206.49996510 0 3972.15223939 0 3930
0.06150000 0.06148310 32928.31894792 0 1640.27634328 0 12388.49206984 0 -327.50608135 0 1505.06111260 0 4083
0.06250000 0.06249100 31892.83513088 0 1419.23952293 0 11198.77076808 0 -180.88303440 0 292.41566953 0 4303
0.06350000 0.06350600 31204.57942015 0 -717.65826928 0 9971.78002097 0 1762.17156721 0 -958.56216206 0 4470
0.06450000 0.06451750 31761.96025152 0 -1129.89753077 0 10859.68082050 0 -362.75925634 0 -3245.44234457 0 4479
0.06550000 0.06550280 32405.81593972 0 310.78797810 0 10579.14132657 0 327.30899396 0 -3088.43677864 0 4636
0.06650000 0.06648880 32030.35340512 0 1017.02292987 0 11377.81026039 0 -2067.28054991 0 -2487.18739634 0 4653
0.06750000 0.06749660 30745.29938667 0 1766.66693109 0 11046.27163835 0 -46.72100325 0 -917.60895425 0 5220
0.06850000 0.06852730 30797.11786682 0 258.11692894 0 11842.51573303 0 91.47157558 0 -1776.05626253 0 5029
0.06950000 0.06949320 29700.62554003 0 -104.92533602 0 11324.44165477 0 956.18493392 0 -1179.87800500 0 5040
0.07050000 0.07048030 30557.73420424 0 510.67665805 0 11623.28370162 0 1338.45584105 0 -2513.26272129 0 5475
0.07150000 0.07148790 28909.28648524 0 221.96689564 0 11030.72609430 0 911.42616807 0 -2439.23315755 0 5509
0.07250000 0.07249820 28721.83202606 0 1014.89372181 0 10175.22291719 0 1471.16872633 0 -2595.04291240 0 5916
0.07350000 0.07351270 27687.56616476 0 982.63671791 0 10599.10472822 0 1035.70194184 0 -2633.41959022 0 5721
0.07450000 0.07449140 27408.10068633 0 778.50955202 0 8973.66530020 0 1619.27214310 0 -411.44648303 0 6028
0.07550000 0.07549160 26398.74755586 0 260.11105464 0 10309.10946890 0 632.85201180 0 -1731.70052931 0 6183
0.07650000 0.07648840 27163.95592408 0 612.85539318 0 9649.19890971 0 197.81483351 0 6.12254166 0 6330
0.07750000 0.07749960 26705.45095334 0 44.19573813 0 10258.34285960 0 -1617.31234161 0 678.46999005 0 6583
0.07850000 0.07848650 26591.29528446 0 589.61679785 0 11806.19850763 0 -1430.30077542 0 2012.62755461 0 6549
0.07950000 0.07947320 26577.56560169 0 -224.38509138 0 11689.82837378 0 -462.22970081 0 883.57484223 0 6828
0.08050000 0.08048110 26108.20975262 0 441.13249310 0 12900.14419971 0 1148.11150510 0 1607.34724927 0 7147
0.08150000 0.08149960 25965.48748571 0 483.68786631 0 11050.78914687 0 1377.95082368 0 -1093.53601606 0 7386
0.08250000 0.08250610 24815.51583005 0 694.99875654 0 9718.19056565 0 1417.52331258 0 -645.07253670 0 7227
0.08350000 0.08350160 24182.17885042 0 1167.54343515 0 9309.18995917 0 835.22975037 0 -2116.98421603 0 7798
0.08450000 0.08449610 22860.47543682 0 933.71143624 0 8112.63703300 0 434.08163666 0 -2399.35064355 0 7371
0.08550000 0.08548940 22459.98944813 0 523.97562739 0 7396.71158255 0 446.85467057 0 -1128.17024810 0 8256
0.08650000 0.08650700 21460.49068675 0 745.67568000 0 6785.64104813 0 1007.51291008 0 -2046.60851948 0 8037
0.08750000 0.08749060 21696.99554487 0 624.01186766 0 7551.75734698 0 150.13408115 0 -1250.38656944 0 8155
0.08850000 0.08849210 20123.61818815 0 623.97754346 0 7595.73662116 0 482.60167124 0 -1240.04501806 0 8718
0.08950000 0.08949900 20381.27118668 0 381.51688181 0 7455.35061479 0 284.93077795 0 185.53008913 0 8571
0.09050000 0.09049190 19966.61262222 0 260.47090520 0 7869.45556301 0 315.96982612 0 -466.30210188 0 8932
0.09150000 0.09150830 20089.84759745 0 39.47128785 0 7794.93881698 0 155.48533573 0 -120.24323307 0 9285
0.09250000 0.09250820 19703.75563102 0 23.15909604 0 7663.06742839 0 20.48778695 0 -5.51462674 0 9204
0.09350000 0.09350330 19632.67130569 0 303.39609405 0 7551.84592558 0 223.93334053 0 -216.77176083 0 9349
0.09450000 0.09448040 19576.64534210 0 165.20462246 0 6637.82551180 0 966.91069497 0 -163.14406281 0 9564
0.09550000 0.09549270 18990.91935920 0 552.74484897 0 6991.12125212 0 736.65394974 0 -723.36715996 0 10155
0.09650000 0.09649430 18919.94575711 0 363.43245368 0 5817.90878666 0 736.70377520 0 -312.54294159 0 9913
0.09750000 0.09749140 18366.88313242 0 114.93958948 0 5872.11888897 0 534.44340328 0 -374.56014013 0 10476
0.09850000 0.09850240 18128.38525583 0 295.49709753 0 5346.68171470 0 487.91195823 0 -182.87383840 0 10575
0.09950000 0.09950330 18052.42910757 0 332.42883696 0 5328.85527174 0 -288.13289429 0 -933.72029410 0 10882
0.10050000 0.10051200 17763.77359955 0 640.74215047 0 5531.36809268 0 -215.13748569 0 7.79076455 0 10875
0.10150000 0.10150300 17268.06561742 0 599.13013933 0 5441.13971773 0 -311.64940497 0 89.30771114 0 11118
0.10250000 0.10250800 16614.79845312 0 525.50360822 0 5338.24460319 0 460.85230360 0 -24.87109890 0 11575
0.10350000 0.10349800 16412.61780193 0 378.36459094 0 5036.94450022 0 651.87980200 0 -474.39486409 0 11364
0.10450000 0.10450100 16021.87545908 0 263.12604869 0 5380.30836518 0 465.60786711 0 -1238.81599001 0 12093
0.10550000 0.10551000 15800.31823946 0 97.12111859 0 5501.27351382 0 897.85371231 0 -283.08059248 0 12067
0.10650000 0.10649700 15768.98356022 0 94.10789612 0 4999.13251097 0 283.01526576 0 -586.52540476 0 12054
0.10750000 0.10749900 15429.72752778 0 81.80698614 0 5168.78267184 0 263.75384950 0 -91.71915276 0 12807
0.10850000 0.10850100 15629.14009776 0 131.37756290 0 4965.19583540 0 104.57600417 0 708.38298278 0 12736
0.10950000 0.10950300 15526.61036994 0 24.52841045 0 5180.44182987 0 636.78379434 0 188.32474391 0 12933
0.11050000 0.11050200 15505.68367603 0 49.07043985 0 5292.46054006 0 -246.53195548 0 -206.14122178 0 13428
0.11150000 0.11150900 15146.60818216 0 316.51015557 0 4998.36852056 0 -95.08425372 0 102.53028144 0 13453
0.11250000 0.11250000 15236.73690619 0 325.41894812 0 5154.49937282 0 -296.47921274 0 -175.85287723 0 13668
0.11350000 0.11349100 15082.16725172 0 -288.30119363 0 5142.26445390 0 -96.60182656 0 39.78352741 0 13791
0.11450000 0.11448600 15248.03067750 0 173.76463677 0 5558.53957778 0 76.88921307 0 -740.16055501 0 14205
0.11550000 0.11549300 14895.82002502 0 540.28073292 0 5076.73843562 0 104.85059783 0 223.78054244 0 14776
0.11650000 0.11649800 14629.75205963 0 255.29902227 0 4929.00040557 0 389.03499036 0 357.27291939 0 14553
0.11750000 0.11747300 14470.42130549 0 -51.18658257 0 5162.82576109 0 601.34571153 0 553.90301415 0 14568
0.11850000 0.11849100 14598.30665714 0 252.40360933 0 4698.14243310 0 818.95564735 0 338.77549355 0 16015
0.11950000 0.11950300 14170.47202615 0 258.77573227 0 4922.04698558 0 186.31179526 0 623.48482500 0 15270
0.12050000 0.12050700 14061.18818019 0 191.75827184 0 4676.55139970 0 0.97937149 0 1114.21911883 0 15999
0.12150000 0.12150000 13832.65539593 0 169.17405090 0 4992.17909098 0 95.05945171 0 1621.47553574 0 15670
0.12250000 0.12250700 13940.83200941 0 62.78816452 0 4722.40189678 0 582.56040524 0 1642.97799054 0 16887
0.12350000 0.12352200 13767.66084925 0 -89.33085230 0 4488.38831173 0 472.55575094 0 1456.91864429 0 16407
0.12450000 0.12449800 13950.57565525 0 160.34940802 0 4562.72790057 0 -31.85452489 0 414.81911317 0 16306
0.12550000 0.12549900 13491.95996127 0 617.87337078 0 4673.46222108 0 -258.45574208 0 871.22477112 0 17523
0.12650000 0.12650100 13192.56429817 0 382.77026898 0 4369.54904946 0 -380.81932535 0 709.84342243 0 17154
0.12750000 0.12750600 12850.54018452 0 -50.89969864 0 3950.33975950 0 5.34105697 0 74.97779763 0 18007
0.12850000 0.12850300 13055.26747042 0 35.16171759 0 4035.28663551 0 108.03079096 0 -445.96113395 0 17496
0.12950000 0.12949900 13018.17518228 0 116.76098691 0 3917.64318431 0 -61.60907265 0 -911.76830291 0 18405
0.13050000 0.13049000 12780.23092192 0 202.75641208 0 3806.53240475 0 -371.18197383 0 -543.29129804 0 18100
0.13150000 0.13148800 12737.93464112 0 115.41127051 0 3918.88328469 0 434.71165194 0 -607.14318080 0 19059
0.13250000 0.13249300 12850.42946127 0 38.38874666 0 4675.54381814 0 87.80032484 0 10.03216848 0 18957
0.13350000 0.13349100 12753.21444937 0 300.39881572 0 4535.06923317 0 68.46162376 0 -59.20770684 0 19468
0.13450000 0.13450700 12448.72551685 0 319.45982290 0 4755.30884614 0 383.61398013 0 883.69553057 0 19953
0.13550000 0.13551000 12203.25207562 0 138.59339699 0 4410.00732434 0 418.04669585 0 1053.71882878 0 19956
0.13650000 0.13649900 12199.93037818 0 8.64843790 0 4427.19157246 0 792.10193797 0 848.83763757 0 19723
0.13750000 0.13749600 12088.65351375 0 23.41353806 0 3867.33054033 0 413.15715721 0 363.17889745 0 20946
0.13850000 0.13851100 11917.91826505 0 112.23572776 0 3330.59959475 0 -34.51000055 0 5.38417261 0 20955
0.13950000 0.13949800 11928.10480388 0 181.72453109 0 3293.42980033 0 -96.33011171 0 -179.10260457 0 20506
0.14050000 0.14048300 11607.78244688 0 164.04092112 0 3079.20245974 0 120.01071424 0 -265.05263321 0 21447
0.14150000 0.14148400 11553.97094826 0 115.56517583 0 2827.70567381 0 373.96334182 0 -531.65207019 0 21771
0.14250000 0.14249400 11310.04763250 0 143.86271637 0 2847.52513524 0 288.75294448 0 -616.31438745 0 22470
0.14350000 0.14350900 11336.95338181 0 164.63993389 0 2875.32774285 0 -20.78806840 0 -513.33623047 0 22519
0.14450000 0.14449900 11167.65753533 0 98.12094952 0 2758.06075070 0 148.61606541 0 -239.58739336 0 22218
0.14550000 0.14550500 11120.48943161 0 207.64262902 0 2832.74358160 0 -32.73964653 0 8.52670876 0 23559
0.14650000 0.14650700 10913.32623425 0 197.47380591 0 2923.96846578 0 37.01666416 0 -134.65939998 0 23044
0.14750000 0.14750500 10773.99209873 0 168.02695805 0 2747.44239120 0 24.40196450 0 -410.14105593 0 23649
0.14850000 0.14849900 10563.46291463 0 232.76684127 0 2569.38833579 0 450.61704654 0 134.24197333 0 23640
0.14950000 0.14949500 10307.96901944 0 96.75484609 0 2052.33291141 0 479.82805388 0 66.92666737 0 24457
0.15050000 0.15050000 10409.44687640 0 75.06172586 0 2162.32538616 0 350.42247202 0 -340.62678626 0 24591
0.15150000 0.15149900 10105.77729593 0 113.82017744 0 2247.37191309 0 73.73459700 0 -109.65144714 0 25020
0.15250000 0.15250500 10107.58208487 0 307.17618575 0 2196.85996727 0 -120.93082444 0 -49.69669055 0 25297
0.15350000 0.15350100 9886.76671101 0 78.17758878 0 2349.03799958 0 -231.82680089 0 254.81405445 0 25452
0.15450000 0.15450400 10056.07362982 0 -40.49946394 0 2458.69830458 0 52.34795872 0 448.20106526 0 26061
0.15550000 0.15549900 9968.74620397 0 182.19510489 0 2648.62189219 0 253.92605400 0 348.85905976 0 26128
0.15650000 0.15649500 9726.43944764 0 211.64084551 0 2372.87671491 0 165.95532608 0 219.10802137 0 26331
0.15750000 0.15749700 9642.32299599 0 301.65441736 0 2705.34541224 0 239.82987727 0 358.94262597 0 27345
0.15850000 0.15849900 9330.74777560 0 336.54995626 0 2227.99534466 0 -139.37953205 0 289.01646581 0 26980
0.15950000 0.15949700 9116.49829036 0 223.25349978 0 2576.16459858 0 -63.95308381 0 622.06646019 0 27777
0.16050000 0.16050000 9059.88549356 0 -29.85829545 0 2431.20572205 0 -0.57846586 0 622.22922337 0 28224
0.16150000 0.16150500 9022.83749471 0 82.30811956 0 2481.26370256 0 93.80717178 0 324.23088766 0 28075
0.16250000 0.16249700 9097.61997654 0 51.47955629 0 2475.68325085 0 -144.59570427 0 108.74240928 0 28590
0.16350000 0.16349900 8885.72889649 0 107.62288651 0 2622.25868680 0 -104.98745176 0 -109.02331416 0 29163
0.16450000 0.16449100 8866.87272732 0 194.59832315 0 2605.27374053 0 -136.39111158 0 212.39929976 0 28996
0.16550000 0.16550500 8748.24383921 0 125.65759990 0 2586.17398022 0 133.13252639 0 -43.04344129 0 30777
0.16650000 0.16650700 8741.61151665 0 -46.99050364 0 2676.83417583 0 53.65925415 0 130.92913375 0 29211
0.16750000 0.16749900 8797.27209351 0 -40.43956266 0 2381.95602126 0 81.80809337 0 -313.35454300 0 30922
0.16850000 0.16850800 8844.15231679 0 19.62979250 0 2457.72393999 0 85.03600822 0 -274.83392495 0 30867
0.16950000 0.16949900 8906.51165017 0 -6.62224675 0 2407.24521115 0 -220.84859083 0 -510.23597953 0 30852
0.17050000 0.17049200 8872.54175763 0 -31.42569375 0 2517.92417003 0 -82.79496968 0 -449.84309103 0 31257
0.17150000 0.17149500 8990.30700440 0 52.48658423 0 2309.11119628 0 -197.65207034 0 -751.71784766 0 32608
0.17250000 0.17250900 8845.40348950 0 292.87295655 0 2471.40933347 0 121.36707403 0 -750.04481938 0 32361
0.17350000 0.17350400 8520.18716492 0 346.11423044 0 2356.74433765 0 -76.69666534 0 -561.53406041 0 32508
0.17450000 0.17449800 8372.64843671 0 254.31137090 0 2317.36007827 0 448.53544947 0 -215.12087720 0 32791
0.17550000 0.17549800 8129.22337558 0 47.64664961 0 2256.24084527 0 381.77929591 0 -188.19519771 0 33633
0.17650000 0.17650100 8085.59841579 0 89.05083320 0 2223.51105311 0 420.05189388 0 -270.43599753 0 33984
0.17750000 0.17750300 8003.10959589 0 89.46471670 0 2148.86143918 0 188.73884886 0 16.66307379 0 34069
0.17850000 0.17849800 7894.99941636 0 96.12748816 0 2055.77640443 0 -62.99831724 0 31.83127300 0 34536
