### header ###
fiducial parameters:
Omega_m = 0.31
Omega_nu = 0
Omega_de = 0.69
Omega_k = 0
H_0 = 100
w_de = -1
zeff = 0
beta = 0
fgrowth = 0
b_1 = 2
gamma = 0.55
Lx = 3500 Ly = 3500 Lz = 3500
nx = 700 ny = 700 nz = 700
xoffset = -685.467585 yoffset = -31.7331281 zoffset = 572.489161
bins = 400 dk = 0.001
kx_ny = 0.628318531 ky_ny = 0.628318531 kz_ny = 0.628318531
############################
A(data) = 8.03933367 (not used)
A(ran) = 8.02892586 (used)
Ngal = 477136
weighted Ngal = 0
Nran = 23820508
weighted Nran = 0
SN(data) = 3498.66067
SN(ran) = 69.9348561
SN(data+ran) = 3568.59553
############################
13 columns: k_central k_mean P_0(k) sigma^{lin}_{P_0(k)} P^img_1(k) sigma^{lin}_{P_1(k)} P_2(k) sigma^{lin}_{P_2(k)} P^img_3(k) sigma^{lin}_{P_3(k)} P_4(k) sigma^{lin}_{P_4(k)} N_modes
### header ###
0.00050000 0 0 0 0 0 0 0 0 0 0 0 0
0.00150000 0.00179520 59509.31697030 0 -34511.66139698 0 6287.58573314 0 92968.00027703 0 -98279.39449253 0 3
0.00250000 0.00253879 90145.44323426 0 -16528.87721252 0 32114.06018075 0 -17511.65676343 0 19283.45018091 0 6
0.00350000 0.00331552 86281.42331905 0 4520.24339024 0 -3083.35458155 0 -36329.07279272 0 114690.46216898 0 7
0.00450000 0.00420575 73097.05254124 0 16610.81241618 0 4796.15465239 0 -5714.53756215 0 36646.95923826 0 24
0.00550000 0.00557378 69008.59660196 0 -9582.46600802 0 1405.90844385 0 20855.49885866 0 -15944.36918535 0 45
0.00650000 0.00659388 92404.52966701 0 -4653.86420615 0 38088.46520640 0 14861.16364834 0 -3336.76687967 0 40
0.00750000 0.00754703 79661.83392622 0 5201.52353633 0 1736.48377363 0 4524.51730762 0 -16637.16454925 0 57
0.00850000 0.00846663 78319.97888145 0 12709.47876633 0 30194.22978045 0 -13997.19014274 0 24896.78669422 0 75
0.00950000 0.00948925 65676.82334078 0 5938.20959581 0 8803.24007659 0 8440.76537900 0 709.50018036 0 112
0.01050000 0.01054430 60968.09576515 0 3010.12222520 0 31487.80948901 0 4831.61930879 0 -6670.92069069 0 105
0.01150000 0.01145670 53909.37797002 0 7286.47551665 0 28573.46287350 0 -8180.38858856 0 3293.37443871 0 144
0.01250000 0.01249090 51571.56730781 0 9828.05017250 0 22419.02184630 0 2444.72503066 0 9486.41359022 0 169
0.01350000 0.01339930 48061.08672406 0 1312.71268585 0 23729.87438158 0 1770.19900271 0 13605.45129066 0 180
0.01450000 0.01448870 54911.97698235 0 -5774.40562245 0 31450.38503112 0 7280.82863100 0 14357.81576208 0 267
0.01550000 0.01550050 54731.83025755 0 -4027.44742953 0 26509.02791106 0 17834.41503189 0 17738.75014546 0 238
0.01650000 0.01653350 64704.23032871 0 -3150.78503969 0 28433.61941104 0 16692.85834309 0 -1653.29739727 0 315
0.01750000 0.01747870 63904.80847680 0 2427.14217885 0 33440.52469403 0 15820.13770088 0 27180.56441131 0 297
0.01850000 0.01844180 62517.55690027 0 4145.44519513 0 31600.85792541 0 7356.20901836 0 6829.19957397 0 388
0.01950000 0.01947590 60116.30181685 0 4147.87003426 0 18722.63692884 0 7071.72777680 0 22005.13834458 0 399
0.02050000 0.02045430 59771.62034525 0 -4514.39720273 0 22416.36448834 0 8482.05407825 0 20851.62354497 0 462
0.02150000 0.02154770 68736.77102766 0 -8827.65455281 0 18119.85956571 0 7114.20121480 0 7017.99378445 0 571
0.02250000 0.02255340 78850.78613325 0 -10619.49995054 0 12074.37021473 0 -540.63615455 0 -15566.58146253 0 510
0.02350000 0.02348930 72923.54921133 0 3542.32458993 0 4333.22075173 0 -2315.53314467 0 -3401.96072820 0 555
0.02450000 0.02439640 75367.87563830 0 7104.53507523 0 8075.45616626 0 -14755.09077658 0 -14610.81838419 0 592
0.02550000 0.02547300 69151.20814562 0 7564.55695448 0 8907.04312176 0 -9785.68745775 0 -20576.91916622 0 837
0.02650000 0.02652900 63004.29629930 0 6852.38502214 0 24590.85835948 0 -18988.15127799 0 -23750.24745924 0 723
0.02750000 0.02749970 56525.87904791 0 6461.62053464 0 21138.17531128 0 -7105.34335495 0 -12441.74995222 0 826
0.02850000 0.02848090 55748.04822940 0 2574.39302661 0 35955.49255333 0 -3522.79300895 0 -12506.74449890 0 831
0.02950000 0.02946900 52524.67302820 0 -1058.46442720 0 31600.96864866 0 11124.14329880 0 -10044.83522013 0 996
0.03050000 0.03053250 56023.63839414 0 -931.42943009 0 27991.05858803 0 10633.59502003 0 -13301.51597438 0 1041
0.03150000 0.03150510 56646.56738844 0 -2100.30929485 0 20589.32017002 0 14761.06983198 0 -9213.40327717 0 1036
0.03250000 0.03246190 55737.97241382 0 -1894.70729529 0 14112.01015111 0 6546.70027855 0 -11000.65366010 0 1059
0.03350000 0.03345080 54237.67240089 0 358.10112928 0 7630.48157645 0 8334.68143491 0 -11060.96461338 0 1302
0.03450000 0.03451200 54936.44682020 0 30.27007521 0 2950.50882837 0 848.06921823 0 -7111.34455500 0 1339
0.03550000 0.03553350 50826.95346375 0 2663.24843328 0 3885.59987628 0 -3507.42462210 0 -6443.65015146 0 1365
0.03650000 0.03647120 51906.17296383 0 3222.95445286 0 6082.73665167 0 -2578.08011077 0 -6097.50713298 0 1308
0.03750000 0.03744890 50002.72960425 0 1659.68612869 0 12248.64860738 0 -5353.76800259 0 -5268.95399447 0 1579
0.03850000 0.03847530 47419.22405432 0 4470.72795365 0 13838.41300484 0 -4258.48255920 0 -2725.64098363 0 1662
0.03950000 0.03950240 45547.11537398 0 2617.42008085 0 19154.45759677 0 -2374.73686548 0 1044.38264450 0 1683
0.04050000 0.04050350 45224.68927526 0 -180.83431617 0 20205.88556155 0 1023.78701310 0 2393.95842136 0 1822
0.04150000 0.04152450 45287.58008023 0 -276.40065891 0 21166.29901632 0 6017.57602011 0 1570.71999877 0 1887
0.04250000 0.04250150 46110.58598400 0 -1345.92966031 0 16757.07782704 0 4694.26711941 0 -2664.44424436 0 1920
0.04350000 0.04349210 44769.50600197 0 823.38236281 0 16556.89019431 0 4644.66310423 0 291.88309071 0 2005
0.04450000 0.04448520 45714.19675550 0 853.74710640 0 14597.53159441 0 -1757.74263728 0 -1138.36785925 0 2151
0.04550000 0.04548030 43430.19759191 0 1572.39191982 0 14313.85863255 0 301.76181891 0 851.71533479 0 2274
0.04650000 0.04648670 43897.89259225 0 1800.29358156 0 15104.97624085 0 -771.61370812 0 864.79950103 0 2311
0.04750000 0.04749250 42617.37822697 0 196.72199505 0 14413.50955592 0 2008.63044535 0 4746.39562466 0 2568
0.04850000 0.04851840 41888.26563766 0 1031.63839863 0 15124.68497902 0 2594.21248803 0 4190.63135271 0 2493
0.04950000 0.04949480 40820.56135540 0 2699.28885056 0 16496.54602405 0 2042.44532535 0 4612.64194085 0 2644
0.05050000 0.05050630 40159.65428697 0 1386.44329682 0 15333.06613211 0 1592.14494730 0 738.55838961 0 2829
0.05150000 0.05149060 35859.38477391 0 1356.11619914 0 13024.15423768 0 260.33360837 0 4163.65916945 0 2784
0.05250000 0.05249300 36931.51798610 0 1151.71001066 0 12201.81267340 0 1615.59613126 0 1294.78659197 0 3055
0.05350000 0.05348950 35571.83649837 0 -617.06841277 0 13955.89037117 0 -717.18880271 0 255.00671290 0 3009
0.05450000 0.05448610 36215.58146332 0 1200.11821477 0 12511.94849157 0 -623.04303924 0 -2918.72018382 0 3336
0.05550000 0.05550870 35227.26575001 0 -11.04104550 0 13133.99169988 0 391.18412861 0 -3.35308749 0 3349
0.05650000 0.05647670 34732.88644686 0 895.66360646 0 10939.64515034 0 2485.46011367 0 -773.01767891 0 3324
0.05750000 0.05747970 34818.25407121 0 -409.80335003 0 12135.82161748 0 485.50262035 0 -2477.69841397 0 3639
0.05850000 0.05849280 34540.89233450 0 1231.54147260 0 12186.86503489 0 1180.24339172 0 -1573.12269326 0 3846
0.05950000 0.05951020 34665.34526547 0 562.74315828 0 10457.08001777 0 197.20031949 0 -2452.27635618 0 3787
0.06050000 0.06049470 33467.43044334 0 -618.82448349 0 10578.16696199 0 334.76731196 0 74.29009554 0 3930
0.06150000 0.06148310 34713.95277142 0 -637.91649317 0 10818.54713380 0 898.30878486 0 -2617.32042993 0 4083
0.06250000 0.06249100 34614.08040156 0 -330.46682100 0 10978.99619275 0 1159.71530151 0 -1184.12977773 0 4303
0.06350000 0.06350600 34250.46525451 0 1363.15819772 0 11254.90745491 0 1016.65643592 0 -1359.23859474 0 4470
0.06450000 0.06451750 33331.90518756 0 1559.38193816 0 10315.35426009 0 624.97405269 0 1125.44645619 0 4479
0.06550000 0.06550280 32778.39966987 0 606.79661704 0 12111.46250288 0 542.67124785 0 1314.51747479 0 4636
0.06650000 0.06648880 31779.56524798 0 2248.63415812 0 12316.52195852 0 -857.20388620 0 1575.29286892 0 4653
0.06750000 0.06749660 30979.36833334 0 1190.83960657 0 15158.89846271 0 -726.30464773 0 1912.05762828 0 5220
0.06850000 0.06852730 29288.29216379 0 374.28001031 0 14238.23465404 0 -1662.64243942 0 1918.00346671 0 5029
0.06950000 0.06949320 29432.01093993 0 1447.92791653 0 16294.03320312 0 -976.38417609 0 1099.44199412 0 5040
0.07050000 0.07048030 28623.17761193 0 853.35071717 0 15338.15940153 0 548.77763499 0 -785.66891725 0 5475
0.07150000 0.07148790 28350.79842139 0 114.46347951 0 16243.87557169 0 517.80834247 0 2127.34791206 0 5509
0.07250000 0.07249820 28127.80179954 0 -88.40022340 0 14762.50923420 0 2791.94206465 0 382.16350558 0 5916
0.07350000 0.07351270 29096.96239092 0 -431.16297183 0 14536.74453115 0 1842.00302915 0 -786.02101718 0 5721
0.07450000 0.07449140 29192.40583086 0 -488.57961941 0 13300.18729541 0 985.45573181 0 -1038.45452179 0 6028
0.07550000 0.07549160 28856.47149586 0 613.90504957 0 13141.96377375 0 -803.33038257 0 -69.31109252 0 6183
0.07650000 0.07648840 28358.65977201 0 1144.33584233 0 12201.03761066 0 22.72495018 0 -262.92674684 0 6330
0.07750000 0.07749960 27249.32354843 0 494.38594655 0 11923.34370421 0 1436.12481828 0 -987.33249087 0 6583
0.07850000 0.07848650 26925.67949398 0 371.73116114 0 12183.76478394 0 1776.22234741 0 -1903.27727470 0 6549
0.07950000 0.07947320 25809.69987551 0 865.63103262 0 10349.82240726 0 2459.32942709 0 -983.74284316 0 6828
0.08050000 0.08048110 25590.13567436 0 919.54771833 0 8672.94095812 0 1879.34998077 0 -1549.87081114 0 7147
0.08150000 0.08149960 24196.01925644 0 338.62048100 0 8126.22277555 0 981.57598920 0 -1014.24266911 0 7386
0.08250000 0.08250610 24288.03027569 0 376.61405638 0 7207.43018977 0 1122.18012037 0 -200.27731855 0 7227
0.08350000 0.08350160 23603.87132514 0 39.56695274 0 7140.24332277 0 1746.62602317 0 433.36968617 0 7798
0.08450000 0.08449610 23474.76801776 0 493.85226049 0 6739.84591268 0 350.39811291 0 567.27727529 0 7371
0.08550000 0.08548940 23084.80073764 0 492.58669376 0 6239.76436225 0 1132.01234481 0 2074.33362082 0 8256
0.08650000 0.08650700 22714.09930272 0 243.82255760 0 6327.51253644 0 431.32019885 0 1622.93708262 0 8037
0.08750000 0.08749060 22517.45481394 0 587.56398883 0 6543.31214715 0 -723.95510041 0 2168.44838178 0 8155
0.08850000 0.08849210 22003.03460286 0 776.87749134 0 7405.68016565 0 -614.65021703 0 1143.36147775 0 8718
0.08950000 0.08949900 21562.79896807 0 660.25712296 0 8144.97929379 0 -1445.97918737 0 1833.43304975 0 8571
0.09050000 0.09049190 20754.18708657 0 602.38761729 0 7731.87085481 0 -340.80394345 0 1213.81468057 0 8932
0.09150000 0.09150830 20490.99792563 0 608.94132635 0 8651.20598450 0 251.71933966 0 -669.82139714 0 9285
0.09250000 0.09250820 19929.40961083 0 290.23109984 0 7845.60577535 0 155.38457757 0 -1079.85283705 0 9204
0.09350000 0.09350330 19712.17059788 0 283.15145535 0 7806.17722667 0 793.53026787 0 -706.64019886 0 9349
0.09450000 0.09448040 19587.49622043 0 470.09658759 0 7123.82306507 0 426.48159290 0 -1413.90266237 0 9564
0.09550000 0.09549270 19140.72791399 0 -0.71678245 0 6645.42112663 0 950.49708066 0 -20.00614082 0 10155
0.09650000 0.09649430 19184.35287378 0 126.88109179 0 6471.40846978 0 1358.77355709 0 -20.02463160 0 9913
0.09750000 0.09749140 18794.16414717 0 148.08016489 0 6123.87033837 0 713.11640164 0 -285.71802025 0 10476
0.09850000 0.09850240 18569.39595335 0 335.61434481 0 6230.68505590 0 567.54411832 0 327.04215094 0 10575
0.09950000 0.09950330 18188.17580985 0 296.14815023 0 6269.90323041 0 106.59382465 0 1025.30170714 0 10882
0.10050000 0.10051200 17923.54724668 0 488.65823292 0 6480.87530750 0 -44.81977436 0 1042.07185031 0 10875
0.10150000 0.10150300 17940.48790365 0 263.16258736 0 6465.14153393 0 -176.97893267 0 1601.52320642 0 11118
0.10250000 0.10250800 17492.39091824 0 425.49172706 0 6381.19116716 0 -38.57775124 0 460.96745578 0 11575
0.10350000 0.10349800 17253.56087190 0 564.04415645 0 5986.55136597 0 342.94311661 0 81.60978803 0 11364
0.10450000 0.10450100 16517.80488770 0 439.19151456 0 5998.49840445 0 118.98209527 0 -215.94465817 0 12093
0.10550000 0.10551000 16136.03112796 0 560.10019435 0 4512.42632892 0 362.92423398 0 -1050.86991961 0 12067
0.10650000 0.10649700 15794.33918405 0 45.84263572 0 4773.19065072 0 521.15107733 0 -985.98388171 0 12054
0.10750000 0.10749900 15599.46626725 0 -4.93793577 0 4309.20487919 0 513.77801623 0 -972.60851332 0 12807
0.10850000 0.10850100 15513.98791965 0 217.68079870 0 3813.39724614 0 374.40844928 0 -1350.03749281 0 12736
0.10950000 0.10950300 15533.91810432 0 -118.89573114 0 4202.13549820 0 191.36298984 0 -1019.00598324 0 12933
0.11050000 0.11050200 15512.76996392 0 36.90605164 0 4311.20896999 0 -462.83092805 0 -754.81809861 0 13428
0.11150000 0.11150900 15757.68978890 0 167.13563590 0 4834.46489627 0 -330.71151938 0 -198.54228525 0 13453
0.11250000 0.11250000 15599.02337425 0 122.88619700 0 5463.52795851 0 -751.37349836 0 118.06087784 0 13668
0.11350000 0.11349100 15635.34059966 0 207.79431987 0 5831.62739711 0 -483.14200069 0 36.12877444 0 13791
0.11450000 0.11448600 15599.57699049 0 319.56279552 0 6181.36892116 0 -230.65313446 0 -92.38648178 0 14205
0.11550000 0.11549300 15424.19136537 0 244.13258269 0 6213.88833915 0 348.59886013 0 -168.84188116 0 14776
0.11650000 0.11649800 15364.95442759 0 -91.68693230 0 5605.25371619 0 587.71678691 0 345.31813028 0 14553
0.11750000 0.11747300 15142.51142198 0 75.74079154 0 5195.54448093 0 1069.96746545 0 -12.42414496 0 14568
0.11850000 0.11849100 15433.49211821 0 66.89123593 0 5148.57567905 0 887.46233547 0 229.34327843 0 16015
0.11950000 0.11950300 14989.71333948 0 196.24477785 0 4854.19577909 0 171.77161831 0 133.75811274 0 15270
0.12050000 0.12050700 14733.61046643 0 661.51493906 0 4915.56967556 0 377.33486473 0 107.35715072 0 15999
0.12150000 0.12150000 14242.55286072 0 647.78304182 0 4974.43015430 0 -185.31860772 0 1157.09116052 0 15670
0.12250000 0.12250700 13905.73273974 0 74.59602388 0 4907.66403564 0 -12.85430477 0 966.89076479 0 16887
0.12350000 0.12352200 13900.97164007 0 -83.78716071 0 4752.66256051 0 524.39969743 0 1481.67636258 0 16407
0.12450000 0.12449800 14243.43864671 0 -257.69950229 0 5056.89682955 0 602.83826091 0 1004.20892836 0 16306
0.12550000 0.12549900 14052.44104358 0 -126.37951548 0 4475.47798100 0 773.40742474 0 1093.21270418 0 17523
0.12650000 0.12650100 14145.00567907 0 293.16083699 0 4210.50617576 0 205.05613394 0 1060.85604936 0 17154
0.12750000 0.12750600 13651.95505489 0 253.54295156 0 3993.57718791 0 547.07803313 0 951.19131543 0 18007
0.12850000 0.12850300 13670.66728384 0 412.88699249 0 4031.37810485 0 -296.93649975 0 869.86398240 0 17496
0.12950000 0.12949900 13050.17420100 0 486.76818707 0 3757.49307813 0 -157.70644409 0 185.88993968 0 18405
0.13050000 0.13049000 12888.29681215 0 294.20827892 0 3984.69718341 0 -522.73552701 0 82.89650290 0 18100
0.13150000 0.13148800 12578.71461022 0 159.14473908 0 3821.79006835 0 -66.13787495 0 -281.06100043 0 19059
0.13250000 0.13249300 12635.40491329 0 1.13922043 0 3661.77283007 0 62.52497536 0 -1118.96914617 0 18957
0.13350000 0.13349100 12389.93147207 0 177.26459865 0 3629.07625488 0 -39.62342160 0 -1030.54113124 0 19468
0.13450000 0.13450700 12513.16644730 0 298.34157777 0 3342.14802953 0 176.79402484 0 -1639.96631819 0 19953
0.13550000 0.13551000 12051.33977911 0 101.96736444 0 3358.24718982 0 407.46819672 0 -758.37231487 0 19956
0.13650000 0.13649900 11959.66092961 0 35.10757392 0 2980.48161166 0 442.08582027 0 -1035.95660531 0 19723
0.13750000 0.13749600 12168.70642219 0 -139.49025530 0 3356.89636619 0 894.24745612 0 -116.39338573 0 20946
0.13850000 0.13851100 12127.29592737 0 69.45038236 0 2859.10678700 0 396.17553264 0 -221.14311467 0 20955
0.13950000 0.13949800 12065.06946189 0 227.86512307 0 3070.78749288 0 124.65666174 0 500.33621390 0 20506
0.14050000 0.14048300 11720.05582054 0 374.75722751 0 3080.42041547 0 -88.94642118 0 911.27558446 0 21447
0.14150000 0.14148400 11473.69659332 0 463.40115277 0 3344.65037494 0 -143.87268146 0 1115.14919411 0 21771
0.14250000 0.14249400 11124.69691504 0 326.70444503 0 3144.34094665 0 89.41068376 0 1220.14805037 0 22470
0.14350000 0.14350900 11067.78516547 0 -62.45090150 0 3007.38736097 0 396.84762276 0 1419.52740337 0 22519
0.14450000 0.14449900 11162.01064968 0 -60.61666018 0 3058.15397026 0 694.06978849 0 793.73621311 0 22218
0.14550000 0.14550500 10953.41912242 0 -2.48461862 0 2557.52987591 0 530.23481261 0 773.61336999 0 23559
0.14650000 0.14650700 11190.02363147 0 62.93033317 0 2514.92357001 0 -13.12989494 0 593.35149301 0 23044
0.14750000 0.14750500 10781.05624197 0 227.10999052 0 2494.90480674 0 -314.88030936 0 848.31391661 0 23649
0.14850000 0.14849900 10833.90444833 0 331.11233754 0 2757.68429166 0 -84.57351722 0 1035.94221129 0 23640
0.14950000 0.14949500 10566.75139510 0 204.50916110 0 2909.44157562 0 -86.28230911 0 1434.55254815 0 24457
0.15050000 0.15050000 10430.19641311 0 147.94618976 0 2945.67022243 0 300.53279086 0 1181.35062420 0 24591
0.15150000 0.15149900 10492.12392582 0 64.01785691 0 2882.35866911 0 54.53053539 0 1141.88885855 0 25020
0.15250000 0.15250500 10358.82420733 0 185.60980986 0 3202.78067704 0 24.51645234 0 1282.48523909 0 25297
0.15350000 0.15350100 10218.80358768 0 162.08554856 0 2893.58600648 0 -256.59448428 0 1161.54223510 0 25452
0.15450000 0.15450400 10062.40699961 0 163.90251706 0 2983.85867073 0 26.75394774 0 1053.25268391 0 26061
0.15550000 0.15549900 9956.95417804 0 125.49262226 0 3077.26480290 0 -56.20921056 0 924.35753623 0 26128
0.15650000 0.15649500 9874.29927327 0 71.97299013 0 2968.73387503 0 39.80102169 0 743.40142449 0 26331
0.15750000 0.15749700 9821.56179016 0 88.95948652 0 3010.13329752 0 -1.96096409 0 427.08614183 0 27345
0.15850000 0.15849900 9612.77096105 0 196.68102745 0 3100.22880457 0 139.13594090 0 287.97677451 0 26980
0.15950000 0.15949700 9527.22617950 0 147.53540651 0 3153.30952975 0 220.39351828 0 878.90010669 0 27777
0.16050000 0.16050000 9421.91729815 0 112.98975308 0 2801.59713189 0 298.61395696 0 736.67277269 0 28224
0.16150000 0.16150500 9256.24210189 0 136.50847822 0 2713.40606471 0 437.28818192 0 928.89608217 0 28075
0.16250000 0.16249700 9175.86809603 0 130.11863957 0 2623.19983441 0 276.79483368 0 842.65374416 0 28590
0.16350000 0.16349900 8993.45154465 0 256.79157166 0 2535.47380487 0 -193.45565923 0 595.10756373 0 29163
0.16450000 0.16449100 8784.19567790 0 289.81035150 0 2548.56129281 0 -345.22733722 0 431.19840327 0 28996
0.16550000 0.16550500 8584.48415514 0 264.53777010 0 2783.81497823 0 -293.03682695 0 561.98470403 0 30777
0.16650000 0.16650700 8358.73052442 0 193.97273680 0 2604.29937594 0 -35.81177378 0 645.60732999 0 29211
0.16750000 0.16749900 8387.08674828 0 64.32467103 0 2667.20125324 0 292.61054245 0 552.08826011 0 30922
0.16850000 0.16850800 8273.92758863 0 1.10310583 0 2695.88964684 0 320.00015235 0 401.58436331 0 30867
0.16950000 0.16949900 8323.27694035 0 8.09610605 0 2451.63416134 0 406.73188712 0 218.13254955 0 30852
0.17050000 0.17049200 8224.97684061 0 -5.72947413 0 2397.76730110 0 187.37363121 0 826.71956151 0 31257
0.17150000 0.17149500 8333.91744450 0 73.33787561 0 2383.19612164 0 208.88605110 0 666.11327555 0 32608
0.17250000 0.17250900 8242.12787175 0 95.12920736 0 2440.73899372 0 -127.23983512 0 593.44450054 0 32361
0.17350000 0.17350400 8169.98060323 0 176.66780034 0 2344.17724898 0 -52.66396287 0 921.91941030 0 32508
0.17450000 0.17449800 7978.82798756 0 201.84294528 0 2366.06723515 0 -165.75270254 0 627.23169972 0 32791
0.17550000 0.17549800 8005.71159222 0 -1.37523810 0 2265.71875531 0 183.79284136 0 736.05493697 0 33633
0.17650000 0.17650100 7927.60741295 0 -68.17020017 0 2158.43900015 0 336.55106349 0 227.02030469 0 33984
0.17750000 0.17750300 7838.77415093 0 112.72512451 0 2020.98715985 0 65.36092991 0 -78.09820022 0 34069
0.17850000 0.17849800 7778.31925742 0 171.22575269 0 1781.92459469 0 43.71553140 0 -183.29126505 0 34536
