### header ###
fiducial parameters:
Omega_m = 0.31
Omega_nu = 0
Omega_de = 0.69
Omega_k = 0
H_0 = 100
w_de = -1
zeff = 0
beta = 0
fgrowth = 0
b_1 = 2
gamma = 0.55
Lx = 3500 Ly = 3500 Lz = 3500
nx = 700 ny = 700 nz = 700
xoffset = -685.467585 yoffset = -31.7331281 zoffset = 572.489161
bins = 400 dk = 0.001
kx_ny = 0.628318531 ky_ny = 0.628318531 kz_ny = 0.628318531
############################
A(data) = 8.06477325 (not used)
A(ran) = 8.06674568 (used)
Ngal = 480058
weighted Ngal = 0
Nran = 23820508
weighted Nran = 0
SN(data) = 3479.53597
SN(ran) = 70.2642804
SN(data+ran) = 3549.80025
############################
13 columns: k_central k_mean P_0(k) sigma^{lin}_{P_0(k)} P^img_1(k) sigma^{lin}_{P_1(k)} P_2(k) sigma^{lin}_{P_2(k)} P^img_3(k) sigma^{lin}_{P_3(k)} P_4(k) sigma^{lin}_{P_4(k)} N_modes
### header ###
0.00050000 0 0 0 0 0 0 0 0 0 0 0 0
0.00150000 0.00179520 17631.68076446 0 -7845.94901742 0 7926.19015538 0 29223.40834035 0 -51234.74718683 0 3
0.00250000 0.00253879 36416.87632853 0 -7674.31691040 0 28654.29084467 0 874.95060842 0 32723.92383176 0 6
0.00350000 0.00331552 37476.27636718 0 5609.05152360 0 17401.15496174 0 5353.51333911 0 20816.74572179 0 7
0.00450000 0.00420575 39407.17909230 0 13494.61731922 0 38828.53939728 0 -20830.25395807 0 -16450.70659930 0 24
0.00550000 0.00557378 47187.92318886 0 -6910.31542559 0 47493.29790736 0 -1298.08614476 0 -17626.36604855 0 45
0.00650000 0.00659388 53669.10852145 0 -9720.49360921 0 69844.77857226 0 17440.01882185 0 2766.09925852 0 40
0.00750000 0.00754703 67668.62385241 0 -9460.53756712 0 48514.27697888 0 1364.34293648 0 -30813.28346106 0 57
0.00850000 0.00846663 84688.89084038 0 -4047.41083118 0 59670.30857316 0 10936.06878943 0 -17208.05361690 0 75
0.00950000 0.00948925 90935.01071707 0 2090.13382834 0 46538.97423124 0 3687.50491295 0 -27463.13014068 0 112
0.01050000 0.01054430 82670.07385620 0 -941.38012841 0 34460.17508658 0 13147.61065941 0 -10947.72794746 0 105
0.01150000 0.01145670 85144.95989966 0 8992.47718006 0 58879.41241136 0 11622.50863888 0 -16710.35261630 0 144
0.01250000 0.01249090 81437.17048764 0 -1599.02086101 0 38483.63647918 0 19988.09293236 0 -30095.13247332 0 169
0.01350000 0.01339930 84377.75851298 0 -2661.03396831 0 41522.76819540 0 3199.58077517 0 -43769.56434760 0 180
0.01450000 0.01448870 83670.45840356 0 2704.76965135 0 38099.53753122 0 -4972.69179930 0 -27025.21969410 0 267
0.01550000 0.01550050 83418.23084419 0 5025.13032964 0 51194.66537098 0 -5767.81758918 0 -11745.18999788 0 238
0.01650000 0.01653350 83721.72326747 0 3558.24659302 0 42686.13736409 0 163.10530967 0 -17007.53381443 0 315
0.01750000 0.01747870 81186.49305375 0 4057.81881651 0 36614.73877304 0 8694.41019594 0 -20438.29365949 0 297
0.01850000 0.01844180 73472.07218285 0 2766.32070502 0 19086.91641538 0 20633.05585305 0 -17622.15856512 0 388
0.01950000 0.01947590 79909.96472540 0 -1748.13185934 0 20783.19657759 0 23790.88289133 0 -21502.56552106 0 399
0.02050000 0.02045430 71443.40082958 0 -3993.06786097 0 19989.97522758 0 5312.12498894 0 -26925.56877074 0 462
0.02150000 0.02154770 76783.47236636 0 6673.35660215 0 11989.55620662 0 -4500.44607346 0 -25560.68329034 0 571
0.02250000 0.02255340 69847.87882321 0 4019.47535566 0 13784.26933648 0 -12407.97936152 0 -5203.01830018 0 510
0.02350000 0.02348930 68408.47659679 0 1711.53782582 0 20476.71462661 0 1830.16671392 0 -9609.79250568 0 555
0.02450000 0.02439640 67335.34687536 0 195.59593962 0 22294.34746884 0 -1550.46871668 0 2560.68548848 0 592
0.02550000 0.02547300 70219.79821387 0 -365.52401584 0 19074.73685807 0 8137.39475129 0 -1107.33213279 0 837
0.02650000 0.02652900 66734.11963771 0 871.23362898 0 15763.11522807 0 7885.33327680 0 641.52496383 0 723
0.02750000 0.02749970 71384.93895454 0 -1811.60949753 0 12563.76697172 0 6238.91179324 0 -6010.81082965 0 826
0.02850000 0.02848090 69016.79012232 0 119.09281852 0 12173.68896836 0 -2972.97457543 0 -4330.64090004 0 831
0.02950000 0.02946900 64423.21472481 0 6002.36264581 0 13512.44376218 0 -1203.08559782 0 -3931.26214383 0 996
0.03050000 0.03053250 61569.32300281 0 5856.26331983 0 15118.26303063 0 -5400.17211590 0 -6507.64818891 0 1041
0.03150000 0.03150510 57495.81470203 0 3416.52083534 0 18576.48224124 0 -4496.48218118 0 -675.11618286 0 1036
0.03250000 0.03246190 56427.88897327 0 1644.29559719 0 19809.05344005 0 3892.26541582 0 -2709.25394290 0 1059
0.03350000 0.03345080 55765.54250262 0 946.93179207 0 19936.05300572 0 1912.65553382 0 952.52110164 0 1302
0.03450000 0.03451200 56631.50902668 0 -918.89112947 0 24498.95806348 0 2434.22846673 0 2799.95842781 0 1339
0.03550000 0.03553350 54132.48531511 0 617.98298680 0 24895.34729199 0 2249.27635296 0 955.21942720 0 1365
0.03650000 0.03647120 54826.60935799 0 1649.44422823 0 23445.31563374 0 2958.51411922 0 4671.14810519 0 1308
0.03750000 0.03744890 52044.68774731 0 2259.65112131 0 25710.04895214 0 1260.40702341 0 2235.67953808 0 1579
0.03850000 0.03847530 51181.26785795 0 3310.28187871 0 21118.02368011 0 2845.60962304 0 401.02742537 0 1662
0.03950000 0.03950240 47225.23692350 0 1644.02986140 0 19583.95307648 0 2407.80989971 0 1819.59264372 0 1683
0.04050000 0.04050350 47663.14737007 0 1976.27711223 0 16124.07301715 0 2267.84464168 0 -1981.12679050 0 1822
0.04150000 0.04152450 45634.03312381 0 498.33433758 0 14952.39960484 0 2295.28186258 0 -3531.26333744 0 1887
0.04250000 0.04250150 46172.70172624 0 -9.89636642 0 16353.04869440 0 -759.51497879 0 -3917.58782268 0 1920
0.04350000 0.04349210 45311.93919484 0 1669.00902619 0 19367.15695654 0 -2977.08240794 0 -2992.24042062 0 2005
0.04450000 0.04448520 44739.16783197 0 1263.02009206 0 21249.56289895 0 -1500.14500038 0 -5746.54765320 0 2151
0.04550000 0.04548030 43421.33973205 0 2344.03330876 0 20658.19003039 0 -2503.08725478 0 -4303.32547472 0 2274
0.04650000 0.04648670 41919.60031690 0 2791.45488235 0 22010.56378374 0 -1257.81609940 0 -6433.17573218 0 2311
0.04750000 0.04749250 41029.82829447 0 809.33490432 0 22290.13998541 0 4242.16195242 0 -6296.34394207 0 2568
0.04850000 0.04851840 40318.65287137 0 148.32707774 0 20796.37264413 0 5602.33062244 0 -6013.66748945 0 2493
0.04950000 0.04949480 40184.23484807 0 257.04955683 0 17285.55989063 0 5538.95263518 0 -8059.24628272 0 2644
0.05050000 0.05050630 36945.13694563 0 1656.61909472 0 16125.18024964 0 2749.12538457 0 -3414.69390175 0 2829
0.05150000 0.05149060 38014.50207661 0 515.25727883 0 14858.94918338 0 1292.48354841 0 2639.88582791 0 2784
0.05250000 0.05249300 37427.11524498 0 -615.17393799 0 15080.94929599 0 2399.27313728 0 1483.63616407 0 3055
0.05350000 0.05348950 38162.42833619 0 -522.30149188 0 16617.12364133 0 2550.39929873 0 4747.96789478 0 3009
0.05450000 0.05448610 37446.38109017 0 -235.29465302 0 14196.49198948 0 2959.87601517 0 2438.12592507 0 3336
0.05550000 0.05550870 37697.61214030 0 454.40378163 0 13195.22165613 0 3702.04287544 0 2117.13922857 0 3349
0.05650000 0.05647670 36914.35588263 0 313.70996462 0 10854.84221456 0 1135.79907990 0 2268.96294649 0 3324
0.05750000 0.05747970 36541.77215248 0 2560.01007667 0 10116.21849823 0 1138.61145040 0 2215.07394159 0 3639
0.05850000 0.05849280 34118.92603567 0 1162.99270965 0 10510.50398502 0 -736.56426391 0 2278.95018347 0 3846
0.05950000 0.05951020 33505.40851746 0 940.90401844 0 9396.14092598 0 -661.65334312 0 1253.55325434 0 3787
0.06050000 0.06049470 32664.79761723 0 -54.57626409 0 10642.96220683 0 46.08489819 0 2498.86869902 0 3930
0.06150000 0.06148310 34415.22144781 0 -348.28662057 0 10585.37504545 0 501.26961089 0 235.76633406 0 4083
0.06250000 0.06249100 34322.87825883 0 502.34694809 0 11199.76727731 0 370.54088622 0 2297.46311057 0 4303
0.06350000 0.06350600 33427.45935074 0 866.18575610 0 11110.74578577 0 -484.92575222 0 -29.70494375 0 4470
0.06450000 0.06451750 32496.94117298 0 1339.86202630 0 13508.56844849 0 -1180.87451423 0 1931.46741369 0 4479
0.06550000 0.06550280 32063.57037958 0 970.51141500 0 13611.98396230 0 -193.73025289 0 2144.86432992 0 4636
0.06650000 0.06648880 31490.13467722 0 601.06004555 0 12956.83450278 0 506.19679543 0 1615.39682942 0 4653
0.06750000 0.06749660 31620.56666359 0 -123.57711007 0 13180.60618736 0 -254.24050802 0 383.46893268 0 5220
0.06850000 0.06852730 31641.71480399 0 112.58450599 0 13032.01558830 0 2125.14451942 0 463.82633005 0 5029
0.06950000 0.06949320 30631.91878053 0 688.65431442 0 12262.71045990 0 1969.15760737 0 2664.38888273 0 5040
0.07050000 0.07048030 30843.28946132 0 358.85626184 0 11233.64859125 0 2737.25585237 0 4357.29198588 0 5475
0.07150000 0.07148790 30079.85266507 0 151.56573275 0 11534.92654957 0 3249.45052615 0 2981.88779691 0 5509
0.07250000 0.07249820 29554.91374542 0 930.90460190 0 9757.57482503 0 2093.61053833 0 3767.55782139 0 5916
0.07350000 0.07351270 29241.67767630 0 274.36778008 0 9950.41043407 0 204.73282206 0 1815.78376398 0 5721
0.07450000 0.07449140 28031.47257362 0 558.00309603 0 9344.34459047 0 -414.32750195 0 2894.52715409 0 6028
0.07550000 0.07549160 27829.84553867 0 1213.16141340 0 10811.53835219 0 -1847.22916647 0 1711.95857416 0 6183
0.07650000 0.07648840 26690.39259159 0 921.11334506 0 9757.26479994 0 -285.81545671 0 1549.46113512 0 6330
0.07750000 0.07749960 26506.03838336 0 430.43552009 0 10617.11940070 0 543.61460992 0 1351.66512456 0 6583
0.07850000 0.07848650 26032.03215787 0 259.43675006 0 9510.79484947 0 1228.35264306 0 1488.15367260 0 6549
0.07950000 0.07947320 26279.05572458 0 118.89683837 0 9580.89373790 0 323.46025386 0 -165.20794415 0 6828
0.08050000 0.08048110 26191.47363526 0 621.26925281 0 10015.17246194 0 319.24059087 0 58.12029382 0 7147
0.08150000 0.08149960 25026.99723408 0 1073.09318275 0 9183.28655366 0 -329.22893509 0 816.99363139 0 7386
0.08250000 0.08250610 24711.98959299 0 1009.91339010 0 9314.00642047 0 -628.12080740 0 -85.96431194 0 7227
0.08350000 0.08350160 23356.29414220 0 372.30138586 0 8875.32091116 0 660.30473395 0 -452.05312707 0 7798
0.08450000 0.08449610 23375.33854089 0 317.67164244 0 8931.67904448 0 14.53519441 0 -3175.35452847 0 7371
0.08550000 0.08548940 22509.70418656 0 341.26344493 0 8871.73347791 0 -350.17334471 0 -2598.87393678 0 8256
0.08650000 0.08650700 22641.68629840 0 603.12171243 0 8308.39573579 0 303.01963501 0 -4166.47153996 0 8037
0.08750000 0.08749060 21750.58559700 0 446.03974746 0 8487.63452996 0 821.59418236 0 -2573.98335059 0 8155
0.08850000 0.08849210 21459.27273102 0 301.24363411 0 8435.41744611 0 681.29454011 0 -3989.74616353 0 8718
0.08950000 0.08949900 21195.41923059 0 669.03526207 0 9817.88577832 0 -330.02614247 0 -1825.29489100 0 8571
0.09050000 0.09049190 20584.33762385 0 808.76025066 0 8871.99921371 0 844.86045850 0 -2519.58501876 0 8932
0.09150000 0.09150830 19880.46993513 0 857.05551705 0 10036.63062743 0 557.04091100 0 441.96291746 0 9285
0.09250000 0.09250820 19628.79599200 0 512.07287821 0 8824.49894024 0 781.76370829 0 759.03776160 0 9204
0.09350000 0.09350330 19071.52588388 0 -83.12891100 0 8831.41914325 0 2271.15526680 0 914.86080323 0 9349
0.09450000 0.09448040 18556.66277981 0 319.83296025 0 7579.68175018 0 801.33957856 0 751.94925925 0 9564
0.09550000 0.09549270 18439.84975297 0 575.08547876 0 7343.02187950 0 735.69397918 0 709.63415549 0 10155
0.09650000 0.09649430 17966.06497398 0 532.88774164 0 6882.21386520 0 1360.42333349 0 1121.42720228 0 9913
0.09750000 0.09749140 17367.60581754 0 262.32441237 0 6538.17458844 0 63.09099260 0 1483.83546592 0 10476
0.09850000 0.09850240 17458.50960430 0 -105.08787775 0 6437.28356469 0 429.32828761 0 1862.95186771 0 10575
0.09950000 0.09950330 17982.78418446 0 -191.93100010 0 7030.79339194 0 -64.89843891 0 2495.64665250 0 10882
0.10050000 0.10051200 17640.53862432 0 261.38215753 0 6581.09091943 0 145.80369491 0 2125.21095337 0 10875
0.10150000 0.10150300 17755.91224893 0 280.96688567 0 7030.66052404 0 222.22266634 0 3126.95739668 0 11118
0.10250000 0.10250800 17653.60396760 0 205.28754553 0 7541.96941185 0 -62.76646276 0 2192.06565062 0 11575
0.10350000 0.10349800 17326.08459947 0 105.15696905 0 7398.13991245 0 537.33770898 0 1754.15520404 0 11364
0.10450000 0.10450100 17195.65261310 0 379.02228703 0 7134.54107549 0 -35.10934549 0 1300.68814110 0 12093
0.10550000 0.10551000 16744.67682324 0 482.88180106 0 6900.21746536 0 555.64911977 0 1022.67978062 0 12067
0.10650000 0.10649700 16337.32599316 0 301.46950953 0 6289.41266674 0 345.24726740 0 506.28980296 0 12054
0.10750000 0.10749900 16036.93382083 0 136.61145084 0 5713.82893336 0 660.83066938 0 769.58082929 0 12807
0.10850000 0.10850100 16061.40365868 0 -56.18463000 0 5097.37724909 0 752.53055630 0 332.07673703 0 12736
0.10950000 0.10950300 15958.87393086 0 -64.74375853 0 5192.17849418 0 727.90127697 0 346.18287885 0 12933
0.11050000 0.11050200 16237.89651629 0 -100.49485597 0 5010.39306531 0 262.61672175 0 210.68751835 0 13428
0.11150000 0.11150900 15995.85549575 0 547.99371439 0 4944.09198430 0 291.16006790 0 1048.82153952 0 13453
0.11250000 0.11250000 15451.76145417 0 634.52393285 0 4946.72719760 0 -97.93847761 0 1068.44612802 0 13668
0.11350000 0.11349100 15118.92737012 0 435.58525837 0 5520.36220181 0 324.54091276 0 1237.98556565 0 13791
0.11450000 0.11448600 15023.26248368 0 466.02529376 0 5736.52719924 0 -137.13849351 0 843.62589428 0 14205
0.11550000 0.11549300 14559.88569002 0 351.80540539 0 5381.11664489 0 -163.12966879 0 502.35912765 0 14776
0.11650000 0.11649800 13980.47093226 0 347.97991717 0 5226.87916016 0 -4.86628676 0 1205.62116020 0 14553
0.11750000 0.11747300 14035.50038661 0 31.81942562 0 5206.42857622 0 244.73934609 0 865.22910723 0 14568
0.11850000 0.11849100 14333.89954047 0 -293.59487212 0 5150.96730121 0 371.58279198 0 613.14659532 0 16015
0.11950000 0.11950300 14135.59420297 0 -80.47221738 0 4767.53269274 0 757.64043420 0 789.22645521 0 15270
0.12050000 0.12050700 14241.99924448 0 135.34256242 0 4086.03110015 0 617.03851749 0 718.72453416 0 15999
0.12150000 0.12150000 13984.45696920 0 60.06392972 0 3482.31258941 0 1225.78386370 0 1005.80887929 0 15670
0.12250000 0.12250700 14039.37570030 0 86.45891269 0 3131.76278565 0 677.80786503 0 461.64951099 0 16887
0.12350000 0.12352200 13872.40504203 0 40.84580626 0 2860.52404457 0 56.03836459 0 543.63786181 0 16407
0.12450000 0.12449800 13652.28722464 0 331.43343496 0 2920.65784066 0 -93.58439660 0 72.07385900 0 16306
0.12550000 0.12549900 13264.97730248 0 598.91201453 0 2872.44893840 0 -410.22077667 0 392.05330611 0 17523
0.12650000 0.12650100 12999.46295333 0 176.03889229 0 3063.62369872 0 -193.04376875 0 48.43610637 0 17154
0.12750000 0.12750600 12819.09478204 0 44.08866875 0 3221.60362923 0 24.17520329 0 421.57323131 0 18007
0.12850000 0.12850300 12916.30979394 0 177.77724729 0 3002.32730852 0 238.17899364 0 -14.71423390 0 17496
0.12950000 0.12949900 12888.85042839 0 203.55583393 0 3344.69466424 0 105.18819301 0 103.77824317 0 18405
0.13050000 0.13049000 12396.35342046 0 308.17158775 0 3138.17366172 0 156.91034393 0 670.50234511 0 18100
0.13150000 0.13148800 12285.07655603 0 305.64156153 0 3223.15375471 0 83.37471661 0 694.59683115 0 19059
0.13250000 0.13249300 12116.99866529 0 148.76222010 0 3318.60826697 0 -63.37178676 0 520.16785489 0 18957
0.13350000 0.13349100 12125.96724839 0 85.14839232 0 3512.49574687 0 -73.10447100 0 562.42538256 0 19468
0.13450000 0.13450700 12101.05451755 0 220.40901954 0 3674.31777409 0 -531.11616967 0 544.48378742 0 19953
0.13550000 0.13551000 11865.98906165 0 165.75934593 0 3674.29562944 0 -193.58631266 0 368.47589764 0 19956
0.13650000 0.13649900 11957.22501815 0 8.14928643 0 3986.02586239 0 258.21436540 0 371.01035279 0 19723
0.13750000 0.13749600 11845.83743048 0 96.22835704 0 3736.42244400 0 304.93182551 0 354.39411494 0 20946
0.13850000 0.13851100 11671.33759134 0 309.65085034 0 3811.11634723 0 322.53017857 0 -259.07247057 0 20955
0.13950000 0.13949800 11456.42376661 0 336.97181183 0 3672.74550397 0 -378.76540909 0 -339.27706986 0 20506
0.14050000 0.14048300 11078.63604379 0 204.79593431 0 3759.50824125 0 -289.82031659 0 -317.65281949 0 21447
0.14150000 0.14148400 10897.47066511 0 254.95799467 0 3972.80550655 0 139.45703832 0 -160.24643540 0 21771
0.14250000 0.14249400 10880.35285094 0 22.21418384 0 3599.77888341 0 109.20213220 0 -556.24923977 0 22470
0.14350000 0.14350900 10740.35437593 0 24.74742103 0 3623.39615225 0 456.58281515 0 -526.87879096 0 22519
0.14450000 0.14449900 10795.41704726 0 130.01677418 0 3430.06228859 0 328.36972268 0 -651.45794642 0 22218
0.14550000 0.14550500 10589.49395028 0 59.53079728 0 3262.53801409 0 209.53267487 0 -312.50751015 0 23559
0.14650000 0.14650700 10593.83430161 0 148.15656393 0 3314.45614516 0 54.68167263 0 -595.17510491 0 23044
0.14750000 0.14750500 10464.43204145 0 174.87297649 0 3191.84122012 0 -129.80861448 0 -415.11363701 0 23649
0.14850000 0.14849900 10332.12883219 0 153.92081623 0 3281.87029322 0 236.42956632 0 -235.92134661 0 23640
0.14950000 0.14949500 10343.84335185 0 155.58609389 0 3143.36658206 0 -442.11128661 0 -256.87793579 0 24457
0.15050000 0.15050000 10144.99547044 0 138.41513256 0 3258.51876018 0 185.06062255 0 -385.90041521 0 24591
0.15150000 0.15149900 10088.05050389 0 187.21972589 0 3454.13352275 0 -226.47776077 0 -298.97270029 0 25020
0.15250000 0.15250500 9801.48766526 0 129.47865920 0 3566.50654733 0 100.79358729 0 -290.16134420 0 25297
0.15350000 0.15350100 9740.26878134 0 291.57638731 0 3658.49542193 0 135.62269224 0 75.93699313 0 25452
0.15450000 0.15450400 9630.35381286 0 183.42191848 0 3364.14873895 0 287.68225067 0 138.53803536 0 26061
0.15550000 0.15549900 9453.08589252 0 -107.56187800 0 2930.41255883 0 477.83060648 0 482.03587544 0 26128
0.15650000 0.15649500 9505.93409888 0 68.78283190 0 2896.64196813 0 623.45160803 0 33.19051160 0 26331
0.15750000 0.15749700 9417.02333058 0 137.94455875 0 2645.20054382 0 222.70874140 0 -220.23518404 0 27345
0.15850000 0.15849900 9252.54394540 0 174.76225324 0 2479.30390107 0 146.54886237 0 -219.83547311 0 26980
0.15950000 0.15949700 8982.85532979 0 169.08657954 0 2137.94412691 0 -30.73721659 0 -88.09097336 0 27777
0.16050000 0.16050000 9030.73206231 0 -31.25673007 0 2324.57923405 0 142.19079532 0 -313.28921628 0 28224
0.16150000 0.16150500 9052.12379386 0 -27.90214782 0 2211.82975042 0 195.53947076 0 -443.91607556 0 28075
0.16250000 0.16249700 9035.58174058 0 28.51023990 0 2190.23871703 0 400.86687666 0 -271.95844220 0 28590
0.16350000 0.16349900 9022.33924010 0 196.13184014 0 2090.88674643 0 -53.70022175 0 86.24953502 0 29163
0.16450000 0.16449100 8863.69497010 0 189.32457484 0 2321.84436982 0 158.09729716 0 289.92993261 0 28996
0.16550000 0.16550500 8733.66158743 0 171.44941365 0 2284.53063518 0 86.03694639 0 771.74879049 0 30777
0.16650000 0.16650700 8662.23402002 0 72.95300160 0 2202.30755108 0 46.67139924 0 618.99610452 0 29211
0.16750000 0.16749900 8665.35641562 0 69.73416605 0 2451.54558275 0 95.31356157 0 853.11709111 0 30922
0.16850000 0.16850800 8579.02549901 0 180.87306931 0 2286.88904037 0 -164.57571441 0 734.90895135 0 30867
0.16950000 0.16949900 8447.19839972 0 168.10003540 0 2419.56870867 0 -133.96848691 0 737.33821942 0 30852
0.17050000 0.17049200 8331.40402676 0 142.45210219 0 2332.38522305 0 0.35508614 0 808.14795110 0 31257
0.17150000 0.17149500 8237.88717135 0 181.39125411 0 2352.44827562 0 281.46956921 0 591.93423543 0 32608
0.17250000 0.17250900 8035.33006111 0 117.18727142 0 2122.54252308 0 14.83780104 0 505.72511439 0 32361
0.17350000 0.17350400 8015.66561224 0 -16.18220272 0 2223.85429518 0 229.95447076 0 615.98553940 0 32508
0.17450000 0.17449800 7956.04114309 0 -22.54978600 0 1900.34310862 0 149.22393605 0 341.45610338 0 32791
0.17550000 0.17549800 8000.87298628 0 21.41420837 0 2015.17418932 0 195.29920131 0 300.49293049 0 33633
0.17650000 0.17650100 7979.61412263 0 6.53939254 0 2017.24471406 0 -83.96055331 0 93.36804337 0 33984
0.17750000 0.17750300 7957.39196672 0 92.66340062 0 1994.77896700 0 49.40869938 0 402.04940095 0 34069
0.17850000 0.17849800 7885.69866352 0 207.03254392 0 1948.10911789 0 26.99687454 0 236.20811982 0 34536
