### header ###
fiducial parameters:
Omega_m = 0.31
Omega_nu = 0
Omega_de = 0.69
Omega_k = 0
H_0 = 100
w_de = -1
zeff = 0
beta = 0
fgrowth = 0
b_1 = 2
gamma = 0.55
Lx = 3500 Ly = 3500 Lz = 3500
nx = 700 ny = 700 nz = 700
xoffset = -685.467585 yoffset = -31.7331281 zoffset = 572.489161
bins = 400 dk = 0.001
kx_ny = 0.628318531 ky_ny = 0.628318531 kz_ny = 0.628318531
############################
A(data) = 8.02315671 (not used)
A(ran) = 8.01796333 (used)
Ngal = 476624
weighted Ngal = 0
Nran = 23820508
weighted Nran = 0
SN(data) = 3491.4622
SN(ran) = 69.8393685
SN(data+ran) = 3561.30157
############################
13 columns: k_central k_mean P_0(k) sigma^{lin}_{P_0(k)} P^img_1(k) sigma^{lin}_{P_1(k)} P_2(k) sigma^{lin}_{P_2(k)} P^img_3(k) sigma^{lin}_{P_3(k)} P_4(k) sigma^{lin}_{P_4(k)} N_modes
### header ###
0.00050000 0 0 0 0 0 0 0 0 0 0 0 0
0.00150000 0.00179520 56033.71420972 0 -70202.19321741 0 22448.36350707 0 -53262.42203086 0 -98681.09843695 0 3
0.00250000 0.00253879 86188.19434407 0 -51192.34018277 0 -16984.17120907 0 22225.58833172 0 90178.32803897 0 6
0.00350000 0.00331552 89027.69204381 0 -8760.68913231 0 9541.63127409 0 -89184.69760974 0 1429.45927874 0 7
0.00450000 0.00420575 74444.33302518 0 23592.68827708 0 -34346.35158744 0 -19178.15237188 0 44993.27768655 0 24
0.00550000 0.00557378 46570.97324996 0 4344.13806400 0 -41084.41485583 0 -10124.83276694 0 11138.09442807 0 45
0.00650000 0.00659388 52274.43848730 0 -10007.92008918 0 -53682.50603448 0 -26197.34196741 0 26680.53822250 0 40
0.00750000 0.00754703 60579.23571752 0 -9486.82326624 0 -17116.37476740 0 -13962.31231956 0 15388.31703295 0 57
0.00850000 0.00846663 66758.58947556 0 -5799.51765513 0 -10651.72041576 0 -26428.19993988 0 25200.16839425 0 75
0.00950000 0.00948925 65732.07424162 0 5871.01165649 0 5192.22278348 0 -13465.71855144 0 35233.24480541 0 112
0.01050000 0.01054430 71070.48492969 0 5060.74999858 0 21684.48381783 0 -6953.66357726 0 10779.77185229 0 105
0.01150000 0.01145670 68479.33947563 0 696.18128083 0 33775.01962680 0 -7248.61923810 0 16278.31050188 0 144
0.01250000 0.01249090 72691.80545288 0 3370.40460247 0 37017.54994994 0 6421.25083835 0 31076.36189875 0 169
0.01350000 0.01339930 74384.98536415 0 -6580.88054526 0 25245.56492600 0 5869.08507197 0 13567.47321653 0 180
0.01450000 0.01448870 81974.28896459 0 -3899.10811256 0 37356.36308939 0 15837.96414384 0 13584.85676649 0 267
0.01550000 0.01550050 81881.50288261 0 -8371.98409723 0 15702.66033456 0 31134.49160405 0 8134.36093429 0 238
0.01650000 0.01653350 86202.03475010 0 -1930.01693914 0 21284.21927564 0 15676.19747824 0 5868.43180481 0 315
0.01750000 0.01747870 90804.35728421 0 201.67021701 0 5700.54214358 0 8125.35913421 0 5478.61953724 0 297
0.01850000 0.01844180 81677.99355245 0 4447.67537338 0 11346.69702765 0 14180.32639524 0 8343.37320989 0 388
0.01950000 0.01947590 84611.82745964 0 -456.34476017 0 -10713.11645688 0 1339.29733774 0 13446.00981327 0 399
0.02050000 0.02045430 84337.12308089 0 873.86219889 0 -4919.40069995 0 6889.96449257 0 2915.44277567 0 462
0.02150000 0.02154770 82118.00774074 0 2714.80117763 0 -10464.65348795 0 -7014.18490471 0 -6443.61693448 0 571
0.02250000 0.02255340 76364.27414873 0 1765.09466096 0 -5961.77150303 0 -10887.36163255 0 -7891.68879124 0 510
0.02350000 0.02348930 74641.42040695 0 3984.90755758 0 -5633.44385518 0 -7934.27295249 0 -8266.61985425 0 555
0.02450000 0.02439640 69798.82842426 0 6914.35682415 0 1922.13344387 0 -9630.92957375 0 -12097.40065036 0 592
0.02550000 0.02547300 67086.44101344 0 5497.74144220 0 11336.28904232 0 -4165.54146467 0 -2185.61048525 0 837
0.02650000 0.02652900 61262.28743558 0 6037.76086826 0 12392.58883002 0 3492.13374153 0 6927.31144419 0 723
0.02750000 0.02749970 59323.96625283 0 5572.94467237 0 13566.47670729 0 -3856.57931293 0 6532.60520905 0 826
0.02850000 0.02848090 55829.76198656 0 1011.43583477 0 19574.76304688 0 7282.35661182 0 20406.95898025 0 831
0.02950000 0.02946900 59809.48769613 0 -2415.93698613 0 23811.92030848 0 8386.86530178 0 17113.71740944 0 996
0.03050000 0.03053250 60328.66900688 0 -3164.43721619 0 21218.33894296 0 -1774.58364333 0 10372.02241852 0 1041
0.03150000 0.03150510 63323.40070058 0 862.79541024 0 25850.77820059 0 1498.45093468 0 12230.37927143 0 1036
0.03250000 0.03246190 58728.93951708 0 2648.10149293 0 21545.08324836 0 2322.12117794 0 18891.82205207 0 1059
0.03350000 0.03345080 58428.54734475 0 4000.65240347 0 25758.10284186 0 3044.12533472 0 15869.63099282 0 1302
0.03450000 0.03451200 57852.89717743 0 2972.90814148 0 27654.12774380 0 2906.96137486 0 19117.69747837 0 1339
0.03550000 0.03553350 51986.33659552 0 2791.16700191 0 24727.15867799 0 5134.58026048 0 17327.19183195 0 1365
0.03650000 0.03647120 50741.80728590 0 2858.02169916 0 22714.54219571 0 4492.37434867 0 18583.01491288 0 1308
0.03750000 0.03744890 48727.19778515 0 1591.41417386 0 25156.76488096 0 3379.26246233 0 20054.41615803 0 1579
0.03850000 0.03847530 48299.36315415 0 1437.96282420 0 25548.39300979 0 2922.83908865 0 13450.54946644 0 1662
0.03950000 0.03950240 46091.65230856 0 881.65490110 0 21390.62431714 0 1960.68727889 0 15312.80377769 0 1683
0.04050000 0.04050350 45437.94225127 0 1246.53340041 0 22708.23097056 0 638.47121664 0 7752.97470591 0 1822
0.04150000 0.04152450 43862.35042958 0 1849.17789564 0 16360.91004502 0 -2820.33150548 0 2551.67261608 0 1887
0.04250000 0.04250150 43734.68652442 0 2861.05551616 0 24421.00889676 0 -1018.42468619 0 2467.31257329 0 1920
0.04350000 0.04349210 41414.14868893 0 353.88257353 0 21063.88001174 0 -1539.67319998 0 1701.48415488 0 2005
0.04450000 0.04448520 40296.28677524 0 -274.46964546 0 20186.17682337 0 1553.44717206 0 135.19862220 0 2151
0.04550000 0.04548030 41858.81325364 0 1051.12236861 0 21555.15906395 0 1718.34730558 0 -907.78337321 0 2274
0.04650000 0.04648670 41450.90880733 0 -455.95944326 0 18348.72451972 0 4900.77704961 0 783.58510572 0 2311
0.04750000 0.04749250 40658.24107356 0 -57.50777281 0 18536.73259514 0 1968.48219556 0 1027.01238132 0 2568
0.04850000 0.04851840 41571.59714785 0 1605.44280940 0 16571.61638632 0 2925.35250639 0 -542.37118785 0 2493
0.04950000 0.04949480 39442.61053172 0 -637.69615391 0 15208.50247790 0 1591.91242848 0 802.02827717 0 2644
0.05050000 0.05050630 39542.37217834 0 649.44499777 0 14130.16876381 0 2846.42897508 0 -1599.55233260 0 2829
0.05150000 0.05149060 39444.38210369 0 891.37308060 0 15392.85668613 0 211.70949393 0 638.94621938 0 2784
0.05250000 0.05249300 38322.97704606 0 1084.17215096 0 12231.37578066 0 2262.78458924 0 -939.52883570 0 3055
0.05350000 0.05348950 38332.83141515 0 -242.39865663 0 12449.50057959 0 1953.61206333 0 2474.52065674 0 3009
0.05450000 0.05448610 38881.35438666 0 -378.80859116 0 13089.25950761 0 1113.49941771 0 -1969.83301919 0 3336
0.05550000 0.05550870 37848.19575783 0 1014.02565154 0 12321.61522793 0 -1622.58276822 0 -1623.45748188 0 3349
0.05650000 0.05647670 37837.78777250 0 2295.16006701 0 13704.88076753 0 -55.52881620 0 1722.45513809 0 3324
0.05750000 0.05747970 35141.23378617 0 834.90754572 0 11614.86873476 0 -820.79033157 0 1856.90637836 0 3639
0.05850000 0.05849280 34965.84816104 0 535.30261568 0 13523.84825674 0 1944.00128538 0 -1107.24355419 0 3846
0.05950000 0.05951020 35057.85918029 0 499.28655751 0 11714.96255112 0 1218.29897212 0 -511.19484285 0 3787
0.06050000 0.06049470 33506.51574995 0 741.13159790 0 11628.37697104 0 2877.78579896 0 1917.26162095 0 3930
0.06150000 0.06148310 33567.85642944 0 68.54234100 0 9384.41533399 0 529.67566021 0 -1372.62503544 0 4083
0.06250000 0.06249100 33527.44244385 0 -116.09443296 0 9732.47386467 0 1368.28468411 0 378.69454621 0 4303
0.06350000 0.06350600 33108.68711921 0 1567.96298989 0 9658.46644558 0 -2371.91342265 0 -1644.57240531 0 4470
0.06450000 0.06451750 31823.85454726 0 1536.90511878 0 8882.99403226 0 341.25347984 0 804.82846812 0 4479
0.06550000 0.06550280 30925.66755797 0 21.69810278 0 9940.71107753 0 325.93824015 0 -257.58545735 0 4636
0.06650000 0.06648880 30756.48243474 0 -354.37197029 0 9193.70561132 0 1266.41929578 0 -775.58977997 0 4653
0.06750000 0.06749660 31594.10380727 0 129.93262451 0 9747.51008177 0 625.61071137 0 -3741.00638648 0 5220
0.06850000 0.06852730 30863.88398548 0 199.09700873 0 8271.30344765 0 900.53210769 0 -1773.55391713 0 5029
0.06950000 0.06949320 30335.18047539 0 503.52172176 0 8753.63606140 0 1059.79089171 0 153.65840214 0 5040
0.07050000 0.07048030 30391.98150171 0 -60.87431317 0 7818.52286884 0 1584.16180110 0 -1281.58838078 0 5475
0.07150000 0.07148790 29998.47107765 0 1018.72917512 0 7867.97187148 0 667.42202435 0 191.27884017 0 5509
0.07250000 0.07249820 28946.82166638 0 1545.24257937 0 7419.55378865 0 782.16674091 0 1334.91269711 0 5916
0.07350000 0.07351270 27193.51903135 0 1014.10094335 0 7641.71998614 0 -114.85654704 0 1937.97794068 0 5721
0.07450000 0.07449140 26749.29735962 0 707.31561067 0 9257.33826205 0 349.02071570 0 1756.54682620 0 6028
0.07550000 0.07549160 26067.02070430 0 465.21590681 0 7959.11924939 0 776.50213953 0 1126.59797797 0 6183
0.07650000 0.07648840 25971.79871086 0 333.11532110 0 8326.94187986 0 -2.28930281 0 1764.06493476 0 6330
0.07750000 0.07749960 25572.53067790 0 352.96689227 0 8494.55473297 0 -359.86162893 0 3422.67704794 0 6583
0.07850000 0.07848650 25587.69976290 0 384.61602553 0 8649.16867674 0 655.21257177 0 561.48312772 0 6549
0.07950000 0.07947320 25042.49848883 0 348.22683001 0 7566.35067110 0 -261.90587849 0 1273.95954898 0 6828
0.08050000 0.08048110 24730.81254518 0 581.15975615 0 8776.11288078 0 -758.82849466 0 544.28116388 0 7147
0.08150000 0.08149960 24411.48669741 0 818.59801126 0 8479.96140886 0 -796.30499247 0 -45.17807479 0 7386
0.08250000 0.08250610 23523.92913995 0 809.14778203 0 10202.82622296 0 175.99460299 0 846.35522235 0 7227
0.08350000 0.08350160 22974.18821271 0 824.51949057 0 9268.63203336 0 -202.52832219 0 1893.65542443 0 7798
0.08450000 0.08449610 22786.06941404 0 351.21192878 0 10612.63510915 0 669.78375123 0 1725.28965324 0 7371
0.08550000 0.08548940 22618.43441628 0 -358.39676036 0 9369.93273313 0 1640.95175510 0 2628.22666988 0 8256
0.08650000 0.08650700 23132.07956462 0 -375.37063430 0 9876.76840170 0 1317.06410950 0 2098.38271033 0 8037
0.08750000 0.08749060 23642.29229226 0 -156.79629899 0 9564.81672226 0 1261.90178726 0 2362.10334286 0 8155
0.08850000 0.08849210 23276.79485000 0 399.05987325 0 9403.02791201 0 287.59035037 0 2487.32026424 0 8718
0.08950000 0.08949900 22452.46026725 0 1300.68814110 0 8576.09133293 0 399.49390839 0 2755.11551230 0 8571
0.09050000 0.09049190 21806.16866759 0 1169.70253849 0 8103.77917314 0 95.09842630 0 3718.69565197 0 8932
0.09150000 0.09150830 20842.76568512 0 405.25594622 0 7455.64956756 0 1187.89436817 0 3633.93700548 0 9285
0.09250000 0.09250820 21016.37973827 0 -239.71361786 0 7643.66871530 0 937.42287952 0 2387.86864271 0 9204
0.09350000 0.09350330 20651.21446575 0 93.75468896 0 6904.86784178 0 678.27511714 0 1749.57126157 0 9349
0.09450000 0.09448040 20585.00196334 0 162.70449151 0 6874.50752713 0 903.78183502 0 1677.37970375 0 9564
0.09550000 0.09549270 20030.49993642 0 204.77821859 0 6038.32555682 0 193.28625266 0 1291.19915873 0 10155
0.09650000 0.09649430 19608.75508408 0 684.59187844 0 6278.88288583 0 293.09440304 0 338.11115406 0 9913
0.09750000 0.09749140 19417.09314147 0 711.66039093 0 5640.81802351 0 55.55716135 0 599.08142110 0 10476
0.09850000 0.09850240 18285.50154500 0 461.07485733 0 5849.29882752 0 -36.64895226 0 345.68462423 0 10575
0.09950000 0.09950330 18148.64761024 0 449.25625782 0 5189.31076205 0 -487.01177822 0 -171.66532399 0 10882
0.10050000 0.10051200 17731.55313432 0 482.79211523 0 5496.22453370 0 190.93891980 0 -891.04755425 0 10875
0.10150000 0.10150300 17171.73639149 0 275.24802990 0 5220.53471804 0 658.63945630 0 -244.73934609 0 11118
0.10250000 0.10250800 17300.17535939 0 -171.31543852 0 5044.60654900 0 966.17217091 0 -677.99277285 0 11575
0.10350000 0.10349800 17352.21528604 0 12.97820409 0 4584.23035536 0 911.02756438 0 -470.63248811 0 11364
0.10450000 0.10450100 17282.12746994 0 487.25536936 0 4204.83714545 0 197.96652436 0 -215.97566068 0 12093
0.10550000 0.10551000 16414.50009715 0 765.50067759 0 4301.77534924 0 309.57666577 0 498.87577426 0 12067
0.10650000 0.10649700 16110.01116463 0 406.83818144 0 4361.39981839 0 414.65524276 0 1136.25304521 0 12054
0.10750000 0.10749900 15482.87468691 0 524.39637574 0 4036.02848127 0 -213.56300110 0 1010.44043276 0 12807
0.10850000 0.10850100 15327.08707671 0 276.36301301 0 3862.71338088 0 360.12736473 0 980.16648225 0 12736
0.10950000 0.10950300 15228.32193933 0 -141.71579259 0 4195.11564426 0 -2.46307187 0 697.26636866 0 12933
0.11050000 0.11050200 15202.63414575 0 384.73671387 0 4121.28538237 0 -260.53512468 0 181.74556850 0 13428
0.11150000 0.11150900 15141.18274300 0 304.37267310 0 4287.61384580 0 -453.13157151 0 127.15236375 0 13453
0.11250000 0.11250000 14724.97405307 0 361.57562481 0 5298.92677776 0 -817.70115295 0 1036.22455557 0 13668
0.11350000 0.11349100 14820.63893950 0 203.40525031 0 5095.12956715 0 -697.69043871 0 267.61809087 0 13791
0.11450000 0.11448600 14868.13921297 0 -52.35161259 0 5899.14643385 0 365.93590633 0 547.99592885 0 14205
0.11550000 0.11549300 14882.75468174 0 -18.74887834 0 6021.03058546 0 339.63249149 0 574.10447078 0 14776
0.11650000 0.11649800 14939.33426156 0 6.03194790 0 6208.38539371 0 427.25333394 0 959.28850657 0 14553
0.11750000 0.11747300 14924.82951605 0 -80.64239901 0 5799.55087211 0 1104.79657040 0 1270.02887367 0 14568
0.11850000 0.11849100 14901.02401769 0 -4.58966687 0 5560.65439182 0 811.40653629 0 902.21399383 0 16015
0.11950000 0.11950300 14651.23236978 0 280.41548389 0 4753.47084022 0 629.01877295 0 896.18289850 0 15270
0.12050000 0.12050700 14293.92844788 0 422.98716719 0 4516.11341308 0 405.61690401 0 899.53227675 0 15999
0.12150000 0.12150000 14136.92288195 0 260.72667590 0 4133.19920388 0 322.69404898 0 888.32376234 0 15670
0.12250000 0.12250700 13736.87978625 0 106.58219870 0 3443.50409092 0 75.34883124 0 134.80666190 0 16887
0.12350000 0.12352200 13528.38790992 0 177.58569607 0 3301.96656277 0 55.23329585 0 -37.42191125 0 16407
0.12450000 0.12449800 13496.72106094 0 143.11865614 0 3258.62948343 0 -59.03497858 0 -46.81976839 0 16306
0.12550000 0.12549900 13522.18740802 0 -60.01499004 0 2738.09734905 0 108.99319743 0 -205.31190465 0 17523
0.12650000 0.12650100 13427.40830757 0 13.56548020 0 3330.38922058 0 -129.05016023 0 -299.58832155 0 17154
0.12750000 0.12750600 13500.26420488 0 246.52199039 0 3356.38703925 0 -190.40744821 0 -124.01335967 0 18007
0.12850000 0.12850300 13330.85763515 0 331.98483673 0 3938.24878080 0 -52.55346107 0 -71.36954842 0 17496
0.12950000 0.12949900 12938.23299708 0 365.65134758 0 3807.99395163 0 -21.53478599 0 650.70835003 0 18405
0.13050000 0.13049000 13132.33085116 0 -61.75954554 0 4322.87920035 0 276.46377116 0 754.06518052 0 18100
0.13150000 0.13148800 12862.05540233 0 63.73296600 0 4098.62033347 0 406.04983191 0 460.96302685 0 19059
0.13250000 0.13249300 12979.42204541 0 173.32063655 0 3717.67699808 0 344.28508238 0 246.17431939 0 18957
0.13350000 0.13349100 12768.27281112 0 301.90133020 0 3384.61039521 0 78.42273006 0 860.29085036 0 19468
0.13450000 0.13450700 12464.00532510 0 518.45496624 0 3298.56735905 0 -341.16490124 0 742.96406766 0 19953
0.13550000 0.13551000 12054.66147656 0 318.91727898 0 3479.50021891 0 -50.62399775 0 606.08909548 0 19956
0.13650000 0.13649900 11931.31577808 0 75.05198221 0 3305.88616575 0 436.78660561 0 169.82399637 0 19723
0.13750000 0.13749600 11683.62787188 0 22.36709264 0 3485.96645660 0 130.04224053 0 -320.97673140 0 20946
0.13850000 0.13851100 11720.05582054 0 -54.60848456 0 3249.76055125 0 176.07875266 0 -342.73052797 0 20955
0.13950000 0.13949800 11723.59896448 0 -8.35697002 0 3430.47196461 0 130.32679928 0 -162.61480568 0 20506
0.14050000 0.14048300 11643.54605604 0 83.74076767 0 3074.10919032 0 175.22396919 0 127.94514221 0 21447
0.14150000 0.14148400 11775.19599813 0 93.97248158 0 3005.39434250 0 258.18336289 0 68.65538944 0 21771
0.14250000 0.14249400 11449.89109496 0 230.33868043 0 3045.02219303 0 -90.43265934 0 96.66028843 0 22470
0.14350000 0.14350900 11247.15682753 0 388.38504490 0 3214.69449855 0 149.14753700 0 202.08985812 0 22519
0.14450000 0.14449900 11078.74676704 0 244.06947044 0 3071.78400211 0 82.67250977 0 675.83699121 0 22218
0.14550000 0.14550500 10788.20896380 0 196.30567564 0 3138.39510822 0 158.81256934 0 367.32659032 0 23559
0.14650000 0.14650700 10808.19451010 0 -26.20099583 0 3402.54756142 0 271.82003814 0 507.38374865 0 23044
0.14750000 0.14750500 10714.47835283 0 71.43808611 0 3296.56326826 0 170.54480472 0 695.92883183 0 23649
0.14850000 0.14849900 10724.93062746 0 284.64289751 0 3445.92893006 0 47.20065636 0 917.46169233 0 23640
0.14950000 0.14949500 10462.06256394 0 262.13507562 0 3139.09266468 0 46.09519545 0 1139.39758546 0 24457
0.15050000 0.15050000 10409.40258710 0 275.14727174 0 3244.40154603 0 116.11989930 0 1172.73635549 0 24591
0.15150000 0.15149900 10098.15953645 0 147.01832894 0 3358.44649167 0 -78.05047850 0 1398.37926297 0 25020
0.15250000 0.15250500 9984.57962846 0 102.98070361 0 3230.37291049 0 199.69159257 0 1318.93533240 0 25297
0.15350000 0.15350100 9965.84525487 0 -26.08783667 0 2987.74505674 0 368.49472059 0 1158.04338046 0 25452
0.15450000 0.15450400 10008.24118660 0 112.85799241 0 3009.95614032 0 434.58321297 0 1066.78085037 0 26061
0.15550000 0.15549900 9718.24592727 0 212.60635224 0 2865.53980772 0 63.16584152 0 966.06919829 0 26128
0.15650000 0.15649500 9642.47800854 0 215.05997942 0 2804.81917841 0 -52.50341416 0 981.06223332 0 26331
0.15750000 0.15749700 9478.67403517 0 64.12038664 0 2976.19662195 0 -184.59004875 0 986.06470968 0 27345
0.15850000 0.15849900 9408.81873789 0 99.63121463 0 3143.55481159 0 -204.85129593 0 751.90939888 0 26980
0.15950000 0.15949700 9328.11256229 0 157.13400490 0 3164.33756527 0 -108.84095297 0 735.39391918 0 27777
0.16050000 0.16050000 9364.98340394 0 30.23685823 0 2887.71767433 0 5.20439127 0 427.94867594 0 28224
0.16150000 0.16150500 9308.38167946 0 -25.92009095 0 2748.46104508 0 297.94518854 0 490.86494726 0 28075
0.16250000 0.16249700 9172.59068789 0 91.85301717 0 2865.08584240 0 158.20802040 0 7.15024163 0 28590
0.16350000 0.16349900 9136.29560713 0 209.44852520 0 2508.83379136 0 284.06602938 0 -128.19537675 0 29163
0.16450000 0.16449100 8771.65073388 0 220.83641128 0 2251.00363563 0 147.07369057 0 -289.83471062 0 28996
0.16550000 0.16550500 8777.15367931 0 78.84214972 0 2177.88200253 0 18.97630389 0 -95.92110003 0 30777
0.16650000 0.16650700 8730.80492762 0 18.30310654 0 2041.06128474 0 -69.92649233 0 -284.97617448 0 29211
0.16750000 0.16749900 8738.86558009 0 62.98414467 0 2265.60803207 0 -151.89790249 0 -518.87682181 0 30922
0.16850000 0.16850800 8670.01786437 0 122.13438614 0 2142.22911661 0 -210.53804196 0 -359.23272088 0 30867
0.16950000 0.16949900 8574.99517278 0 67.64371112 0 2142.45056311 0 112.95764333 0 -379.89146453 0 30852
0.17050000 0.17049200 8596.64156780 0 -12.45105071 0 2156.98852560 0 337.30730328 0 -434.23997090 0 31257
0.17150000 0.17149500 8606.79488965 0 28.39973810 0 2090.77602318 0 317.14459978 0 -683.05282529 0 32608
0.17250000 0.17250900 8467.91471945 0 276.42944696 0 2181.76838854 0 221.88606767 0 -282.00879143 0 32361
0.17350000 0.17350400 8206.33104561 0 269.81594734 0 1769.84468831 0 348.00649075 0 211.77482064 0 32508
0.17450000 0.17449800 8093.85837011 0 155.11994901 0 1747.82183425 0 535.64475052 0 457.05892512 0 32791
0.17550000 0.17549800 7992.45801942 0 35.45103743 0 1603.26156142 0 302.38076187 0 578.23776963 0 33633
0.17650000 0.17650100 7935.94487354 0 35.27155505 0 1644.62776694 0 151.41736359 0 640.13649430 0 33984
0.17750000 0.17750300 7907.98725338 0 136.86279262 0 1663.09640474 0 -183.79727029 0 695.15376909 0 34069
0.17850000 0.17849800 7792.32574832 0 110.55373089 0 1681.87506763 0 -125.37082669 0 746.10971514 0 34536
