### header ###
fiducial parameters:
Omega_m = 0.31
Omega_nu = 0
Omega_de = 0.69
Omega_k = 0
H_0 = 100
w_de = -1
zeff = 0
beta = 0
fgrowth = 0
b_1 = 2
gamma = 0.55
Lx = 3500 Ly = 3500 Lz = 3500
nx = 700 ny = 700 nz = 700
xoffset = -685.467585 yoffset = -31.7331281 zoffset = 572.489161
bins = 400 dk = 0.001
kx_ny = 0.628318531 ky_ny = 0.628318531 kz_ny = 0.628318531
############################
A(data) = 8.05798545 (not used)
A(ran) = 8.05230898 (used)
Ngal = 478472
weighted Ngal = 0
Nran = 23820508
weighted Nran = 0
SN(data) = 3491.74249
SN(ran) = 70.1385316
SN(data+ran) = 3561.88103
############################
13 columns: k_central k_mean P_0(k) sigma^{lin}_{P_0(k)} P^img_1(k) sigma^{lin}_{P_1(k)} P_2(k) sigma^{lin}_{P_2(k)} P^img_3(k) sigma^{lin}_{P_3(k)} P_4(k) sigma^{lin}_{P_4(k)} N_modes
### header ###
0.00050000 0 0 0 0 0 0 0 0 0 0 0 0
0.00150000 0.00179520 14249.19625561 0 -19993.73981802 0 7287.12878382 0 -30007.32893751 0 -14127.17923611 0 3
0.00250000 0.00253879 19864.41506414 0 -9728.11136869 0 -511.69088301 0 -12970.23201581 0 10599.91300793 0 6
0.00350000 0.00331552 34976.25614637 0 -12181.32887248 0 9348.61850785 0 -26727.26343323 0 670.72157714 0 7
0.00450000 0.00420575 39644.56973641 0 -14712.01943303 0 -5847.19508580 0 -20937.87695531 0 10506.71724994 0 24
0.00550000 0.00557378 68488.75095172 0 -15203.29848524 0 12607.05976176 0 -22092.05609440 0 -9454.22634197 0 45
0.00650000 0.00659388 58880.40892060 0 -12016.24050944 0 22786.62303028 0 -38732.65306435 0 27967.69598267 0 40
0.00750000 0.00754703 96607.25199842 0 6213.50080778 0 20656.86135141 0 -9415.00816747 0 -24743.98861172 0 57
0.00850000 0.00846663 74090.68297047 0 437.56277558 0 43543.91036779 0 -25009.06006788 0 12459.79784167 0 75
0.00950000 0.00948925 87322.00040550 0 9179.92056692 0 45195.67978424 0 -3529.51391012 0 -34666.23105145 0 112
0.01050000 0.01054430 72681.61891405 0 4641.03138168 0 54532.52841081 0 -12967.57465785 0 -25912.67249633 0 105
0.01150000 0.01145670 76161.09698831 0 13043.97369910 0 65989.83796340 0 -5800.15984997 0 -36222.55702796 0 144
0.01250000 0.01249090 65849.77305445 0 3820.14029195 0 41047.87618393 0 5571.50527014 0 -30292.55202484 0 169
0.01350000 0.01339930 60422.00870510 0 -885.31984062 0 31629.97813968 0 14348.29356274 0 -43562.40115024 0 180
0.01450000 0.01448870 72517.19489049 0 -10381.71070273 0 31461.34663269 0 9449.80848437 0 -51946.03333318 0 267
0.01550000 0.01550050 75851.29333988 0 -12969.23550658 0 1398.64499877 0 1447.89469956 0 -40997.49710600 0 238
0.01650000 0.01653350 85232.32054248 0 3346.83162293 0 16099.60317930 0 -2631.65909057 0 -42521.49189404 0 315
0.01750000 0.01747870 84123.53793514 0 4376.81249454 0 8026.53863521 0 -16901.46094267 0 -31140.35993620 0 297
0.01850000 0.01844180 74147.37327354 0 11103.99166763 0 24206.31651852 0 3678.17094313 0 -6359.76621863 0 388
0.01950000 0.01947590 73921.83001698 0 7283.74065242 0 28006.55984278 0 -247.88720804 0 -11099.56273770 0 399
0.02050000 0.02045430 64831.78351062 0 2319.49703696 0 30688.83053010 0 8997.78082365 0 5340.20440468 0 462
0.02150000 0.02154770 67231.70991506 0 1562.37146586 0 42013.27218486 0 6055.14441822 0 6300.32997901 0 571
0.02250000 0.02255340 62099.68736162 0 1419.10665503 0 41245.40645869 0 -1141.97743715 0 5303.47750326 0 510
0.02350000 0.02348930 67352.73042533 0 6539.58077369 0 39895.80078655 0 -2308.54650771 0 23757.77664012 0 555
0.02450000 0.02439640 60958.35211931 0 365.10105304 0 39778.65558997 0 8986.81922208 0 20711.00501977 0 592
0.02550000 0.02547300 64919.25487669 0 -3493.06381681 0 32946.25611412 0 7321.12082101 0 10004.13335409 0 837
0.02650000 0.02652900 66680.97247858 0 -531.20806996 0 33602.62352937 0 7288.95571741 0 13182.59920583 0 723
0.02750000 0.02749970 69370.99379327 0 2388.34475268 0 35553.56716242 0 1093.75746256 0 -2411.09838018 0 826
0.02850000 0.02848090 62968.20052039 0 4824.82090135 0 34394.40547715 0 2967.25018350 0 23629.89128847 0 831
0.02950000 0.02946900 64638.57144253 0 3289.48805270 0 36716.16126838 0 5362.90267056 0 10423.68588612 0 996
0.03050000 0.03053250 59858.75954157 0 2077.22349760 0 33152.42280225 0 6157.80701394 0 9953.25602155 0 1041
0.03150000 0.03150510 58973.74861882 0 2205.86176735 0 36903.28355781 0 6919.26186404 0 16162.38326103 0 1036
0.03250000 0.03246190 57359.73583000 0 1636.57818679 0 30053.38980876 0 7580.98828451 0 8893.42416223 0 1059
0.03350000 0.03345080 55437.69096474 0 -1091.85302269 0 31395.02340703 0 7899.22904444 0 14259.49351769 0 1302
0.03450000 0.03451200 53149.26287122 0 2458.15576066 0 24444.26077888 0 5897.41915118 0 5982.75355856 0 1339
0.03550000 0.03553350 50922.28618044 0 5301.24089365 0 21304.59235330 0 3057.26818427 0 6899.05487125 0 1365
0.03650000 0.03647120 46484.71983963 0 3468.15108597 0 16790.73769448 0 162.09440642 0 7061.85126306 0 1308
0.03750000 0.03744890 44850.66614289 0 1269.39775116 0 16247.08654589 0 -2193.26146170 0 3027.91545118 0 1579
0.03850000 0.03847530 43291.90425492 0 875.42339669 0 18517.57747320 0 -1344.77813852 0 -223.87133551 0 1662
0.03950000 0.03950240 44809.58781781 0 -1690.16823892 0 17147.26655364 0 807.71723766 0 -5314.40588786 0 1683
0.04050000 0.04050350 45081.08122237 0 -1104.44668494 0 17828.21452999 0 -372.94468794 0 -6977.12583355 0 1822
0.04150000 0.04152450 46097.63136397 0 1415.86246386 0 22289.03275293 0 -3147.98374151 0 -10805.55929679 0 1887
0.04250000 0.04250150 43811.86062841 0 3356.80778759 0 19932.39913853 0 1192.15721322 0 -5266.40735977 0 1920
0.04350000 0.04349210 42635.09394668 0 1099.76309154 0 17999.06050194 0 6177.20572702 0 -618.31737101 0 2005
0.04450000 0.04448520 40680.16427670 0 -881.24522508 0 14590.99892276 0 6226.56615107 0 -4715.54812771 0 2151
0.04550000 0.04548030 41638.91688275 0 -51.49937575 0 12979.75421515 0 6419.96644867 0 -7033.37324363 0 2274
0.04650000 0.04648670 41234.33413387 0 776.58186027 0 9999.43868837 0 2693.78590513 0 -3298.66700997 0 2311
0.04750000 0.04749250 39848.96485256 0 598.35286213 0 6400.03626400 0 -63.93813617 0 -6268.27559866 0 2568
0.04850000 0.04851840 38889.43718378 0 963.16603472 0 7868.35940285 0 -3611.99165769 0 -1915.58969990 0 2493
0.04950000 0.04949480 38757.56579519 0 1657.07306003 0 9385.33433695 0 -2729.16198292 0 -5177.77339959 0 2644
0.05050000 0.05050630 38169.95751706 0 800.77821170 0 12479.72802634 0 -2361.67152219 0 -3878.58002235 0 2829
0.05150000 0.05149060 37697.39069380 0 -365.50187119 0 13082.94828246 0 -1025.40025083 0 -5445.09253769 0 2784
0.05250000 0.05249300 37578.25247876 0 910.58467139 0 15372.81577821 0 -352.49410400 0 -2088.36225637 0 3055
0.05350000 0.05348950 39023.63376058 0 -18.01400814 0 16391.35893828 0 -956.01663458 0 -4990.05320462 0 3009
0.05450000 0.05448610 37668.49192603 0 57.15545144 0 16041.58419725 0 -727.97767601 0 -54.89248969 0 3336
0.05550000 0.05550870 39145.54005683 0 838.65442044 0 17635.44535490 0 2499.95378685 0 175.12542549 0 3349
0.05650000 0.05647670 37769.47152837 0 305.52308765 0 17960.19664183 0 2758.75830716 0 686.83070252 0 3324
0.05750000 0.05747970 36482.86738445 0 1990.52719427 0 15646.41292448 0 6646.52835911 0 3030.65031541 0 3639
0.05850000 0.05849280 35811.10943770 0 1096.92525469 0 12991.26943297 0 4114.89665095 0 5284.92028686 0 3846
0.05950000 0.05951020 34302.83735090 0 -211.84125459 0 12260.71744143 0 4705.57196305 0 4285.90870778 0 3787
0.06050000 0.06049470 34328.74659098 0 -44.75311896 0 10483.34357224 0 1917.90381579 0 6131.11163880 0 3930
0.06150000 0.06148310 34268.95603696 0 648.37098227 0 9505.57978448 0 916.25370170 0 3839.41720946 0 4083
0.06250000 0.06249100 33159.95198312 0 1173.97645587 0 8877.61288239 0 -1968.80329298 0 6860.86642295 0 4303
0.06350000 0.06350600 32658.15422234 0 1671.30099743 0 10649.68310799 0 -198.34630510 0 3575.95124040 0 4470
0.06450000 0.06451750 30155.14447384 0 1164.27709933 0 9275.36400685 0 -103.93989911 0 4209.62038978 0 4479
0.06550000 0.06550280 30630.14720856 0 775.19781967 0 9885.84770805 0 1398.94395154 0 2601.89668146 0 4636
0.06650000 0.06648880 29940.78426535 0 84.96603113 0 7776.64733638 0 1473.74857801 0 133.38165370 0 4653
0.06750000 0.06749660 29091.53695176 0 922.61696677 0 8129.45589440 0 320.75639214 0 -441.74922159 0 5220
0.06850000 0.06852730 28473.03688739 0 757.47545656 0 6860.94392922 0 -814.58761521 0 201.10663568 0 5029
0.06950000 0.06949320 28219.03775605 0 -405.11422046 0 8030.39180425 0 977.33196709 0 47.13632616 0 5040
0.07050000 0.07048030 28558.62595824 0 -100.92058685 0 6927.64361393 0 149.27929767 0 -2283.68913850 0 5475
0.07150000 0.07148790 28472.48327115 0 114.02944438 0 7025.06900001 0 -252.09579870 0 -2333.31529833 0 5509
0.07250000 0.07249820 28240.51806620 0 520.51220419 0 8900.04541248 0 -1793.89377782 0 -2630.57400274 0 5916
0.07350000 0.07351270 27790.31733907 0 891.12063159 0 9235.24897404 0 -1589.23292587 0 -1748.81834348 0 5721
0.07450000 0.07449140 26602.14616278 0 1593.09716723 0 10100.85011138 0 -1298.46260381 0 -1765.85865138 0 6028
0.07550000 0.07549160 26347.48269195 0 789.98490946 0 9594.32446790 0 761.58439630 0 -1590.69447275 0 6183
0.07650000 0.07648840 25947.32887301 0 -470.57491202 0 8373.46778875 0 1828.79374565 0 -1720.80536169 0 6330
0.07750000 0.07749960 25949.43261472 0 -577.66975937 0 7824.73444306 0 2500.77313889 0 -1130.67259351 0 6583
0.07850000 0.07848650 26240.52403421 0 -339.58598772 0 6210.52235240 0 2671.86270199 0 -2073.20424369 0 6549
0.07950000 0.07947320 26093.04066762 0 537.74184884 0 6552.50217675 0 643.28435624 0 -2496.77602963 0 6828
0.08050000 0.08048110 25515.28675858 0 1163.32487940 0 5597.43665487 0 -85.75017317 0 -2238.00472629 0 7147
0.08150000 0.08149960 24668.58607970 0 811.96347423 0 6630.35169255 0 -1033.77867902 0 -1177.32029797 0 7386
0.08250000 0.08250610 24090.27855443 0 642.83039093 0 6583.58219252 0 -960.50867676 0 -1138.91040317 0 7227
0.08350000 0.08350160 23628.78405598 0 552.01629000 0 8017.44825653 0 -297.36942765 0 -1454.84811955 0 7798
0.08450000 0.08449610 23394.71510932 0 724.68365938 0 7695.25467663 0 -246.83201548 0 -1700.24405450 0 7371
0.08550000 0.08548940 22430.75851061 0 660.87717315 0 7593.07926321 0 585.08932423 0 -845.88686301 0 8256
0.08650000 0.08650700 22141.54938634 0 527.82768920 0 7946.59645002 0 365.10769643 0 -860.86771849 0 8037
0.08750000 0.08749060 21642.07681377 0 548.69902148 0 7573.72483942 0 1325.72266751 0 663.51570815 0 8155
0.08850000 0.08849210 20883.40111720 0 193.05816277 0 6626.56495746 0 2044.72622426 0 -552.25323775 0 8718
0.08950000 0.08949900 20641.13865017 0 507.64062659 0 6026.17921650 0 1528.36835634 0 373.31228912 0 8571
0.09050000 0.09049190 20261.02573914 0 678.11013950 0 6091.14054621 0 979.29619752 0 817.42213036 0 8932
0.09150000 0.09150830 19574.76304688 0 368.64530421 0 4928.39142770 0 397.79430653 0 2074.96474334 0 9285
0.09250000 0.09250820 19061.89296129 0 612.04379177 0 5198.99904627 0 -254.62582492 0 1441.64990836 0 9204
0.09350000 0.09350330 18668.38253723 0 466.32867546 0 4438.36354820 0 -496.62144893 0 950.44836243 0 9349
0.09450000 0.09448040 18352.71055665 0 401.23337062 0 5622.50439826 0 -349.91868124 0 648.13292728 0 9564
0.09550000 0.09549270 17833.75069240 0 590.27338671 0 4953.03842275 0 -437.88830193 0 618.98171050 0 10155
0.09650000 0.09649430 17108.07052379 0 287.28253974 0 4937.62574660 0 496.59819705 0 -329.47474070 0 9913
0.09750000 0.09749140 17411.00933082 0 -115.62275192 0 4651.48365631 0 745.46419860 0 -1444.84981023 0 10476
0.09850000 0.09850240 17185.02318128 0 -3.48783768 0 4333.87401889 0 353.68327168 0 -1358.15350690 0 10575
0.09950000 0.09950330 17150.25608135 0 200.75121405 0 3996.55564329 0 180.99043595 0 -1803.17238602 0 10882
0.10050000 0.10051200 17053.81613218 0 198.90877920 0 4593.94078423 0 -766.97329679 0 -648.35326655 0 10875
0.10150000 0.10150300 17041.63657487 0 341.24019305 0 4671.02630962 0 -405.01014061 0 -1270.16174157 0 11118
0.10250000 0.10250800 16731.39003346 0 404.26275869 0 5323.08659051 0 -184.15047745 0 -885.19140165 0 11575
0.10350000 0.10349800 16681.23240203 0 201.39562336 0 5628.46130901 0 -431.66897708 0 -220.05138345 0 11364
0.10450000 0.10450100 16456.79637795 0 407.13381251 0 6291.73785495 0 -141.63939355 0 -681.03212602 0 12093
0.10550000 0.10551000 16255.94440574 0 204.24342530 0 6473.32398197 0 406.09965737 0 319.09886511 0 12067
0.10650000 0.10649700 16091.29893569 0 -82.37676797 0 5785.46687494 0 739.25040991 0 26.88781214 0 12054
0.10750000 0.10749900 16349.83772021 0 -69.98639361 0 5756.14735882 0 428.05164856 0 244.92203945 0 12807
0.10850000 0.10850100 16340.75841385 0 138.48267374 0 6262.16367536 0 697.16893221 0 -98.25713912 0 12736
0.10950000 0.10950300 16024.53281703 0 475.10570734 0 5427.49861355 0 -296.99850477 0 -445.15174701 0 12933
0.11050000 0.11050200 15632.79396495 0 372.72324144 0 6037.50620479 0 -593.96600704 0 497.98113042 0 13428
0.11150000 0.11150900 15671.76854831 0 222.90139985 0 5490.68837129 0 -142.91603260 0 -652.76448075 0 13453
0.11250000 0.11250000 15308.70701751 0 -43.56361911 0 5566.76631512 0 548.41999889 0 -519.03847776 0 13668
0.11350000 0.11349100 15480.88166844 0 -59.31787647 0 4873.90451727 0 688.80711250 0 -1260.36273411 0 13791
0.11450000 0.11448600 15137.08598282 0 269.56017664 0 5109.81146986 0 77.18074738 0 -1288.14319708 0 14205
0.11550000 0.11549300 14841.01201717 0 621.46634019 0 4492.29684240 0 588.80962537 0 -1260.67275920 0 14776
0.11650000 0.11649800 14296.47508259 0 404.32476371 0 4776.82237326 0 -227.65585613 0 -486.10606205 0 14553
0.11750000 0.11747300 14090.64056421 0 201.38676550 0 4692.69484929 0 617.87226355 0 554.79987246 0 14568
0.11850000 0.11849100 14323.04866215 0 -129.72114311 0 4927.47242474 0 796.37474812 0 921.37022299 0 16015
0.11950000 0.11950300 14184.64460192 0 -1.67693681 0 4636.44743921 0 699.94476404 0 1468.79924882 0 15270
0.12050000 0.12050700 14391.14345979 0 365.71556706 0 5278.79729124 0 119.64200583 0 1687.36694074 0 15999
0.12150000 0.12150000 13749.28079005 0 459.99641289 0 5082.42961058 0 -188.69677402 0 2624.20741597 0 15670
0.12250000 0.12250700 13649.18697369 0 111.98660045 0 5278.15509640 0 128.90068384 0 2357.78513618 0 16887
0.12350000 0.12352200 13582.75302478 0 22.06736481 0 5400.14997125 0 -297.35724810 0 1980.89427168 0 16407
0.12450000 0.12449800 13519.64077331 0 62.73247073 0 4955.64041908 0 84.88941064 0 985.63621071 0 16306
0.12550000 0.12549900 13326.53942847 0 12.72819100 0 4875.95289736 0 -81.72350081 0 592.28965706 0 17523
0.12650000 0.12650100 13465.49710495 0 13.21382316 0 4576.60152356 0 304.05711184 0 1.93483340 0 17154
0.12750000 0.12750600 13461.95396101 0 -16.95837269 0 3992.25958126 0 235.91027428 0 -955.20503317 0 18007
0.12850000 0.12850300 13401.27762100 0 248.07875926 0 4185.64880654 0 83.36707670 0 -314.56253363 0 17496
0.12950000 0.12949900 13163.11191415 0 326.43428030 0 3817.54936795 0 60.56805267 0 -805.45184000 0 18405
0.13050000 0.13049000 12944.21205249 0 371.70126586 0 4304.42163487 0 -22.23079232 0 -151.32435606 0 18100
0.13150000 0.13148800 12493.01481613 0 459.63324064 0 3823.14089198 0 147.95504762 0 -240.55732901 0 19059
0.13250000 0.13249300 12375.20528006 0 202.11864617 0 4426.12862928 0 220.56071039 0 204.68299660 0 18957
0.13350000 0.13349100 12066.17669437 0 72.80407883 0 4101.49913792 0 244.66737598 0 -379.39320991 0 19468
0.13450000 0.13450700 12098.50788284 0 36.34346681 0 4103.68038591 0 384.65588590 0 -69.27045708 0 19953
0.13550000 0.13551000 11975.27290761 0 54.04335310 0 3668.16156149 0 343.26864296 0 -11.05049019 0 19956
0.13650000 0.13649900 12120.65253248 0 -106.27627037 0 3367.18255595 0 301.79946481 0 -375.90432036 0 19723
0.13750000 0.13749600 11979.48039104 0 243.65536549 0 3204.35294717 0 430.19857234 0 -15.96828541 0 20946
0.13850000 0.13851100 11910.49980742 0 333.62907697 0 2897.71598364 0 48.32903698 0 -325.05577586 0 20955
0.13950000 0.13949800 11515.99287413 0 291.96834761 0 2808.40661165 0 89.20285622 0 306.10659917 0 20506
0.14050000 0.14048300 11420.88160394 0 -127.11582508 0 2829.90906645 0 154.03153948 0 76.28488558 0 21447
0.14150000 0.14148400 11351.45812732 0 28.40139895 0 2831.66956610 0 591.27100318 0 411.88605432 0 21771
0.14250000 0.14249400 11535.70161231 0 206.36709720 0 2824.93759261 0 56.94109123 0 247.63808073 0 22470
0.14350000 0.14350900 11136.87647234 0 205.73265299 0 2930.52328208 0 80.09963365 0 577.42063206 0 22519
0.14450000 0.14449900 11010.59660778 0 336.26650474 0 3168.36789151 0 -69.57450312 0 562.73319319 0 22218
0.14550000 0.14550500 10670.96411630 0 353.02446836 0 3013.11175290 0 85.22944174 0 278.92293451 0 23559
0.14650000 0.14650700 10516.06229208 0 242.91351973 0 2923.04946282 0 12.11190540 0 720.06760716 0 23044
0.14750000 0.14750500 10331.90738570 0 -54.38681662 0 2719.26332454 0 205.56656812 0 250.42498489 0 23649
0.14850000 0.14849900 10485.59125418 0 -63.44464266 0 2597.06914784 0 101.29328131 0 -179.93302893 0 23640
0.14950000 0.14949500 10319.47316493 0 134.86977415 0 2528.02213027 0 -57.52117033 0 -621.56931281 0 24457
0.15050000 0.15050000 10336.43596655 0 67.52058687 0 2504.01733006 0 -103.95396096 0 -453.31980103 0 24591
0.15150000 0.15149900 10077.83074809 0 124.13847694 0 2263.75895382 0 120.84778200 0 -405.21165692 0 25020
0.15250000 0.15250500 10240.17317458 0 215.98673300 0 2652.17610846 0 23.30392205 0 -475.54306417 0 25297
0.15350000 0.15350100 9876.77947403 0 186.34611947 0 2521.04656563 0 258.35498392 0 130.52831559 0 25452
0.15450000 0.15450400 9742.39466770 0 185.49244322 0 2687.49682463 0 250.57667574 0 283.44265750 0 26061
0.15550000 0.15549900 9713.32981506 0 62.11319560 0 2600.32441133 0 88.46776458 0 477.05000758 0 26128
0.15650000 0.15649500 9828.99132011 0 38.66610839 0 2878.40584915 0 85.67643149 0 288.22258012 0 26331
0.15750000 0.15749700 9607.16836469 0 121.23752783 0 2549.32528322 0 -172.19125942 0 452.80161623 0 27345
0.15850000 0.15849900 9504.77150477 0 258.76465994 0 2614.80701220 0 -89.28146973 0 359.56156893 0 26980
0.15950000 0.15949700 9414.99709514 0 127.71594509 0 2630.52971344 0 -23.54507728 0 668.03764561 0 27777
0.16050000 0.16050000 9217.53325433 0 145.11499631 0 2517.23768590 0 307.10975180 0 229.00446529 0 28224
0.16150000 0.16150500 9158.36275050 0 137.08645358 0 2558.10563680 0 133.89983850 0 54.69285567 0 28075
0.16250000 0.16249700 8962.27187796 0 251.28087560 0 2484.36395351 0 -271.75692588 0 -168.84298839 0 28590
0.16350000 0.16349900 8833.02463035 0 174.98923590 0 2465.54100132 0 -290.51344413 0 -352.74323130 0 29163
0.16450000 0.16449100 8624.85385143 0 143.74313526 0 2632.35664703 0 -84.93026752 0 140.64952771 0 28996
0.16550000 0.16550500 8755.40763337 0 -48.00074255 0 2638.95575263 0 -111.25693424 0 -342.40278716 0 30777
0.16650000 0.16650700 8779.78889262 0 -19.00642061 0 2418.89329686 0 349.78027718 0 -350.30399815 0 29211
0.16750000 0.16749900 8811.24536743 0 174.99809376 0 2443.54029190 0 101.20891019 0 -241.79078599 0 30922
0.16850000 0.16850800 8460.78414227 0 253.23846262 0 2430.80711836 0 24.53040347 0 -240.58058089 0 30867
0.16950000 0.16949900 8408.48955215 0 189.97562754 0 2611.81748450 0 19.58107427 0 -48.83537440 0 30852
0.17050000 0.17049200 8199.20046843 0 63.79109570 0 2746.22443547 0 114.64728010 0 293.41992939 0 31257
0.17150000 0.17149500 8234.16687021 0 38.08791159 0 2756.12309386 0 397.50864055 0 403.28396517 0 32608
0.17250000 0.17250900 8190.96265877 0 -106.47623656 0 2437.17370513 0 225.23766039 0 44.71669101 0 32361
0.17350000 0.17350400 8332.10158323 0 70.34391898 0 2735.11889368 0 13.63689669 0 139.10272393 0 32508
0.17450000 0.17449800 8201.92426034 0 214.88835838 0 2568.53576678 0 -154.86860724 0 -48.60938825 0 32791
0.17550000 0.17549800 8051.73924650 0 258.10807108 0 2635.06936662 0 -142.76102005 0 343.16345587 0 33633
0.17650000 0.17650100 7886.07512256 0 123.37448652 0 2531.05594727 0 51.93972211 0 258.06599625 0 33984
0.17750000 0.17750300 7842.09584838 0 -51.70864269 0 2489.19148713 0 352.80412909 0 106.47446498 0 34069
0.17850000 0.17849800 7936.36562189 0 -65.39536484 0 2340.88876851 0 260.14094992 0 -66.10045049 0 34536
