### header ###
fiducial parameters:
Omega_m = 0.31
Omega_nu = 0
Omega_de = 0.69
Omega_k = 0
H_0 = 100
w_de = -1
zeff = 0
beta = 0
fgrowth = 0
b_1 = 2
gamma = 0.55
Lx = 3500 Ly = 3500 Lz = 3500
nx = 700 ny = 700 nz = 700
xoffset = -685.467585 yoffset = -31.7331281 zoffset = 572.489161
bins = 400 dk = 0.001
kx_ny = 0.628318531 ky_ny = 0.628318531 kz_ny = 0.628318531
############################
A(data) = 8.01011958 (not used)
A(ran) = 8.00394066 (used)
Ngal = 476100
weighted Ngal = 0
Nran = 23820508
weighted Nran = 0
SN(data) = 3494.68162
SN(ran) = 69.7172259
SN(data+ran) = 3564.39885
############################
13 columns: k_central k_mean P_0(k) sigma^{lin}_{P_0(k)} P^img_1(k) sigma^{lin}_{P_1(k)} P_2(k) sigma^{lin}_{P_2(k)} P^img_3(k) sigma^{lin}_{P_3(k)} P_4(k) sigma^{lin}_{P_4(k)} N_modes
### header ###
0.00050000 0 0 0 0 0 0 0 0 0 0 0 0
0.00150000 0.00179520 24063.81569811 0 -39714.98972226 0 -20588.65583053 0 -36077.62029608 0 59474.66059361 0 3
0.00250000 0.00253879 44825.53196555 0 -47508.57771561 0 -31860.39321916 0 -54588.77582089 0 -30683.40509094 0 6
0.00350000 0.00331552 63541.30405301 0 -30906.18026629 0 -32774.08146319 0 -16637.16454925 0 -49960.10115370 0 7
0.00450000 0.00420575 85724.26393417 0 -18318.38634971 0 -25883.55228205 0 -48988.50465087 0 13313.03119220 0 24
0.00550000 0.00557378 79388.23677995 0 6867.13335880 0 -4958.74067003 0 -52223.72723963 0 14931.80508068 0 45
0.00650000 0.00659388 91109.62127946 0 10161.65931929 0 270.91985813 0 -47944.82731346 0 20563.07876020 0 40
0.00750000 0.00754703 76541.65279232 0 1303.10190791 0 36341.91668951 0 -25693.88335791 0 -19174.60922794 0 57
0.00850000 0.00846663 81482.89918914 0 7519.89119616 0 30597.37312710 0 8044.24328259 0 26731.24947017 0 75
0.00950000 0.00948925 72870.84494520 0 6836.23050023 0 36834.30297419 0 3271.96056251 0 3670.32066483 0 112
0.01050000 0.01054430 84470.76604145 0 -1260.57310828 0 49951.02184735 0 21199.40526752 0 17725.79552542 0 105
0.01150000 0.01145670 83418.56301394 0 -6635.61104684 0 35283.40243684 0 27698.52776633 0 15523.84228873 0 144
0.01250000 0.01249090 87732.00859354 0 -1481.46598841 0 41803.45162955 0 22601.05086632 0 11802.87681018 0 169
0.01350000 0.01339930 88596.42499213 0 3902.98342625 0 68900.53071173 0 -681.26685930 0 30801.87896650 0 180
0.01450000 0.01448870 83824.36371854 0 10768.51129795 0 53230.86590513 0 3178.97517868 0 26603.91773475 0 267
0.01550000 0.01550050 82670.73819569 0 4775.13937989 0 55773.73602298 0 23658.34716325 0 57079.05239585 0 238
0.01650000 0.01653350 84568.97756259 0 -4284.64646275 0 56891.70865992 0 10793.29116089 0 36436.58506670 0 315
0.01750000 0.01747870 93319.98948301 0 -9592.67469151 0 62002.36162646 0 35949.40277468 0 37955.59730858 0 297
0.01850000 0.01844180 88073.70053744 0 1159.44956571 0 64713.30963506 0 18526.65677955 0 18933.34327014 0 388
0.01950000 0.01947590 92016.00178912 0 5816.53581838 0 52196.93221357 0 21745.93522057 0 22816.96120028 0 399
0.02050000 0.02045430 88373.64981678 0 -2971.18085881 0 50802.70507240 0 961.55833316 0 17809.50230105 0 462
0.02150000 0.02154770 86000.07554540 0 5784.04961736 0 40080.70861102 0 3607.67345101 0 140.15680925 0 571
0.02250000 0.02255340 87803.53581187 0 4610.64892238 0 47498.28045353 0 -10407.99640185 0 13068.66498345 0 510
0.02350000 0.02348930 80510.19545382 0 3579.00720205 0 39611.35276196 0 -2568.05965681 0 -3434.11475948 0 555
0.02450000 0.02439640 82524.80495458 0 4421.22358938 0 38186.56600429 0 -3352.83282298 0 614.58378308 0 592
0.02550000 0.02547300 75347.17039089 0 3188.13199131 0 37975.08460026 0 17452.41982565 0 -9741.03277175 0 837
0.02650000 0.02652900 72813.26885614 0 846.14374094 0 31400.00595320 0 16308.87011838 0 -9968.09293681 0 723
0.02750000 0.02749970 74531.14005175 0 -491.15836386 0 35470.30327978 0 12443.30007769 0 -19298.06564967 0 826
0.02850000 0.02848090 69087.32083142 0 4975.24950634 0 32147.27715521 0 2021.70686096 0 8843.65406217 0 831
0.02950000 0.02946900 66028.70182352 0 5384.01759399 0 30728.58017620 0 1736.77165408 0 13492.51357751 0 996
0.03050000 0.03053250 64295.66154290 0 -766.00779007 0 28885.14881714 0 12011.92230276 0 21271.37537885 0 1041
0.03150000 0.03150510 69906.11925176 0 -2574.55911148 0 31086.88060733 0 14247.64613014 0 20276.41627064 0 1036
0.03250000 0.03246190 64859.46432267 0 3265.40574622 0 26619.64043600 0 8619.48377390 0 14028.74626847 0 1059
0.03350000 0.03345080 63080.58461730 0 8201.74710314 0 25801.61707840 0 -2729.59380359 0 16188.51394760 0 1302
0.03450000 0.03451200 54607.37732659 0 5680.34622311 0 24423.66625471 0 -1749.11729625 0 13091.91686557 0 1339
0.03550000 0.03553350 50388.37867769 0 3829.05351343 0 26150.83820318 0 -2458.12254369 0 14647.91067233 0 1365
0.03650000 0.03647120 46966.25524599 0 2466.43785963 0 16919.06593913 0 5574.52801482 0 1590.51731555 0 1308
0.03750000 0.03744890 47202.42793437 0 -1024.78905850 0 21782.80606222 0 2780.50435311 0 -1091.67918719 0 1579
0.03850000 0.03847530 47641.11344369 0 -802.68265157 0 15409.02228037 0 4643.44514849 0 -5269.85085279 0 1662
0.03950000 0.03950240 46929.82729734 0 394.76381122 0 15807.95814358 0 -511.12951614 0 -3627.16074269 0 1683
0.04050000 0.04050350 48494.67896396 0 -332.04905622 0 14527.77594805 0 585.85110018 0 -1370.59880000 0 1822
0.04150000 0.04152450 47326.99158858 0 538.22349497 0 13867.42249587 0 3046.86019895 0 -2334.21215664 0 1887
0.04250000 0.04250150 48272.12523510 0 335.08508768 0 15707.64288072 0 1138.26820833 0 -4850.84086467 0 1920
0.04350000 0.04349210 46435.00510119 0 2490.58660006 0 15719.15809854 0 -752.05555356 0 -5605.14299294 0 2005
0.04450000 0.04448520 43390.33722256 0 2972.06664480 0 16068.15777682 0 -1797.23761991 0 -452.79608006 0 2151
0.04550000 0.04548030 41305.08628946 0 1599.53018795 0 16095.50641912 0 -376.89640066 0 -1663.26248961 0 2274
0.04650000 0.04648670 40852.11748113 0 1028.48610775 0 16849.42101602 0 1934.10262700 0 -4863.24186847 0 2311
0.04750000 0.04749250 40148.36051566 0 1260.24093853 0 15980.24351776 0 3467.07707046 0 -3383.07134206 0 2568
0.04850000 0.04851840 38612.07544707 0 1227.01289175 0 13863.21501243 0 190.90348836 0 -5243.62051529 0 2493
0.04950000 0.04949480 37657.08743146 0 887.85651023 0 14365.89855920 0 884.90905737 0 -1201.15901330 0 2644
0.05050000 0.05050630 38025.24223168 0 147.22316695 0 13534.14551882 0 2689.79986819 0 -3602.91235134 0 2829
0.05150000 0.05149060 37688.97572694 0 -166.72817435 0 13212.38375959 0 987.81413700 0 -4799.91924283 0 2784
0.05250000 0.05249300 37502.96066999 0 -88.79218369 0 12041.59613327 0 -195.01796426 0 -5705.58005137 0 3055
0.05350000 0.05348950 37242.09669726 0 1918.00346671 0 12955.06293081 0 -1662.89710289 0 -4709.52478301 0 3009
0.05450000 0.05448610 36326.19398826 0 625.66718022 0 12522.35647690 0 -1362.87031728 0 -5629.00385293 0 3336
0.05550000 0.05550870 35353.15808320 0 584.14706939 0 13004.55622275 0 -2085.07377590 0 -7804.92605396 0 3349
0.05650000 0.05647670 34992.64318711 0 767.42172595 0 13226.33488887 0 1543.54851367 0 -5647.57214165 0 3324
0.05750000 0.05747970 34814.04658778 0 641.49063962 0 14342.09306084 0 -494.81665998 0 -8162.47356701 0 3639
0.05850000 0.05849280 33142.56843316 0 1439.50187735 0 12238.90496154 0 1850.38477904 0 -4636.55816246 0 3846
0.05950000 0.05951020 33355.37851617 0 585.78355900 0 12536.86122241 0 1917.87059881 0 -5872.88287938 0 3787
0.06050000 0.06049470 31932.80622347 0 458.36324498 0 11833.54714993 0 1985.48928648 0 -1087.64221756 0 3930
0.06150000 0.06148310 31842.45605295 0 480.48132104 0 11371.94192824 0 1201.14794098 0 -3747.16259908 0 4083
0.06250000 0.06249100 31732.06497451 0 239.50988708 0 12748.56407294 0 554.98810198 0 -2296.01263602 0 4303
0.06350000 0.06350600 31353.39146571 0 593.75674010 0 10031.80309381 0 -151.45058057 0 -2391.54465455 0 4470
0.06450000 0.06451750 31005.72046641 0 232.41031241 0 10077.95254366 0 -158.71513288 0 -1901.02959276 0 4479
0.06550000 0.06550280 31704.93777870 0 -469.55847261 0 10163.09872151 0 -877.11414069 0 -2973.93786769 0 4636
0.06650000 0.06648880 30938.29000826 0 363.72919199 0 11770.21345197 0 2553.69885152 0 -2731.48717114 0 4653
0.06750000 0.06749660 30007.32893751 0 1852.95355840 0 8957.82080338 0 577.40513081 0 -2865.51766307 0 5220
0.06850000 0.06852730 28602.69381102 0 1401.85597296 0 8944.66688150 0 1753.34692433 0 -3168.77756752 0 5029
0.06950000 0.06949320 27960.27752504 0 -167.69921724 0 8707.65269643 0 -186.84215962 0 -2201.11174000 0 5040
0.07050000 0.07048030 27933.48249898 0 -31.42624736 0 8837.55321120 0 1707.23069146 0 -1065.82420151 0 5475
0.07150000 0.07148790 28563.82995090 0 -197.78493824 0 8746.82658164 0 512.96530759 0 -92.11332752 0 5509
0.07250000 0.07249820 28904.41466232 0 -528.59057238 0 9676.87972175 0 114.72589361 0 608.71545093 0 5916
0.07350000 0.07351270 28913.49396868 0 545.30756839 0 10722.11825696 0 49.34890882 0 1658.37959436 0 5721
0.07450000 0.07449140 29389.16104288 0 1160.86682329 0 11471.37140511 0 -373.98216477 0 4110.34592545 0 6028
0.07550000 0.07549160 27764.07592925 0 1143.28397147 0 11386.77884350 0 -128.08465350 0 3992.21529196 0 6183
0.07650000 0.07648840 27317.86123906 0 894.13119671 0 11535.92305880 0 744.28942494 0 4273.15338958 0 6330
0.07750000 0.07749960 27222.74996887 0 -246.07577570 0 11007.51850148 0 3207.01030512 0 3817.41650005 0 6583
0.07850000 0.07848650 26143.08757580 0 -196.13294737 0 9674.07842357 0 1928.88756201 0 1957.63131724 0 6549
0.07950000 0.07947320 26141.53745033 0 839.95320414 0 8422.51818770 0 2173.88489327 0 1700.00046336 0 6828
0.08050000 0.08048110 25902.15378775 0 234.86836852 0 7176.91486257 0 243.90227834 0 2254.34747773 0 7147
0.08150000 0.08149960 24721.73323883 0 571.12380094 0 6791.38758471 0 -622.14618093 0 878.77277495 0 7386
0.08250000 0.08250610 24753.17864132 0 931.23787887 0 7111.32241035 0 -713.59804777 0 3421.74697266 0 7227
0.08350000 0.08350160 23743.71478760 0 1016.36966271 0 8641.05266264 0 -382.05942573 0 2443.50707493 0 7798
0.08450000 0.08449610 23025.12090687 0 840.84009736 0 8195.17014220 0 331.72685157 0 2672.50489683 0 7371
0.08550000 0.08548940 22541.37103554 0 698.40792535 0 9255.73277495 0 762.85107026 0 2927.10193371 0 8256
0.08650000 0.08650700 22024.29346651 0 786.24357091 0 9298.38337015 0 -216.42076814 0 1838.84741658 0 8037
0.08750000 0.08749060 20842.54423862 0 972.42139104 0 9837.15162350 0 389.41034217 0 3700.14950790 0 8155
0.08850000 0.08849210 20581.45881940 0 708.01316713 0 9088.38565764 0 29.40056554 0 3042.95166828 0 8718
0.08950000 0.08949900 20356.91207207 0 153.43141948 0 9887.33139958 0 892.07063706 0 3303.72706241 0 8571
0.09050000 0.09049190 19550.29320904 0 318.40684481 0 8892.99234157 0 1248.12781518 0 3203.33429328 0 8932
0.09150000 0.09150830 19491.38844100 0 392.13524131 0 8436.07071328 0 937.20475472 0 3662.23786772 0 9285
0.09250000 0.09250820 19450.42083917 0 -143.91807799 0 7539.00202879 0 1813.28141858 0 3448.07696107 0 9204
0.09350000 0.09350330 19135.74536783 0 65.27091191 0 7460.18922073 0 1544.32357641 0 3337.09904942 0 9349
0.09450000 0.09448040 18784.64194783 0 516.40658615 0 6255.86352254 0 434.83787644 0 2087.44325341 0 9564
0.09550000 0.09549270 18413.38689666 0 806.51921212 0 7229.78521358 0 -1057.69268616 0 2668.43028129 0 10155
0.09650000 0.09649430 17680.17754717 0 794.83348050 0 7050.41355152 0 -923.17169024 0 3559.29846388 0 9913
0.09750000 0.09749140 17445.33353776 0 419.80719550 0 7649.71420466 0 -168.74665917 0 3486.69723004 0 10476
0.09850000 0.09850240 17514.75701438 0 -639.86300787 0 6893.39691327 0 1076.23218684 0 2651.11316528 0 10575
0.09950000 0.09950330 17772.74218265 0 -484.43635547 0 6866.94512928 0 1672.40822991 0 2856.17262092 0 10882
0.10050000 0.10051200 18262.80327912 0 -207.97922770 0 5720.50554523 0 1168.83889716 0 1990.29467545 0 10875
0.10150000 0.10150300 17906.71731296 0 22.16513344 0 5491.88418237 0 471.45405462 0 951.99184451 0 11118
0.10250000 0.10250800 17664.34412268 0 716.34287709 0 4907.63081867 0 -189.76636060 0 1200.99292843 0 11575
0.10350000 0.10349800 17145.05208868 0 996.22024600 0 4943.94804407 0 -666.25500131 0 1329.57583655 0 11364
0.10450000 0.10450100 16391.69110802 0 680.90036535 0 5200.52702710 0 -536.79516507 0 705.06682150 0 12093
0.10550000 0.10551000 15732.33416507 0 401.14922095 0 5407.93381560 0 -20.44416199 0 1409.08620107 0 12067
0.10650000 0.10649700 15927.53925162 0 130.71211618 0 5665.03319789 0 399.42415274 0 596.96992876 0 12054
0.10750000 0.10749900 15748.05686631 0 -328.20474504 0 5363.71095027 0 1213.31642595 0 1374.56269229 0 12807
0.10850000 0.10850100 15958.65248436 0 -130.73868976 0 4968.72790702 0 1016.02199171 0 1790.70494827 0 12736
0.10950000 0.10950300 15978.91483878 0 -86.57495065 0 5127.33896004 0 334.36981550 0 1214.00291009 0 12933
0.11050000 0.11050200 16147.87851551 0 133.16131443 0 5018.05511408 0 10.59402253 0 1543.26063322 0 13428
0.11150000 0.11150900 15599.90916024 0 457.64575833 0 5327.80340089 0 -724.25848211 0 1203.94923916 0 13453
0.11250000 0.11250000 15393.41030237 0 672.54408181 0 5183.74138267 0 -834.18673737 0 853.09716093 0 13668
0.11350000 0.11349100 15146.38673567 0 469.29273681 0 5667.45803702 0 -596.29340971 0 626.49871182 0 13791
0.11450000 0.11448600 14730.06732249 0 177.65655895 0 5730.08310620 0 -196.62677306 0 749.85991155 0 14205
0.11550000 0.11549300 14916.52527243 0 -200.13337833 0 5757.67533964 0 141.63939355 0 397.30823147 0 14776
0.11650000 0.11649800 15015.95474930 0 -259.31716895 0 5482.28447676 0 907.73908391 0 25.44276303 0 14553
0.11750000 0.11747300 15084.27099343 0 92.33067726 0 5178.69240255 0 822.83206827 0 -522.10219003 0 14568
0.11850000 0.11849100 14939.33426156 0 210.68087495 0 5198.65580420 0 313.11205908 0 50.28330232 0 16015
0.11950000 0.11950300 14701.72217095 0 412.70540636 0 4860.06411125 0 151.99091002 0 641.40316826 0 15270
0.12050000 0.12050700 14303.33992398 0 195.97018420 0 4773.91035183 0 378.45981293 0 847.74922804 0 15999
0.12150000 0.12150000 14329.91350354 0 -49.27826739 0 4719.47880302 0 720.14068451 0 538.42279682 0 15670
0.12250000 0.12250700 14512.71758630 0 36.80861518 0 4432.57272232 0 -50.79672602 0 -3.43907516 0 16887
0.12350000 0.12352200 13933.19210529 0 510.32677259 0 4707.89715126 0 -496.03018678 0 -310.94299065 0 16407
0.12450000 0.12449800 13657.15904756 0 776.72137156 0 4659.71039365 0 -999.21863156 0 -113.84453655 0 16306
0.12550000 0.12549900 13414.56441078 0 316.88772184 0 4512.16059312 0 -117.68109710 0 273.81527107 0 17523
0.12650000 0.12650100 13163.44408390 0 -130.40762725 0 4539.78604354 0 774.69956505 0 105.01081437 0 17154
0.12750000 0.12750600 13354.22024052 0 -352.59375492 0 4166.85907133 0 803.06132507 0 -712.23725905 0 18007
0.12850000 0.12850300 13455.53201261 0 -164.77833795 0 3925.33845006 0 809.67371746 0 -687.50832880 0 17496
0.12950000 0.12949900 13570.35202098 0 189.67999647 0 3744.30593927 0 584.76601234 0 -381.83244307 0 18405
0.13050000 0.13049000 13146.72487342 0 331.35149976 0 3237.42598140 0 137.77736665 0 327.36214112 0 18100
0.13150000 0.13148800 12856.07634693 0 564.92551350 0 3876.54271458 0 -159.86111850 0 58.07578308 0 19059
0.13250000 0.13249300 12527.78191606 0 432.06868800 0 3726.95560628 0 -294.78846874 0 1157.00258192 0 18957
0.13350000 0.13349100 12391.59232079 0 282.04754457 0 4188.97050399 0 116.39338573 0 748.22231471 0 19468
0.13450000 0.13450700 12115.66998631 0 30.23397943 0 4464.28386060 0 43.40129882 0 826.17812483 0 19953
0.13550000 0.13551000 12119.43457675 0 282.18484140 0 4379.18197205 0 -51.56071643 0 781.65519950 0 19956
0.13650000 0.13649900 11987.45246491 0 211.76817725 0 4452.77971512 0 114.97391368 0 652.42456038 0 19723
0.13750000 0.13749600 11578.10861636 0 142.61707983 0 4213.35176324 0 426.07523858 0 1344.95529572 0 20946
0.13850000 0.13851100 11682.40991615 0 28.98147804 0 3613.14317947 0 768.88105836 0 384.99802073 0 20955
0.13950000 0.13949800 11717.61990908 0 -107.92405375 0 3758.81068478 0 376.71481454 0 421.74374511 0 20506
0.14050000 0.14048300 11674.10567254 0 96.54015371 0 3749.45457031 0 40.52382305 0 366.15292389 0 21447
0.14150000 0.14148400 11490.63725029 0 154.68037772 0 3575.36440719 0 -46.58625306 0 693.45638169 0 21771
0.14250000 0.14249400 11354.89054802 0 182.43980327 0 3322.47250833 0 -80.94788445 0 942.46410901 0 22470
0.14350000 0.14350900 11459.96691055 0 185.34850300 0 3971.10036853 0 170.75517889 0 906.26092855 0 22519
0.14450000 0.14449900 11150.27398537 0 374.76276367 0 3921.36348545 0 168.04688824 0 1233.83344384 0 22218
0.14550000 0.14550500 10776.87090319 0 424.40442476 0 3657.38818945 0 319.84403257 0 1156.91400333 0 23559
0.14650000 0.14650700 10601.55171201 0 112.40624156 0 3748.59092898 0 210.09514897 0 1548.26532404 0 23044
0.14750000 0.14750500 10400.23470215 0 67.97123049 0 3260.10210263 0 645.13564895 0 1139.01005409 0 23649
0.14850000 0.14849900 10317.17012137 0 160.52102906 0 3089.17862440 0 308.78278008 0 1062.13268841 0 23640
0.14950000 0.14949500 10150.17731845 0 217.71623014 0 2888.35986917 0 -28.06114640 0 888.55849563 0 24457
0.15050000 0.15050000 10067.83243877 0 157.65551140 0 2852.23087328 0 -87.28058991 0 767.52469857 0 24591
0.15150000 0.15149900 9786.60646071 0 8.34694957 0 2819.00282650 0 53.87859691 0 985.69157233 0 25020
0.15250000 0.15250500 9996.88098134 0 75.37252601 0 2811.11933123 0 -111.14067483 0 482.06798519 0 25297
0.15350000 0.15350100 9855.31023620 0 75.48125624 0 3013.82038169 0 -96.67877922 0 543.58692911 0 25452
0.15450000 0.15450400 9814.71909342 0 216.58242408 0 3208.18397155 0 -6.44505634 0 771.54395248 0 26061
0.15550000 0.15549900 9675.58425975 0 176.13854322 0 2861.98559145 0 29.05355888 0 826.53797539 0 26128
0.15650000 0.15649500 9500.33150252 0 66.91681300 0 3264.78569603 0 226.39471833 0 337.19879449 0 26331
0.15750000 0.15749700 9474.84301079 0 167.07695258 0 3054.19007798 0 55.96949473 0 437.27932406 0 27345
0.15850000 0.15849900 9220.02452741 0 155.73446304 0 2951.69356713 0 59.48385062 0 279.71460573 0 26980
0.15950000 0.15949700 9098.78257065 0 142.58497008 0 2918.45444802 0 221.45092530 0 509.23061243 0 27777
0.16050000 0.16050000 9115.04781580 0 -68.95522800 0 2678.73861570 0 304.47121679 0 169.28920308 0 28224
0.16150000 0.16150500 9141.35565957 0 -39.47660257 0 2477.85342652 0 308.31884967 0 -85.41080642 0 28075
0.16250000 0.16249700 8988.07039478 0 235.06877760 0 2165.35920316 0 147.66495271 0 -198.99625057 0 28590
0.16350000 0.16349900 8881.12280936 0 283.43490687 0 2227.95105536 0 -49.42176472 0 -112.58007706 0 29163
0.16450000 0.16449100 8576.52315360 0 181.65366821 0 2016.10426460 0 19.62779948 0 140.63734815 0 28996
0.16550000 0.16550500 8602.54311692 0 -83.79502206 0 2083.23576998 0 222.36549933 0 11.39940129 0 30777
0.16650000 0.16650700 8680.02724600 0 -55.82965126 0 2037.93888915 0 138.63104289 0 -21.80118612 0 29211
0.16750000 0.16749900 8702.30476354 0 2.08427657 0 2267.53461659 0 218.97293901 0 -198.93867448 0 30922
0.16850000 0.16850800 8755.14189757 0 116.94146580 0 2118.46790755 0 -113.58101522 0 262.47167429 0 30867
0.16950000 0.16949900 8525.71225501 0 232.63286614 0 2393.46016675 0 -4.54814565 0 369.01290539 0 30852
0.17050000 0.17049200 8426.26063349 0 208.44758704 0 2475.53931063 0 142.63811724 0 1159.49385501 0 31257
0.17150000 0.17149500 8437.85335757 0 32.30406127 0 2570.27412178 0 207.00597034 0 998.43581820 0 32608
0.17250000 0.17250900 8319.75594106 0 15.92045296 0 2382.24390171 0 201.71782801 0 1099.84170505 0 32361
0.17350000 0.17350400 8483.38275723 0 35.29779646 0 2627.47375179 0 225.51003958 0 1149.63948592 0 32508
0.17450000 0.17449800 8292.37408178 0 263.32535053 0 2423.13399726 0 -229.56140323 0 1216.22844738 0 32791
0.17550000 0.17549800 8170.84424457 0 231.55885063 0 2610.78775829 0 -184.95875717 0 864.99880288 0 33633
0.17650000 0.17650100 7934.70477316 0 174.85526077 0 2264.96583723 0 100.14408472 0 843.68679207 0 33984
0.17750000 0.17750300 7867.71720801 0 -21.50633011 0 2271.31027935 0 123.15968342 0 571.03190064 0 34069
