### header ###
fiducial parameters:
Omega_m = 0.31
Omega_nu = 0
Omega_de = 0.69
Omega_k = 0
H_0 = 100
w_de = -1
zeff = 0
beta = 0
fgrowth = 0
b_1 = 2
gamma = 0.55
Lx = 3500 Ly = 3500 Lz = 3500
nx = 700 ny = 700 nz = 700
xoffset = -685.467585 yoffset = -31.7331281 zoffset = 572.489161
bins = 400 dk = 0.001
kx_ny = 0.628318531 ky_ny = 0.628318531 kz_ny = 0.628318531
############################
A(data) = 8.03982442 (not used)
A(ran) = 8.04071643 (used)
Ngal = 478185
weighted Ngal = 0
Nran = 23820508
weighted Nran = 0
SN(data) = 3486.6354
SN(ran) = 70.0375562
SN(data+ran) = 3556.67295
############################
13 columns: k_central k_mean P_0(k) sigma^{lin}_{P_0(k)} P^img_1(k) sigma^{lin}_{P_1(k)} P_2(k) sigma^{lin}_{P_2(k)} P^img_3(k) sigma^{lin}_{P_3(k)} P_4(k) sigma^{lin}_{P_4(k)} N_modes
### header ###
0.00050000 0 0 0 0 0 0 0 0 0 0 0 0
0.00150000 0.00179520 56170.23597474 0 -34168.19788111 0 -16326.03222185 0 119866.77402170 0 -100209.74360141 0 3
0.00250000 0.00253879 103562.33283325 0 -27005.62167917 0 49754.82025157 0 -72848.47884906 0 84738.38413232 0 6
0.00350000 0.00331552 99117.79092780 0 7635.97344956 0 26717.29834090 0 -91952.77881440 0 49146.83889577 0 7
0.00450000 0.00420575 86879.66102900 0 41308.62943341 0 54263.02802473 0 -48532.54631484 0 74405.57988831 0 24
0.00550000 0.00557378 51331.74075224 0 26383.91064061 0 78281.11502133 0 11724.15258072 0 26861.57073328 0 45
0.00650000 0.00659388 53268.51180951 0 3377.97807265 0 119606.57438846 0 65002.18658958 0 -18083.21017056 0 40
0.00750000 0.00754703 44761.86609785 0 1464.77999491 0 69535.30709358 0 50351.84000579 0 -25664.32025064 0 57
0.00850000 0.00846663 51456.30440645 0 -6287.97326451 0 63779.46975986 0 57969.59948102 0 -15145.39022643 0 75
0.00950000 0.00948925 55727.67515174 0 -11956.78212516 0 35596.97067571 0 34382.66881285 0 -18326.69059333 0 112
0.01050000 0.01054430 60730.15150480 0 -4595.39125878 0 20234.00926659 0 20026.73534598 0 -20945.18468969 0 105
0.01150000 0.01145670 61538.09904682 0 -5437.15368079 0 2687.38610138 0 17171.73639149 0 -15841.28584129 0 144
0.01250000 0.01249090 63318.63960090 0 1271.64543310 0 4631.98529231 0 -8271.45846020 0 -22608.46932395 0 169
0.01350000 0.01339930 62096.91928041 0 2784.23572657 0 6470.27909265 0 -26195.79184194 0 -11661.04032925 0 180
0.01450000 0.01448870 62269.09393134 0 -518.38521059 0 6785.23137211 0 -22750.08435838 0 -27151.77636678 0 267
0.01550000 0.01550050 70225.99871577 0 -5371.45050532 0 18669.82193946 0 -24937.75429604 0 -23626.90176076 0 238
0.01650000 0.01653350 71632.95903047 0 -5703.40987571 0 25100.96036387 0 818.80174204 0 -28728.36469771 0 315
0.01750000 0.01747870 83872.63905475 0 -14829.49679936 0 -2309.65374020 0 11338.50350729 0 -29404.66229763 0 297
0.01850000 0.01844180 91532.80553403 0 -6822.58939605 0 9639.33346829 0 7966.18339262 0 -49162.56159702 0 388
0.01950000 0.01947590 89182.37242153 0 9956.77702084 0 -3296.39718338 0 -6271.68587470 0 -46191.30323193 0 399
0.02050000 0.02045430 83111.97033971 0 15757.24689591 0 2610.11234647 0 -25439.99494982 0 -49312.59159831 0 462
0.02150000 0.02154770 63790.09919168 0 16225.71695899 0 7763.21660637 0 -21361.39337962 0 -26323.56647035 0 571
0.02250000 0.02255340 62963.55014397 0 3547.19641285 0 19818.24346965 0 -7747.01779516 0 -23020.91342344 0 510
0.02350000 0.02348930 55661.90554231 0 -2443.88353397 0 22133.57731247 0 7039.47409460 0 -21991.85155480 0 555
0.02450000 0.02439640 66204.75178813 0 -6366.25460098 0 28329.87172748 0 10751.13882031 0 -22281.17140231 0 592
0.02550000 0.02547300 67883.20550739 0 -4590.61908679 0 26525.19350529 0 6743.57728615 0 -15019.83006299 0 837
0.02650000 0.02652900 74195.64860975 0 -194.32815843 0 25088.00574383 0 6536.91234341 0 -7227.77005047 0 723
0.02750000 0.02749970 67292.05408532 0 7261.09774817 0 20784.30381007 0 5262.45453981 0 6228.31557839 0 826
0.02850000 0.02848090 63471.10551366 0 6230.36395848 0 23084.69001440 0 6008.60743701 0 8580.16594847 0 831
0.02950000 0.02946900 61032.42597235 0 638.98165082 0 14968.56519908 0 8328.71345183 0 8637.13305966 0 996
0.03050000 0.03053250 55997.50770757 0 -129.41111802 0 10668.51713251 0 3283.60864822 0 -1627.22207232 0 1041
0.03150000 0.03150510 56890.04781120 0 3517.12397864 0 11714.18748838 0 -2280.44494732 0 -6033.65303575 0 1036
0.03250000 0.03246190 53461.50243110 0 5212.38548698 0 12418.49807010 0 -7186.04953055 0 -8438.79450518 0 1059
0.03350000 0.03345080 50410.19115758 0 3862.48086206 0 13132.77374415 0 -9063.52828842 0 -2433.81879071 0 1302
0.03450000 0.03451200 48996.58744798 0 -1364.87440807 0 13343.92297844 0 4881.24546863 0 -5362.16082480 0 1339
0.03550000 0.03553350 51730.23372246 0 -3014.49579350 0 18232.13293938 0 737.02597986 0 -8204.36017180 0 1365
0.03650000 0.03647120 54570.06359195 0 -1806.26156464 0 20290.14595342 0 3469.51298192 0 -10994.98462979 0 1308
0.03750000 0.03744890 56101.80900736 0 1592.56569564 0 23580.95161277 0 -1279.32962652 0 -6465.97195829 0 1579
0.03850000 0.03847530 51744.95991447 0 3621.58029098 0 24143.20426706 0 -3786.24790569 0 -5062.10082221 0 1662
0.03950000 0.03950240 52477.83709422 0 3073.65522501 0 25708.72027317 0 -4615.22179253 0 -2847.99017288 0 1683
0.04050000 0.04050350 49164.66533873 0 1774.17396732 0 27717.12927202 0 1460.00782291 0 -8260.08718261 0 1822
0.04150000 0.04152450 48395.02804059 0 253.55291665 0 24315.71108773 0 1941.23320418 0 -9348.07596394 0 1887
0.04250000 0.04250150 47841.52252290 0 1159.27240851 0 22446.37048860 0 3527.46553002 0 -10988.80627254 0 1920
0.04350000 0.04349210 46046.92011630 0 781.58544386 0 15691.80945623 0 4935.07911189 0 -11009.82154505 0 2005
0.04450000 0.04448520 44974.45473436 0 836.78984094 0 14954.17117682 0 2811.52900725 0 -9307.54018278 0 2151
0.04550000 0.04548030 43862.23970633 0 1363.02532982 0 14332.57086150 0 4055.30539878 0 -10516.12872603 0 2274
0.04650000 0.04648670 42550.39066182 0 340.32340456 0 12890.95417011 0 5974.19465147 0 -4413.87156571 0 2311
0.04750000 0.04749250 41248.06381665 0 1387.11870863 0 13152.48248233 0 2803.78945220 0 -1814.44401268 0 2568
0.04850000 0.04851840 41109.99192616 0 614.79415725 0 13478.89461798 0 2176.66404680 0 -33.18043578 0 2493
0.04950000 0.04949480 40434.80155872 0 78.24845166 0 11814.72419774 0 775.32515140 0 3273.72106215 0 2644
0.05050000 0.05050630 40297.17256122 0 702.68737890 0 13900.19657733 0 -936.76739789 0 2658.53162291 0 2829
0.05150000 0.05149060 41234.77702687 0 1614.07922276 0 16343.30504856 0 -1936.66033403 0 693.58149896 0 2784
0.05250000 0.05249300 37866.57581703 0 2583.74914108 0 15351.00329832 0 -955.35893849 0 3226.59724773 0 3055
0.05350000 0.05348950 36493.49681627 0 2908.36756011 0 17978.57670103 0 -817.99789125 0 5461.55708470 0 3009
0.05450000 0.05448610 35836.24361504 0 78.67451472 0 19422.40785738 0 1574.93855453 0 5153.22605547 0 3336
0.05550000 0.05550870 35938.55189636 0 -1136.44127474 0 19757.01351340 0 4269.02341243 0 7958.28882503 0 3349
0.05650000 0.05647670 36623.59663289 0 -398.86832203 0 19494.15652221 0 5013.11685722 0 8700.20102182 0 3324
0.05750000 0.05747970 38148.92009991 0 -1703.67647520 0 18622.98600547 0 3616.60881714 0 10031.65915359 0 3639
0.05850000 0.05849280 37780.43312994 0 -136.33685719 0 17437.02929415 0 2176.70833610 0 9052.42274663 0 3846
0.05950000 0.05951020 38348.44339314 0 2263.01710806 0 17129.66155718 0 1100.24252321 0 9234.72857477 0 3787
0.06050000 0.06049470 35842.99773318 0 1062.74055905 0 14321.38781343 0 -255.28684272 0 8982.77782352 0 3930
0.06150000 0.06148310 34790.24108942 0 1140.63768584 0 14560.43930626 0 -1399.96260542 0 6468.19749558 0 4083
0.06250000 0.06249100 34927.98081016 0 -12.89449731 0 13430.06566553 0 173.99051220 0 2140.11430257 0 4303
0.06350000 0.06350600 33918.84912619 0 579.22209931 0 12666.51814604 0 504.83489948 0 -488.46114554 0 4470
0.06450000 0.06451750 32931.19775237 0 1151.93145716 0 11781.50722328 0 -1996.97128732 0 -4930.91591776 0 4479
0.06550000 0.06550280 32733.99964735 0 1635.94706428 0 11012.04708233 0 -1441.05200282 0 -5146.01797201 0 4636
0.06650000 0.06648880 29973.11545382 0 1932.29783805 0 11341.49303499 0 -1727.10551451 0 -6313.29567137 0 4653
0.06750000 0.06749660 29955.62118061 0 890.31899527 0 11963.42552005 0 1533.88237410 0 -5319.60988052 0 5220
0.06850000 0.06852730 29224.07267984 0 -770.97262052 0 10152.72395316 0 3237.40383675 0 -6692.91032778 0 5029
0.06950000 0.06949320 29808.46998377 0 108.35941756 0 10414.32977165 0 2064.08064804 0 -6446.69504078 0 5040
0.07050000 0.07048030 29048.68705471 0 703.86325979 0 9593.12865682 0 1207.08270708 0 -6440.53882819 0 5475
0.07150000 0.07148790 28832.88744400 0 515.28274518 0 8802.97434079 0 430.00812835 0 -3598.42805979 0 5509
0.07250000 0.07249820 28009.66009373 0 45.07831314 0 9496.77728625 0 236.50596536 0 -1803.67064063 0 5916
0.07350000 0.07351270 29186.86966845 0 -376.77681956 0 8886.90256292 0 1103.70705364 0 -978.52999264 0 5721
0.07450000 0.07449140 29196.50259104 0 -346.62798631 0 10132.52803269 0 236.09075318 0 -2456.57241821 0 6028
0.07550000 0.07549160 28787.71235874 0 827.46915790 0 9706.48711832 0 532.33080370 0 -1486.06100321 0 6183
0.07650000 0.07648840 28560.17608371 0 1356.31550098 0 10184.98870768 0 -467.31743406 0 -230.86129417 0 6330
0.07750000 0.07749960 26985.80221775 0 1075.42058543 0 10496.74108527 0 814.57211396 0 -898.52469520 0 6583
0.07850000 0.07848650 26130.57584876 0 938.76816698 0 10856.95702860 0 653.48861080 0 -502.05463872 0 6549
0.07950000 0.07947320 25173.92698443 0 549.98784009 0 8484.95502735 0 881.19539962 0 -243.52028313 0 6828
0.08050000 0.08048110 24811.52979311 0 417.66359341 0 8555.59645969 0 1612.26336149 0 -586.10797811 0 7147
0.08150000 0.08149960 24920.48146933 0 -15.47899937 0 6925.26306410 0 1135.17902971 0 -1370.10054538 0 7386
0.08250000 0.08250610 24375.16947201 0 -131.70308925 0 6870.26682672 0 801.63853133 0 -1874.11277113 0 7227
0.08350000 0.08350160 24483.78897848 0 281.04771364 0 5993.50478596 0 605.54765880 0 -1031.61957568 0 7798
0.08450000 0.08449610 24557.86283152 0 348.37519916 0 5991.85500956 0 131.20926357 0 -1068.33319031 0 7371
0.08550000 0.08548940 24021.63014055 0 321.39637251 0 6400.64524186 0 -91.88922367 0 -38.42716762 0 8256
0.08650000 0.08650700 23503.99895528 0 649.91889327 0 6906.26295471 0 -247.87945741 0 358.33918427 0 8037
0.08750000 0.08749060 23103.40224334 0 783.93831288 0 7197.45402511 0 489.24174444 0 546.77465143 0 8155
0.08850000 0.08849210 22549.67527916 0 636.38076172 0 7588.84963513 0 -395.65402614 0 841.15565861 0 8718
0.08950000 0.08949900 22258.14096668 0 800.66748845 0 8568.68394763 0 -0.20196696 0 528.30047747 0 8571
0.09050000 0.09049190 21137.73241828 0 230.75942878 0 7762.99515987 0 -6.59485382 0 380.86029295 0 8932
0.09150000 0.09150830 20809.32726416 0 666.42883681 0 7575.47426675 0 1374.64019856 0 -549.24710156 0 9285
0.09250000 0.09250820 20118.63564198 0 739.49953722 0 6704.96808950 0 22.72705392 0 -428.55543934 0 9204
0.09350000 0.09350330 19859.65396447 0 478.88469180 0 7355.15714750 0 799.06643028 0 -910.11852651 0 9349
0.09450000 0.09448040 19157.44712447 0 390.42235266 0 6601.17611665 0 -254.22943570 0 -516.05891515 0 9564
0.09550000 0.09549270 19142.72093246 0 223.40740510 0 6908.41098572 0 205.92531144 0 -750.77559282 0 10155
0.09650000 0.09649430 18757.62547527 0 94.94463170 0 7048.30980981 0 -54.98605084 0 -1394.38215371 0 9913
0.09750000 0.09749140 18530.97498623 0 410.24956472 0 7029.45364064 0 462.74899284 0 -629.40741155 0 10476
0.09850000 0.09850240 18503.95851367 0 327.95451050 0 7232.44257154 0 -351.78104628 0 -873.94856303 0 10575
0.09950000 0.09950330 18348.17090348 0 212.03834197 0 6734.23224400 0 -36.31379298 0 -396.27518356 0 10882
0.10050000 0.10051200 18275.75789916 0 234.78864778 0 6696.68599054 0 -271.13023230 0 -939.72481585 0 10875
0.10150000 0.10150300 17983.66997045 0 428.33288561 0 7467.66303999 0 -465.85588719 0 -1664.81261508 0 11118
0.10250000 0.10250800 17073.30342386 0 804.18073711 0 6731.01019748 0 -87.61641352 0 -1958.29565673 0 11575
0.10350000 0.10349800 16629.30319863 0 754.15265189 0 6661.42063599 0 118.85476353 0 -1807.13627830 0 11364
0.10450000 0.10450100 16061.07148894 0 223.50262709 0 6500.61726265 0 903.62903694 0 -1616.70336375 0 12093
0.10550000 0.10551000 16089.74881022 0 -251.01292534 0 6074.19988924 0 1413.08331033 0 -1659.37610360 0 12067
0.10650000 0.10649700 16285.72895951 0 -1.49559427 0 5737.31333430 0 563.53925843 0 -2655.35386568 0 12054
0.10750000 0.10749900 15897.09035837 0 582.97118849 0 5491.37485543 0 209.48838557 0 -1499.90140923 0 12807
0.10850000 0.10850100 15583.85428925 0 433.51805532 0 5318.76838383 0 -562.51839009 0 -1171.03121747 0 12736
0.10950000 0.10950300 15421.75545391 0 8.01465803 0 4944.91133633 0 422.35604467 0 -547.03042213 0 12933
0.11050000 0.11050200 15400.05369726 0 -382.94078278 0 5246.56575369 0 737.69364104 0 -1484.40015449 0 13428
0.11150000 0.11150900 15778.61648281 0 126.34519127 0 4986.26646953 0 752.36004250 0 -1568.32837661 0 13453
0.11250000 0.11250000 15262.86759276 0 331.73349496 0 4403.68502687 0 481.90190031 0 -1098.76547508 0 13668
0.11350000 0.11349100 15086.37473515 0 371.64922593 0 3895.98571696 0 362.32189951 0 -599.08695727 0 13791
0.11450000 0.11448600 14982.84849810 0 59.64594946 0 4143.34145341 0 118.20260360 0 -203.71970434 0 14205
0.11550000 0.11549300 14910.21404729 0 193.86533525 0 4577.37658630 0 87.93895034 0 -542.18849449 0 14776
0.11650000 0.11649800 14446.39436063 0 405.10979153 0 4738.75572053 0 -316.91872435 0 -75.05098570 0 14553
0.11750000 0.11747300 14413.28810942 0 358.54845121 0 4907.32079357 0 -354.19038416 0 -66.76977252 0 14568
0.11850000 0.11849100 14248.42119288 0 13.90661853 0 5009.55156862 0 -284.22547086 0 -82.39536948 0 16015
0.11950000 0.11950300 14195.16331050 0 174.03037257 0 5102.59231407 0 -199.80895921 0 -211.78035681 0 15270
0.12050000 0.12050700 14207.89648404 0 56.57692247 0 5241.25103778 0 480.68394458 0 -500.32514158 0 15999
0.12150000 0.12150000 13776.07581611 0 326.46085388 0 4829.27197593 0 13.60246176 0 -235.39098225 0 15670
0.12250000 0.12250700 13939.72477693 0 286.38568143 0 4846.43407940 0 464.81841035 0 -672.73341856 0 16887
0.12350000 0.12352200 13355.99181249 0 188.72999100 0 4622.05341695 0 603.63768277 0 -580.75672353 0 16407
0.12450000 0.12449800 13560.27620540 0 -45.72382968 0 4506.62443071 0 601.90043500 0 -174.80432807 0 16306
0.12550000 0.12549900 13360.86363541 0 -158.03086321 0 4239.99177675 0 322.33973459 0 65.16550338 0 17523
0.12650000 0.12650100 13678.75008096 0 -30.25645625 0 4324.52897674 0 417.08893976 0 304.56754602 0 17154
0.12750000 0.12750600 13605.78346040 0 140.68606638 0 4360.34794753 0 136.16745062 0 766.82714211 0 18007
0.12850000 0.12850300 13447.44921549 0 276.78819028 0 4662.69992135 0 193.05262661 0 1167.35520563 0 17496
0.12950000 0.12949900 13300.40874190 0 271.30185333 0 4420.06099528 0 298.26628596 0 1526.24246998 0 18405
0.13050000 0.13049000 13268.29899993 0 48.00351064 0 4042.73831011 0 835.52538144 0 1510.69692593 0 18100
0.13150000 0.13148800 13132.22012791 0 -56.57625813 0 3589.19374089 0 571.46039961 0 694.52928997 0 19059
0.13250000 0.13249300 13016.73578005 0 52.81864325 0 3502.28706339 0 856.34578103 0 602.82054519 0 18957
0.13350000 0.13349100 12711.47178480 0 287.07216557 0 2551.44009726 0 12.42314845 0 -19.85810384 0 19468
0.13450000 0.13450700 12492.01830689 0 411.11099159 0 2664.86499270 0 -173.95175906 0 51.08715310 0 19953
0.13550000 0.13551000 12204.24858486 0 417.07011680 0 2379.70833932 0 -464.03559699 0 6.37321909 0 19956
0.13650000 0.13649900 11876.28632373 0 279.88844123 0 2815.95793718 0 -300.79188326 0 -92.16414950 0 19723
0.13750000 0.13749600 11576.33704439 0 207.15323226 0 3237.04952236 0 -84.77946246 0 -106.55053186 0 20946
0.13850000 0.13851100 11547.54899986 0 270.01303472 0 3307.31449565 0 -41.29036010 0 -282.56905107 0 20955
0.13950000 0.13949800 11379.24966262 0 172.46917477 0 3499.25324639 0 79.53749172 0 16.48303779 0 20506
0.14050000 0.14048300 11210.72887888 0 266.72566149 0 3636.21790439 0 -42.20382689 0 -35.57947640 0 21447
0.14150000 0.14148400 11081.73629474 0 166.38050335 0 3484.61563298 0 -35.82450695 0 670.44144733 0 21771
0.14250000 0.14249400 11153.92785256 0 -100.44746642 0 3676.23328629 0 252.28956439 0 398.80631702 0 22470
0.14350000 0.14350900 11144.07348347 0 -27.99670547 0 3451.60903269 0 174.65706615 0 412.76741138 0 22519
0.14450000 0.14449900 11078.08242755 0 75.25737384 0 3208.56043060 0 301.29345957 0 182.71439692 0 22218
0.14550000 0.14550500 10981.74212930 0 244.56772506 0 3214.83843877 0 117.79182035 0 276.90002076 0 23559
0.14650000 0.14650700 10797.44328270 0 165.93207420 0 2966.49726541 0 170.07755261 0 557.04312546 0 23044
0.14750000 0.14750500 10728.15267398 0 46.17668776 0 3017.35245330 0 390.02153450 0 438.24593802 0 23649
0.14850000 0.14849900 10675.35982925 0 49.29709034 0 3030.05240987 0 178.18360161 0 441.83337126 0 23640
0.14950000 0.14949500 10416.35600709 0 283.61095683 0 2842.97440973 0 282.30220804 0 492.97201067 0 24457
0.15050000 0.15050000 10308.26797221 0 345.69126763 0 2974.15931419 0 180.85203189 0 959.72254170 0 24591
0.15150000 0.15149900 10091.32791204 0 235.74861834 0 2810.45499174 0 -104.97117544 0 991.01625334 0 25020
0.15250000 0.15250500 9910.97081307 0 139.50797102 0 3110.76965780 0 226.83982579 0 1350.55789208 0 25297
0.15350000 0.15350100 9911.10368097 0 82.67727087 0 3097.07319200 0 -85.44169820 0 1155.59639667 0 25452
0.15450000 0.15450400 9839.49895636 0 70.76721395 0 3226.56403075 0 -42.72522267 0 1331.24775760 0 26061
0.15550000 0.15549900 9850.19482214 0 26.69969334 0 3259.36025686 0 -148.60831479 0 961.41550017 0 26128
0.15650000 0.15649500 9853.72689376 0 89.50712371 0 3172.70824283 0 56.47516780 0 1130.18541121 0 26331
0.15750000 0.15749700 9786.82790720 0 78.44398892 0 3306.70551779 0 -137.55592015 0 832.50595846 0 27345
0.15850000 0.15849900 9809.12756939 0 262.20372403 0 3384.12321292 0 59.37921715 0 553.38482934 0 26980
0.15950000 0.15949700 9489.15952678 0 274.35227882 0 3305.76437018 0 -228.36116322 0 650.17687844 0 27777
0.16050000 0.16050000 9315.78906477 0 238.91419601 0 3376.64939367 0 74.44400086 0 578.97740093 0 28224
0.16150000 0.16150500 9062.99681683 0 185.03183451 0 3381.28869777 0 140.19888409 0 456.71125412 0 28075
0.16250000 0.16249700 8922.82118463 0 130.91141803 0 3182.54046727 0 367.71744339 0 332.71893187 0 28590
0.16350000 0.16349900 8855.90005342 0 15.81781251 0 3009.04820969 0 249.28896436 0 458.18608779 0 29163
0.16450000 0.16449100 8832.27171226 0 -0.52874226 0 2690.87388370 0 491.85813479 0 576.49609294 0 28996
0.16550000 0.16550500 8827.18951517 0 29.33800690 0 2656.14000075 0 152.46148382 0 537.83042744 0 30777
0.16650000 0.16650700 8759.22758543 0 155.70346053 0 2452.86318940 0 185.20456278 0 361.34864215 0 29211
0.16750000 0.16749900 8609.65154946 0 236.39413488 0 2502.88795293 0 -226.96383583 0 510.45964049 0 30922
0.16850000 0.16850800 8456.89775626 0 150.23594653 0 2517.22661357 0 -246.08020463 0 343.52219920 0 30867
0.16950000 0.16949900 8321.13998166 0 95.33681345 0 2600.37977296 0 -28.14695692 0 134.91295622 0 30852
0.17050000 0.17049200 8324.66098095 0 59.77173107 0 2669.70359865 0 -120.32406104 0 106.86144274 0 31257
0.17150000 0.17149500 8280.70385142 0 106.16388627 0 2652.26468706 0 -113.54004762 0 -197.66978606 0 32608
0.17250000 0.17250900 8221.85444501 0 119.85902339 0 2469.17272386 0 138.90010038 0 -148.34590069 0 32361
0.17350000 0.17350400 8053.67690334 0 35.64779265 0 2397.51263763 0 331.41904094 0 -166.01733110 0 32508
0.17450000 0.17449800 8120.33229875 0 -22.89900713 0 2233.24362662 0 494.71147290 0 207.61051928 0 32791
0.17550000 0.17549800 8172.87048001 0 10.40299171 0 2071.85342007 0 545.00086499 0 252.42021782 0 33633
0.17650000 0.17650100 8088.64330512 0 53.09091172 0 2011.04421216 0 242.24475131 0 277.10153707 0 33984
0.17750000 0.17750300 8061.33895211 0 169.40878419 0 2234.97090929 0 -73.73946883 0 550.87805500 0 34069
