### header ###
fiducial parameters:
Omega_m = 0.31
Omega_nu = 0
Omega_de = 0.69
Omega_k = 0
H_0 = 100
w_de = -1
zeff = 0
beta = 0
fgrowth = 0
b_1 = 2
gamma = 0.55
Lx = 3500 Ly = 3500 Lz = 3500
nx = 700 ny = 700 nz = 700
xoffset = -685.467585 yoffset = -31.7331281 zoffset = 572.489161
bins = 400 dk = 0.001
kx_ny = 0.628318531 ky_ny = 0.628318531 kz_ny = 0.628318531
############################
A(data) = 7.95269009 (not used)
A(ran) = 7.94518584 (used)
Ngal = 471265
weighted Ngal = 0
Nran = 23820508
weighted Nran = 0
SN(data) = 3496.52444
SN(ran) = 69.2054501
SN(data+ran) = 3565.72989
############################
13 columns: k_central k_mean P_0(k) sigma^{lin}_{P_0(k)} P^img_1(k) sigma^{lin}_{P_1(k)} P_2(k) sigma^{lin}_{P_2(k)} P^img_3(k) sigma^{lin}_{P_3(k)} P_4(k) sigma^{lin}_{P_4(k)} N_modes
### header ###
0.00050000 0 0 0 0 0 0 0 0 0 0 0 0
0.00150000 0.00179520 88707.25896356 0 -104044.53257910 0 4877.71339701 0 -25629.88532046 0 -79752.73771298 0 3
0.00250000 0.00253879 129161.99070695 0 -64623.62380403 0 24356.23579657 0 -71443.73299932 0 50817.76343416 0 6
0.00350000 0.00331552 128751.20745618 0 28259.67318813 0 36094.45022981 0 -83522.19997424 0 12476.73849864 0 7
0.00450000 0.00420575 103523.46897314 0 78133.52093150 0 30545.77609344 0 -62518.66413276 0 92282.62337075 0 24
0.00550000 0.00557378 47534.81912543 0 10423.54194590 0 32929.86907339 0 6607.66449900 0 31399.34161371 0 45
0.00650000 0.00659388 55447.32388733 0 -28096.02422732 0 70736.21144341 0 -783.44005826 0 17736.31423400 0 40
0.00750000 0.00754703 94037.36540801 0 -39223.48922356 0 52718.66015902 0 69581.25724158 0 -23814.57766644 0 57
0.00850000 0.00846663 93692.01959692 0 -3105.79818396 0 64835.76954755 0 23532.12266032 0 23226.41577207 0 75
0.00950000 0.00948925 102634.13984370 0 15658.26031203 0 19024.13633365 0 14912.09634250 0 17116.48549065 0 112
0.01050000 0.01054430 90943.97930018 0 10387.94442161 0 16367.88560966 0 11173.85803723 0 40324.52120352 0 105
0.01150000 0.01145670 86932.03312539 0 -1116.09034172 0 27161.07711963 0 17110.50643525 0 15492.17543975 0 144
0.01250000 0.01249090 84452.93959849 0 -2520.80297449 0 23164.85364608 0 7590.92015987 0 28441.48076166 0 169
0.01350000 0.01339930 86400.11864110 0 6231.11687657 0 32132.99385619 0 23829.19313520 0 -10331.34269713 0 180
0.01450000 0.01448870 78389.84525105 0 9618.31819579 0 23322.96644449 0 3959.46335515 0 39596.84801644 0 267
0.01550000 0.01550050 66289.34434975 0 5300.42154161 0 20054.08398828 0 9395.05583814 0 22396.76647341 0 238
0.01650000 0.01653350 66754.60343863 0 6885.12588663 0 21606.75609760 0 1439.87833639 0 37912.08307204 0 315
0.01750000 0.01747870 67667.95951292 0 -3514.66592253 0 33244.98743773 0 11131.34030993 0 28959.77628642 0 297
0.01850000 0.01844180 67867.48280615 0 -2412.43813149 0 27759.09338308 0 8155.05510938 0 26893.34830551 0 388
0.01950000 0.01947590 72315.45713229 0 618.60192976 0 29088.43670081 0 -5850.40606000 0 29244.11358776 0 399
0.02050000 0.02045430 73717.98851707 0 4019.65251286 0 33214.87071422 0 532.55889359 0 12719.55458192 0 462
0.02150000 0.02154770 71137.69394134 0 3622.83146369 0 36210.15602416 0 -7956.11864936 0 6007.74379567 0 571
0.02250000 0.02255340 64691.05426217 0 3630.63745268 0 36544.76168018 0 -1327.69354133 0 4815.15476178 0 510
0.02350000 0.02348930 67584.69563028 0 2417.02207396 0 41784.18578437 0 -712.56389263 0 -3108.13444449 0 555
0.02450000 0.02439640 69127.07047752 0 -6479.13695250 0 34018.27860306 0 10164.10630307 0 -14494.11608060 0 592
0.02550000 0.02547300 73215.52641680 0 -4753.31582767 0 30696.35971097 0 6126.73807050 0 -22175.65214678 0 837
0.02650000 0.02652900 76794.65541443 0 -249.72189226 0 22824.49038116 0 4411.00383358 0 -6221.31786910 0 723
0.02750000 0.02749970 73889.49882851 0 3926.44568254 0 19284.55741339 0 4577.97449184 0 -6958.17001346 0 826
0.02850000 0.02848090 74640.09172797 0 1841.46048524 0 16793.50577569 0 4738.65606961 0 4677.68077683 0 831
0.02950000 0.02946900 68603.34951360 0 1562.82543118 0 15305.49604331 0 13629.92112851 0 5281.18891340 0 996
0.03050000 0.03053250 65488.59381886 0 2832.94288345 0 12909.11278281 0 13247.59375252 0 -1034.17063932 0 1041
0.03150000 0.03150510 64458.97833398 0 -531.47934192 0 12824.96311419 0 5943.26964826 0 12565.31709719 0 1036
0.03250000 0.03246190 62935.64788543 0 3268.07417650 0 15508.67320373 0 -5947.18925124 0 6052.71957909 0 1059
0.03350000 0.03345080 60202.77667369 0 3833.47137104 0 15973.37867637 0 -7746.25380475 0 9888.89259738 0 1302
0.03450000 0.03451200 56800.02981042 0 5006.84992137 0 24636.03344474 0 -8318.33868348 0 5081.18951020 0 1339
0.03550000 0.03553350 53873.39291436 0 5487.80956684 0 24487.22139917 0 -4448.88225678 0 4813.30568354 0 1365
0.03650000 0.03647120 52333.34325533 0 1970.12089963 0 25884.43806804 0 -3166.39701769 0 -855.54193025 0 1308
0.03750000 0.03744890 49486.53782121 0 -94.03991204 0 24527.08176852 0 1860.00662931 0 1630.04551515 0 1579
0.03850000 0.03847530 52672.59928778 0 -499.33306128 0 26155.48857960 0 4056.36834196 0 -3688.55678381 0 1662
0.03950000 0.03950240 53282.46293879 0 161.97371807 0 24551.88377611 0 4247.80883808 0 412.74969566 0 1683
0.04050000 0.04050350 51267.52126829 0 1110.94171068 0 20159.04962756 0 1837.04262764 0 338.37688985 0 1822
0.04150000 0.04152450 50799.38337496 0 199.80231582 0 21715.81849707 0 6568.65669866 0 1819.53728210 0 1887
0.04250000 0.04250150 51281.25095106 0 632.98820139 0 18733.93070016 0 6274.87470425 0 1269.99565670 0 1920
0.04350000 0.04349210 47232.76610437 0 2974.98973855 0 17946.90985205 0 3504.20257558 0 1117.20864653 0 2005
0.04450000 0.04448520 45784.39529485 0 3330.15670176 0 16835.02699376 0 1698.80465228 0 1193.44160290 0 2151
0.04550000 0.04548030 42311.56061548 0 1564.30912270 0 14047.56922066 0 1015.40194152 0 6061.89853636 0 2274
0.04650000 0.04648670 41831.68605784 0 813.09395859 0 12306.00324994 0 2236.11135875 0 101.87634993 0 2311
0.04750000 0.04749250 42344.66686669 0 659.33258384 0 14994.14226941 0 -1703.84256007 0 1574.49566154 0 2568
0.04850000 0.04851840 41855.82372594 0 848.32720340 0 12877.33521058 0 114.46015781 0 596.96882153 0 2493
0.04950000 0.04949480 40370.02845853 0 826.11058365 0 13672.10668606 0 787.92767151 0 1590.34015835 0 2644
0.05050000 0.05050630 39656.08495422 0 912.17133553 0 15673.20795054 0 801.06941384 0 -905.74717267 0 2829
0.05150000 0.05149060 38519.84298133 0 2082.71537071 0 18119.30594947 0 -909.50733418 0 2260.63655822 0 2784
0.05250000 0.05249300 37586.44599912 0 2585.35462818 0 19427.16895705 0 -1517.83857544 0 3525.09605251 0 3055
0.05350000 0.05348950 35429.44640120 0 1215.68590346 0 21168.51348128 0 -525.12161301 0 9815.62702405 0 3009
0.05450000 0.05448610 36795.32839083 0 -791.43870571 0 23469.01040885 0 1791.95612097 0 10146.40165569 0 3336
0.05550000 0.05550870 36864.75186744 0 -556.94458177 0 23494.14458619 0 3448.06588875 0 9702.92182973 0 3349
0.05650000 0.05647670 37901.45364021 0 911.95099627 0 23016.15232377 0 6416.26829218 0 11256.34685713 0 3324
0.05750000 0.05747970 35887.84064869 0 862.74226308 0 21492.48970547 0 3510.08198006 0 11610.88269783 0 3639
0.05850000 0.05849280 35827.82864818 0 1502.27088674 0 18469.30213699 0 4277.01763095 0 13378.80080162 0 3846
0.05950000 0.05951020 33585.90431890 0 434.95967201 0 14985.39513280 0 2334.85435148 0 10249.67322927 0 3787
0.06050000 0.06049470 33050.55741391 0 575.44532931 0 13695.02639844 0 2309.02261768 0 8151.58947171 0 3930
0.06150000 0.06148310 32794.23309436 0 502.84630994 0 11333.63168437 0 -2304.10650546 0 2781.10225865 0 4083
0.06250000 0.06249100 31373.32165039 0 1307.25402971 0 9908.86707135 0 15.74528879 0 107.59166256 0 4303
0.06350000 0.06350600 30776.08044967 0 134.12128499 0 10564.61443641 0 -2421.60601644 0 -896.89595621 0 4470
0.06450000 0.06451750 30933.08601560 0 -490.07549050 0 10234.50414427 0 -390.51978912 0 -2935.06293525 0 4479
0.06550000 0.06550280 31361.69570933 0 80.42903531 0 11815.49926047 0 1503.51098712 0 -5446.50979527 0 4636
0.06650000 0.06648880 30739.76322426 0 1270.23924784 0 11664.80491969 0 -61.38275433 0 -3885.51129768 0 4653
0.06750000 0.06749660 30104.43322617 0 1113.11188634 0 11075.86796259 0 1120.46391002 0 -3448.87416846 0 5220
0.06850000 0.06852730 28927.44509795 0 538.79482693 0 11132.77971216 0 861.44347938 0 -1021.25809411 0 5029
0.06950000 0.06949320 28720.39262384 0 315.77052427 0 10627.57167533 0 809.03705878 0 -3067.04504709 0 5040
0.07050000 0.07048030 28303.29814792 0 691.92065024 0 10809.24638096 0 -0.97140384 0 -2109.70969862 0 5475
0.07150000 0.07148790 28152.27163739 0 -238.15906345 0 9094.13219422 0 2407.69917646 0 581.76762678 0 5509
0.07250000 0.07249820 28152.27163739 0 -473.19905301 0 10519.48364045 0 1853.40752372 0 717.56747622 0 5916
0.07350000 0.07351270 28792.69490490 0 -65.39824365 0 7836.64826457 0 1559.91340975 0 -111.99324384 0 5721
0.07450000 0.07449140 28839.42011564 0 334.03432406 0 9874.81967254 0 651.58638539 0 524.69089958 0 6028
0.07550000 0.07549160 27844.90390043 0 1335.04556501 0 9040.80787790 0 -1382.02543921 0 761.21236619 0 6183
0.07650000 0.07648840 27056.33292684 0 1360.67799696 0 10414.13046980 0 -1029.22573905 0 357.99594220 0 6330
0.07750000 0.07749960 25373.11810791 0 798.35005086 0 10522.78319325 0 -1612.49588031 0 -224.45816872 0 6583
0.07850000 0.07848650 25577.95611706 0 669.18806016 0 10920.77790885 0 417.73113460 0 460.46587947 0 6549
0.07950000 0.07947320 24882.39267195 0 194.16760972 0 10440.64868774 0 1101.67528204 0 -707.79504233 0 6828
0.08050000 0.08048110 24844.41459782 0 152.26218198 0 9813.98831998 0 1665.98628151 0 590.35200022 0 7147
0.08150000 0.08149960 24405.50764201 0 245.35828905 0 9121.04901586 0 980.12108571 0 -410.78989417 0 7386
0.08250000 0.08250610 24724.39059679 0 132.03636623 0 9477.24570527 0 1948.37485369 0 995.16505345 0 7227
0.08350000 0.08350160 23901.05252327 0 389.80783864 0 8465.35701242 0 1845.66796867 0 1060.93909180 0 7798
0.08450000 0.08449610 23656.35414478 0 696.16910127 0 8101.29897238 0 535.78426181 0 1083.31958195 0 7371
0.08550000 0.08548940 23188.88059094 0 230.55791247 0 8002.06879736 0 65.80670171 0 1520.05304040 0 8256
0.08650000 0.08650700 23071.84611761 0 88.05144516 0 7003.71048544 0 123.95689081 0 902.25385419 0 8037
0.08750000 0.08749060 22840.76669864 0 -87.01053591 0 7200.01173215 0 345.00478349 0 1772.12558722 0 8155
0.08850000 0.08849210 23000.65106902 0 172.21451130 0 7473.98533746 0 -274.04336096 0 -885.76826977 0 8718
0.08950000 0.08949900 22366.42830341 0 946.28295384 0 7510.43543076 0 192.19230697 0 75.52665278 0 8571
0.09050000 0.09049190 21337.80932776 0 1490.08025712 0 7538.33768930 0 -17.11615332 0 257.48912812 0 8932
0.09150000 0.09150830 20529.08672300 0 1119.24595429 0 7509.22854736 0 131.80938357 0 1337.06072813 0 9285
0.09250000 0.09250820 19474.66923052 0 442.94503267 0 8114.45289427 0 831.60799292 0 1947.19011493 0 9204
0.09350000 0.09350330 19573.43436791 0 82.40500240 0 7359.56393278 0 1296.56923626 0 1387.11870863 0 9349
0.09450000 0.09448040 19160.54737542 0 439.86249744 0 7318.70705420 0 368.91436170 0 1663.52822540 0 9564
0.09550000 0.09549270 18555.88771707 0 637.42931088 0 6752.54586925 0 89.42319549 0 908.91828650 0 10155
0.09650000 0.09649430 18281.18333832 0 379.08207758 0 7015.44714974 0 450.01471207 0 1288.54180077 0 9913
0.09750000 0.09749140 17792.89381382 0 243.24015331 0 5530.46016204 0 248.79956760 0 434.01520271 0 10476
0.09850000 0.09850240 17803.52324565 0 -342.30313623 0 5407.41341633 0 365.42879385 0 236.87467378 0 10575
0.09950000 0.09950330 18220.17482857 0 -181.80203736 0 5457.73713263 0 537.49161430 0 -94.27431316 0 10882
0.10050000 0.10051200 18159.16631882 0 281.30459158 0 5016.01780632 0 83.42564930 0 -35.64015274 0 10875
0.10150000 0.10150300 17702.54364330 0 474.77464483 0 5274.49015688 0 -539.78137107 0 -257.78475920 0 11118
0.10250000 0.10250800 17484.08667463 0 600.85188584 0 5344.57797299 0 -306.71668427 0 -178.47812545 0 11575
0.10350000 0.10349800 17031.78220579 0 291.80669167 0 5709.00139974 0 351.24625299 0 50.57494735 0 11364
0.10450000 0.10450100 16783.54068335 0 125.22910093 0 5807.37900576 0 215.78853839 0 -246.84751674 0 12093
0.10550000 0.10551000 16639.37901421 0 400.76944021 0 5791.62308754 0 804.81407409 0 -121.18659514 0 12067
0.10650000 0.10649700 16519.79790617 0 213.95717587 0 5286.35968909 0 420.81256259 0 21.40368966 0 12054
0.10750000 0.10749900 16119.75481047 0 288.44513385 0 5119.87621312 0 253.66142543 0 456.91941383 0 12807
0.10850000 0.10850100 16288.38631746 0 146.34845329 0 5524.06035830 0 -85.29100386 0 -11.89455566 0 12736
0.10950000 0.10950300 16028.51885397 0 -5.90344250 0 5614.54339671 0 -341.43838767 0 302.90669730 0 12933
0.11050000 0.11050200 15956.99163564 0 273.25058250 0 5676.76986220 0 -293.61812401 0 336.48905847 0 13428
0.11150000 0.11150900 15701.55310207 0 424.77866934 0 6034.71597893 0 332.37015364 0 188.29041970 0 13453
0.11250000 0.11250000 15476.56346176 0 114.82775900 0 5313.55331884 0 463.63588606 0 504.13069962 0 13668
0.11350000 0.11349100 15160.22714169 0 248.94904399 0 5446.70909711 0 692.00922884 0 -30.38578100 0 13791
0.11450000 0.11448600 15024.14826967 0 247.94921306 0 5554.42067295 0 222.84714546 0 409.63726515 0 14205
0.11550000 0.11549300 14841.67635666 0 256.80485845 0 5001.33590361 0 480.70276754 0 562.91920824 0 14776
0.11650000 0.11649800 14758.85536701 0 215.01236842 0 5343.38216191 0 -85.11550752 0 733.92905060 0 14553
0.11750000 0.11747300 14794.72969943 0 -149.08553199 0 4692.68377696 0 170.87586723 0 617.16142030 0 14568
0.11850000 0.11849100 14753.31920461 0 59.13352227 0 5066.47439052 0 483.89381155 0 583.89683485 0 16015
0.11950000 0.11950300 14855.84893243 0 67.79584486 0 4600.76133632 0 67.29570795 0 -207.74006548 0 15270
0.12050000 0.12050700 14405.98037504 0 173.63841227 0 4495.99499889 0 355.32197576 0 -527.50548454 0 15999
0.12150000 0.12150000 14356.26563661 0 170.36986198 0 3731.91600780 0 297.47240028 0 -261.46077104 0 15670
0.12250000 0.12250700 14271.78379824 0 -53.46094881 0 3556.23142990 0 290.40382811 0 -1015.46283930 0 16887
0.12350000 0.12352200 14183.98026243 0 -4.34834555 0 3577.46814890 0 146.30748569 0 -782.27857139 0 16407
0.12450000 0.12449800 13997.41158924 0 400.60999873 0 3719.68108888 0 411.80190466 0 -730.50548777 0 16306
0.12550000 0.12549900 13749.39151330 0 335.22681344 0 3273.37782009 0 447.41382297 0 163.25810775 0 17523
0.12650000 0.12650100 13504.91458130 0 39.00137839 0 2979.99442937 0 547.57960944 0 -46.20968329 0 17154
0.12750000 0.12750600 13446.78487601 0 154.16551461 0 3235.33331201 0 619.13340135 0 390.81542019 0 18007
0.12850000 0.12850300 13594.71113558 0 238.52334294 0 3282.46819876 0 -89.81692736 0 574.98029167 0 17496
0.12950000 0.12949900 13094.13133053 0 372.79188985 0 3312.57384994 0 -500.09151553 0 499.27991412 0 18405
0.13050000 0.13049000 12879.99256854 0 334.84924717 0 3437.22608275 0 -242.31339973 0 662.14052541 0 18100
0.13150000 0.13148800 12753.65734236 0 65.45504467 0 3697.93504293 0 -246.65042936 0 -7.20063178 0 19059
0.13250000 0.13249300 12639.61239673 0 313.63024388 0 3370.92500174 0 257.13481373 0 164.90013352 0 18957
0.13350000 0.13349100 12460.79435090 0 215.37886237 0 3555.01347417 0 21.68636611 0 195.78306191 0 19468
0.13450000 0.13450700 12332.02321326 0 128.52976096 0 3463.31248002 0 466.78153354 0 343.27860805 0 19953
0.13550000 0.13551000 12104.59766149 0 136.85614922 0 3025.71205854 0 391.48418861 0 327.10083426 0 19956
0.13650000 0.13649900 12023.43752057 0 152.84347903 0 3092.05742886 0 456.06905928 0 -160.37265991 0 19723
0.13750000 0.13749600 11904.18858227 0 206.51103743 0 2997.25618376 0 -13.48177342 0 439.64105095 0 20946
0.13850000 0.13851100 11736.22141477 0 109.96169369 0 2551.51760353 0 132.44050609 0 171.26007690 0 20955
0.13950000 0.13949800 11502.37391460 0 118.06862847 0 2772.51013459 0 153.77023262 0 1063.60087868 0 20506
0.14050000 0.14048300 11626.27322932 0 133.87215768 0 2377.07312602 0 23.16263918 0 -209.71536823 0 21447
0.14150000 0.14148400 11423.98185489 0 64.55298237 0 2730.08098588 0 238.11809585 0 230.75610708 0 21771
0.14250000 0.14249400 11351.67957382 0 253.92494676 0 2599.90366299 0 -108.66080624 0 113.42046651 0 22470
0.14350000 0.14350900 11274.06257684 0 191.80366837 0 2719.68407288 0 -180.95943344 0 292.20750982 0 22519
0.14450000 0.14449900 11090.04053836 0 339.03347871 0 2885.93503003 0 -405.45303360 0 586.54865664 0 22218
0.14550000 0.14550500 10995.09535304 0 152.93870102 0 3343.49885316 0 -239.29951291 0 572.44805098 0 23559
0.14650000 0.14650700 10744.39577449 0 27.79186746 0 3179.70595212 0 226.42572084 0 841.53433212 0 23044
0.14750000 0.14750500 10889.49859124 0 74.72235910 0 3069.52524785 0 456.84522925 0 465.26462504 0 23649
0.14850000 0.14849900 10668.98217015 0 25.98442116 0 3033.07515455 0 537.18601813 0 456.74779279 0 23640
0.14950000 0.14949500 10630.80479418 0 275.47611979 0 2896.21014746 0 540.27076783 0 429.08912539 0 24457
0.15050000 0.15050000 10155.66919156 0 294.56037885 0 2423.26686516 0 219.48115872 0 659.40012502 0 24591
0.15150000 0.15149900 10114.87874693 0 196.23038383 0 2467.55616443 0 384.70017520 0 776.93838913 0 25020
0.15250000 0.15250500 9908.45739533 0 107.24598458 0 2513.89384380 0 39.10047569 0 913.15677244 0 25297
0.15350000 0.15350100 9786.30750794 0 216.85591050 0 2336.86951460 0 -60.99245488 0 586.62616291 0 25452
0.15450000 0.15450400 9701.77030794 0 84.24112602 0 2303.96256524 0 -357.43125363 0 677.43915661 0 26061
0.15550000 0.15549900 9520.30597649 0 191.47924925 0 2371.44838501 0 68.69547126 0 478.62006324 0 26128
0.15650000 0.15649500 9469.83831997 0 263.51358006 0 2342.89285930 0 -185.66627872 0 209.42970225 0 26331
0.15750000 0.15749700 9221.20926617 0 89.07818184 0 2123.77155114 0 299.66472059 0 196.42304228 0 27345
0.15850000 0.15849900 9127.64812145 0 -35.00061526 0 2036.76522271 0 212.54434722 0 -288.93231614 0 26980
0.15950000 0.15949700 9187.94800241 0 23.57353316 0 1971.26134909 0 79.62717755 0 -558.88002415 0 27777
0.16050000 0.16050000 9033.92089186 0 179.30744258 0 1978.11511815 0 18.77600553 0 -546.46462633 0 28224
0.16150000 0.16150500 8986.07737632 0 140.26531804 0 1702.23707297 0 -120.12254473 0 -377.71464547 0 28075
0.16250000 0.16249700 8989.65373723 0 52.08288727 0 1786.92928551 0 -2.84069351 0 -260.72999760 0 28590
0.16350000 0.16349900 8851.69256999 0 168.14653916 0 2176.60868517 0 -49.58873538 0 -360.72527027 0 29163
0.16450000 0.16449100 8823.61315425 0 224.61539574 0 2124.43589063 0 90.29270515 0 -47.67687705 0 28996
0.16550000 0.16550500 8595.95508366 0 249.88133374 0 2457.45820420 0 -116.00806882 0 308.13947801 0 30777
0.16650000 0.16650700 8530.27405283 0 221.60150892 0 2587.77946731 0 -54.25538812 0 735.80138073 0 29211
0.16750000 0.16749900 8269.57616498 0 100.17220842 0 2831.66956610 0 105.33434770 0 633.79648111 0 30922
0.16850000 0.16850800 8373.10240203 0 13.06434678 0 2672.08414848 0 199.42253508 0 593.46110902 0 30867
0.16950000 0.16949900 8255.48109548 0 -27.38296651 0 2598.69677959 0 25.48550220 0 345.62704814 0 30852
0.17050000 0.17049200 8257.69556045 0 82.44231613 0 2692.87797449 0 -35.53773374 0 405.87488918 0 31257
0.17150000 0.17149500 8254.34064603 0 116.95696706 0 2436.47614867 0 -91.91690448 0 99.50853327 0 32608
0.17250000 0.17250900 8254.46244160 0 -5.47081355 0 2393.36051582 0 18.78464195 0 327.71756275 0 32361
0.17350000 0.17350400 8217.19299626 0 -6.05304068 0 2055.45530701 0 292.91835308 0 47.26321500 0 32508
0.17450000 0.17449800 8208.64516150 0 -26.67555568 0 2178.66813759 0 234.09662748 0 209.25365228 0 32791
0.17550000 0.17549800 8306.31413873 0 -15.41887665 0 1830.05599068 0 434.74265445 0 37.81730397 0 33633
0.17650000 0.17650100 8151.65590566 0 126.99735120 0 1852.88712445 0 48.17978205 0 358.85736907 0 33984
0.17750000 0.17750300 8071.16010423 0 184.78270720 0 1716.48715501 0 187.52532206 0 510.74973540 0 34069
0.17850000 0.17849800 8020.19419309 0 60.77754106 0 1746.86961431 0 249.47830112 0 406.25799162 0 34536
