### header ###
fiducial parameters:
Omega_m = 0.31
Omega_nu = 0
Omega_de = 0.69
Omega_k = 0
H_0 = 100
w_de = -1
zeff = 0
beta = 0
fgrowth = 0
b_1 = 2
gamma = 0.55
Lx = 3500 Ly = 3500 Lz = 3500
nx = 700 ny = 700 nz = 700
xoffset = -685.467585 yoffset = -31.7331281 zoffset = 572.489161
bins = 400 dk = 0.001
kx_ny = 0.628318531 ky_ny = 0.628318531 kz_ny = 0.628318531
############################
A(data) = 8.06910662 (not used)
A(ran) = 8.0692658 (used)
Ngal = 479581
weighted Ngal = 0
Nran = 23820508
weighted Nran = 0
SN(data) = 3487.37608
SN(ran) = 70.2862316
SN(data+ran) = 3557.66231
############################
13 columns: k_central k_mean P_0(k) sigma^{lin}_{P_0(k)} P^img_1(k) sigma^{lin}_{P_1(k)} P_2(k) sigma^{lin}_{P_2(k)} P^img_3(k) sigma^{lin}_{P_3(k)} P_4(k) sigma^{lin}_{P_4(k)} N_modes
### header ###
0.00050000 0 0 0 0 0 0 0 0 0 0 0 0
0.00150000 0.00179520 14645.47476087 0 -21125.44213774 0 13986.11781792 0 -57828.53806283 0 -13552.30413153 0 3
0.00250000 0.00253879 28443.69522662 0 -17734.32121553 0 9580.40655561 0 -2439.01171105 0 40687.47201108 0 6
0.00350000 0.00331552 48734.94841252 0 -12534.86820394 0 27968.80321515 0 13840.51674656 0 -61350.09097140 0 7
0.00450000 0.00420575 66936.41101215 0 -799.42295914 0 52794.61630728 0 -5361.60720856 0 15038.87446168 0 24
0.00550000 0.00557378 73945.63551534 0 8972.23697029 0 55512.87205025 0 41451.01953057 0 15571.89617845 0 45
0.00650000 0.00659388 70189.34932062 0 -3406.95434670 0 92620.21855447 0 42430.03449104 0 60046.87834024 0 40
0.00750000 0.00754703 85754.04848793 0 -14389.92550406 0 48433.55973096 0 82408.21337424 0 -2304.57154310 0 57
0.00850000 0.00846663 86978.53688963 0 1944.49954000 0 56238.66294212 0 74860.65243836 0 992.38147099 0 75
0.00950000 0.00948925 75475.94152853 0 4562.14106735 0 13250.69400347 0 52316.95621460 0 -2155.30553222 0 112
0.01050000 0.01054430 89295.53158118 0 1092.97575643 0 -12042.92481225 0 9474.17867130 0 -87.56780602 0 105
0.01150000 0.01145670 79560.30070763 0 -3144.73955034 0 -19824.66541804 0 1610.90146554 0 -13685.39347585 0 144
0.01250000 0.01249090 81441.37797107 0 -2131.56646781 0 -19023.02910117 0 -26383.46774762 0 8333.07594781 0 169
0.01350000 0.01339930 76782.14368738 0 6765.33440442 0 -19099.53886567 0 -23769.40258118 0 9278.99572939 0 180
0.01450000 0.01448870 76790.44793100 0 9481.40889940 0 2757.18603704 0 -18414.60485239 0 14812.33469589 0 267
0.01550000 0.01550050 71541.94452046 0 -553.43686927 0 16233.24613987 0 17060.79169681 0 22060.27852217 0 238
0.01650000 0.01653350 77437.18242366 0 -8358.88553696 0 25967.48050418 0 9824.94992155 0 10413.20039452 0 315
0.01750000 0.01747870 81522.09521900 0 -1633.23434470 0 35801.47651511 0 23930.94780028 0 9854.45766719 0 297
0.01850000 0.01844180 85454.98499458 0 5249.36705187 0 30684.95521641 0 -1413.53727565 0 25515.39748183 0 388
0.01950000 0.01947590 76975.46647872 0 14580.70166068 0 41609.90739172 0 -4460.92894618 0 52067.16456669 0 399
0.02050000 0.02045430 73311.08057999 0 7216.54271310 0 40953.87214622 0 13997.19014274 0 40351.09478309 0 462
0.02150000 0.02154770 63462.24765380 0 1664.69081951 0 35085.20782259 0 17317.44818611 0 23120.12145382 0 571
0.02250000 0.02255340 63212.78817564 0 780.53800193 0 33708.47495464 0 7696.79372978 0 10840.71392809 0 510
0.02350000 0.02348930 62076.87837249 0 1457.79335795 0 21378.55548309 0 10221.79311538 0 4184.84052683 0 555
0.02450000 0.02439640 61389.50844775 0 -2271.90818489 0 18897.57966098 0 -7275.14852837 0 2117.77035109 0 592
0.02550000 0.02547300 60519.44516350 0 -1931.60028159 0 19546.97151159 0 -5267.10491623 0 5640.28655192 0 837
0.02650000 0.02652900 68017.40208419 0 -358.63370811 0 15477.00635475 0 -1454.64881770 0 -1845.77869192 0 723
0.02750000 0.02749970 63104.50083891 0 3920.15660204 0 9586.65134681 0 -1014.22163169 0 -5149.97079197 0 826
0.02850000 0.02848090 66179.72833404 0 859.86899479 0 14012.13778125 0 -5678.03210722 0 -8482.71841774 0 831
0.02950000 0.02946900 59208.81407472 0 153.24097549 0 14556.56399258 0 -2734.96388113 0 -11889.68383676 0 996
0.03050000 0.03053250 58552.33593622 0 3764.46864277 0 19094.66704275 0 -1131.53623484 0 -13897.64994262 0 1041
0.03150000 0.03150510 56524.99326193 0 5164.37588656 0 20381.71407967 0 -475.68700439 0 -11947.14920257 0 1036
0.03250000 0.03246190 54245.09085852 0 1106.75969359 0 19608.86580733 0 3281.48276185 0 -9266.40649608 0 1059
0.03350000 0.03345080 50346.41456663 0 2687.43039068 0 19299.61577514 0 4330.14264543 0 -5858.25633830 0 1302
0.03450000 0.03451200 48433.67045420 0 3139.98952300 0 17766.09878776 0 8051.99390997 0 7920.86436714 0 1339
0.03550000 0.03553350 47772.76338578 0 -43.89047413 0 16462.11109387 0 10107.30527675 0 3069.77991132 0 1365
0.03650000 0.03647120 49284.13572352 0 -2009.67124388 0 14702.16506394 0 9642.59980411 0 9105.70277366 0 1308
0.03750000 0.03744890 51460.29044338 0 -2088.65013681 0 15336.60927605 0 3719.85824607 0 10573.63838114 0 1579
0.03850000 0.03847530 51491.51439937 0 -791.02127907 0 12235.69398734 0 -1557.41106434 0 14594.65278995 0 1662
0.03950000 0.03950240 54799.59288544 0 1199.97427455 0 19150.47155983 0 -3181.48859642 0 12934.68985314 0 1683
0.04050000 0.04050350 50827.28563350 0 1689.28245293 0 22266.88810329 0 -5490.13475505 0 13236.96432069 0 1822
0.04150000 0.04152450 51218.47086934 0 4876.01933131 0 25012.82465831 0 -571.07286824 0 8073.81746218 0 1887
0.04250000 0.04250150 45540.36125584 0 2908.33434314 0 24097.91845855 0 -4232.88334422 0 6689.11252036 0 1920
0.04350000 0.04349210 46189.42093671 0 3306.47299897 0 29591.00952433 0 1972.63431737 0 3436.71675581 0 2005
0.04450000 0.04448520 43019.85723413 0 1135.12366808 0 23893.41261915 0 436.61830627 0 5576.98607093 0 2151
0.04550000 0.04548030 42142.04332251 0 618.70933131 0 23537.21592973 0 3715.60647334 0 -849.92383264 0 2274
0.04650000 0.04648670 40988.63924615 0 -659.12774583 0 19578.08474433 0 4086.67329499 0 -5972.86597250 0 2311
0.04750000 0.04749250 40939.14595421 0 694.42742458 0 18622.87528223 0 4812.91815217 0 -6619.40116331 0 2568
0.04850000 0.04851840 39364.32919525 0 1440.39873566 0 11542.89862344 0 2211.37578510 0 -7025.08007234 0 2493
0.04950000 0.04949480 38344.45735621 0 732.35899494 0 12173.02462887 0 3568.11203443 0 -7087.57227361 0 2644
0.05050000 0.05050630 37033.49409768 0 984.26767136 0 9292.17179593 0 2569.64299926 0 -5868.56467270 0 2829
0.05150000 0.05149060 35824.39622748 0 1565.85924818 0 9750.21172903 0 3020.38627030 0 -3032.76512945 0 2784
0.05250000 0.05249300 34901.96084684 0 133.61749421 0 8565.04115276 0 795.96617933 0 -1432.07234739 0 3055
0.05350000 0.05348950 35323.92714568 0 935.74763677 0 10577.10401881 0 -531.70300288 0 1664.13720327 0 3009
0.05450000 0.05448610 35571.28288213 0 293.21841308 0 12952.73774260 0 -1301.56285476 0 2530.61305428 0 3336
0.05550000 0.05550870 33831.15631363 0 901.79988888 0 15545.87621512 0 -945.75369671 0 5824.48574760 0 3349
0.05650000 0.05647670 36326.08326501 0 46.79684868 0 15704.32118328 0 -1398.91073456 0 4853.66430750 0 3324
0.05750000 0.05747970 35082.55046463 0 55.54885711 0 16901.23949617 0 1588.96719007 0 5239.74520160 0 3639
0.05850000 0.05849280 35305.43636323 0 551.47485331 0 15558.83083516 0 -203.20816293 0 2337.55599874 0 3846
0.05950000 0.05951020 34855.56780585 0 1044.97279941 0 15212.37779159 0 2982.62964267 0 3667.68545153 0 3787
0.06050000 0.06049470 33524.01002316 0 734.22468168 0 14429.78587340 0 2136.81474978 0 6463.52497451 0 3930
0.06150000 0.06148310 32137.75495587 0 935.15637463 0 12027.53428075 0 4144.69227704 0 5019.66060118 0 4083
0.06250000 0.06249100 31896.04610507 0 939.30406750 0 11584.41984151 0 3301.43509118 0 6410.46639398 0 4303
0.06350000 0.06350600 31682.01806633 0 -90.43288079 0 10536.39108045 0 3572.79562783 0 6602.93661630 0 4470
0.06450000 0.06451750 31570.85192515 0 -932.90094206 0 9553.13541958 0 1213.63752337 0 6600.31247532 0 4479
0.06550000 0.06550280 31900.69648150 0 -203.26352456 0 9957.15347989 0 -1734.80078026 0 5329.98464888 0 4636
0.06650000 0.06648880 32427.40697312 0 -57.90980893 0 11618.63332520 0 -1097.37257661 0 4949.99353342 0 4653
0.06750000 0.06749660 31938.78527887 0 678.72243906 0 10192.70611808 0 -131.93560807 0 3776.68141704 0 5220
0.06850000 0.06852730 31483.26983584 0 1237.21050291 0 10882.13549524 0 29.67515919 0 3254.78738671 0 5029
0.06950000 0.06949320 30279.15451181 0 1393.00918543 0 8760.65591533 0 1146.00776338 0 -196.33889261 0 5040
0.07050000 0.07048030 29555.79953141 0 1245.28222770 0 10331.24304621 0 240.41560325 0 728.45489321 0 5475
0.07150000 0.07148790 27943.44759131 0 822.34488598 0 9613.90033818 0 -922.34569481 0 -202.75973378 0 5509
0.07250000 0.07249820 27618.25341139 0 1260.29630016 0 10919.46030220 0 -419.67986376 0 439.35427773 0 5916
0.07350000 0.07351270 26958.01068245 0 449.04699088 0 11782.61445576 0 145.56231823 0 2395.82964426 0 5721
0.07450000 0.07449140 27204.92352591 0 -257.38947720 0 12102.71536627 0 189.51280436 0 2598.88500911 0 6028
0.07550000 0.07549160 27479.18501167 0 -109.42025700 0 11864.66038267 0 1616.86944862 0 1928.32287344 0 6183
0.07650000 0.07648840 27245.22678825 0 -121.65052555 0 12174.90692409 0 357.52979732 0 2159.43550938 0 6330
0.07750000 0.07749960 27799.95026166 0 565.14031660 0 10898.71076549 0 777.71345187 0 620.25170616 0 6583
0.07850000 0.07848650 26331.31709772 0 1119.31238824 0 11441.47612810 0 60.19059712 0 1383.37626284 0 6549
0.07950000 0.07947320 25188.87462293 0 1299.70270419 0 9484.16590828 0 -196.38982531 0 640.06673865 0 6828
0.08050000 0.08048110 24559.96657323 0 417.93486537 0 9675.18565606 0 798.91141773 0 -925.04069867 0 7147
0.08150000 0.08149960 24097.36484231 0 26.50172018 0 8744.80034619 0 1496.62400109 0 -1910.49643048 0 7386
0.08250000 0.08250610 23782.57864771 0 178.74053955 0 8194.64974293 0 206.33941639 0 -2892.65593120 0 7227
0.08350000 0.08350160 23578.62642456 0 448.43247685 0 8047.18852100 0 -178.45044464 0 -2848.93132049 0 7798
0.08450000 0.08449610 23467.90317637 0 356.93189178 0 9164.88434981 0 -230.82475549 0 -1914.89214344 0 7371
0.08550000 0.08548940 23321.30559577 0 989.20924993 0 10039.13297284 0 -132.28770800 0 -1572.70194492 0 8256
0.08650000 0.08650700 22239.65018424 0 1019.49316554 0 9152.66050321 0 229.16279954 0 -797.02247912 0 8037
0.08750000 0.08749060 21450.63631766 0 968.67340908 0 9545.19656268 0 886.52561679 0 1064.89080453 0 8155
0.08850000 0.08849210 20722.85240733 0 168.52631990 0 9273.45956698 0 1315.39218846 0 -148.77550689 0 8718
0.08950000 0.08949900 20409.83778471 0 345.52739722 0 9399.63978062 0 2302.50101836 0 746.50056820 0 8571
0.09050000 0.09049190 19888.66345549 0 685.24957454 0 7995.43647479 0 891.52920038 0 -773.03982356 0 8932
0.09150000 0.09150830 18996.56624486 0 687.93350607 0 7245.51898715 0 634.77970355 0 294.63013449 0 9285
0.09250000 0.09250820 18813.54071560 0 381.79036823 0 6622.61213750 0 -89.95145610 0 -22.40285625 0 9204
0.09350000 0.09350330 18391.35297027 0 25.50576456 0 6939.10347012 0 331.81653740 0 139.04293338 0 9349
0.09450000 0.09448040 18481.03880130 0 162.85950406 0 6311.98913704 0 534.40575737 0 172.94417750 0 9564
0.09550000 0.09549270 18358.80033530 0 -97.66842361 0 5396.62897196 0 1114.32984207 0 -555.61479556 0 10155
0.09650000 0.09649430 18066.60168334 0 -83.25192453 0 4893.03749456 0 885.48924719 0 -52.50297127 0 9913
0.09750000 0.09749140 18454.02232874 0 197.54577602 0 4820.64663489 0 790.55513419 0 -1502.33732069 0 10476
0.09850000 0.09850240 17634.89173866 0 369.69053167 0 4381.08641192 0 53.17140752 0 -139.11268902 0 10575
0.09950000 0.09950330 17377.68163312 0 619.24966076 0 4608.70019321 0 -513.83448509 0 -440.92211893 0 10882
0.10050000 0.10051200 17450.09463743 0 263.65973474 0 5236.83318018 0 -581.42549195 0 739.92139280 0 10875
0.10150000 0.10150300 17015.83805805 0 -8.36103357 0 5483.51350481 0 201.76433178 0 805.37765543 0 11118
0.10250000 0.10250800 17231.52694551 0 191.79591774 0 5903.78573795 0 78.87282006 0 630.52018019 0 11575
0.10350000 0.10349800 16893.15669906 0 500.66727642 0 5993.01760367 0 -188.77538753 0 -14.17789048 0 11364
0.10450000 0.10450100 16643.91866739 0 603.61221642 0 5834.32904436 0 -264.64517165 0 -393.41520206 0 12093
0.10550000 0.10551000 16155.18624989 0 329.14146372 0 5755.61588723 0 -233.57622821 0 330.67608794 0 12067
0.10650000 0.10649700 15850.69731738 0 152.59656619 0 5142.92879339 0 435.08036035 0 -668.84371086 0 12054
0.10750000 0.10749900 15902.18362779 0 121.79668024 0 5287.52228320 0 509.82187458 0 -622.84373740 0 12807
0.10850000 0.10850100 15599.13409750 0 288.37759267 0 5089.91450216 0 90.40841095 0 -1556.97924367 0 12736
0.10950000 0.10950300 15448.77192646 0 457.78416239 0 5612.50608895 0 -236.25130189 0 -1405.76450362 0 12933
0.11050000 0.11050200 14979.41607740 0 553.51216108 0 5709.32249716 0 -1202.57627088 0 -1076.90981312 0 13428
0.11150000 0.11150900 14732.72468044 0 390.25294609 0 6317.83532455 0 -345.44767648 0 -618.18118141 0 13453
0.11250000 0.11250000 14564.31461995 0 -62.62086169 0 6362.14676847 0 553.60738307 0 240.37685012 0 13668
0.11350000 0.11349100 14927.37615075 0 -247.69565682 0 6649.92756283 0 1129.39927615 0 398.84174845 0 13791
0.11450000 0.11448600 14797.05488764 0 -116.16086690 0 5283.32587209 0 1474.40184518 0 292.46881669 0 14205
0.11550000 0.11549300 14862.82449706 0 111.65775240 0 5170.37708661 0 976.08633055 0 245.66056352 0 14776
0.11650000 0.11649800 14800.04441534 0 294.47290748 0 4912.27012277 0 -108.33217964 0 376.12244516 0 14553
0.11750000 0.11747300 14407.64122377 0 416.81766780 0 5575.88991077 0 -492.14601524 0 902.71114121 0 14568
0.11850000 0.11849100 14093.63009191 0 293.31474231 0 5677.23489984 0 -429.19209802 0 795.09700183 0 16015
0.11950000 0.11950300 13938.72826770 0 183.29015782 0 5955.08381884 0 -200.04037080 0 1163.50203659 0 15270
0.12050000 0.12050700 14047.90139041 0 81.08318826 0 5954.24232215 0 574.86735396 0 652.36809152 0 15999
0.12150000 0.12150000 13655.60892208 0 6.30178045 0 5514.52708663 0 496.76428192 0 343.99941640 0 15670
0.12250000 0.12250700 13792.01996385 0 278.43685945 0 5841.92465919 0 222.17726981 0 423.56957147 0 16887
0.12350000 0.12352200 13521.52306853 0 326.95135787 0 5347.36819884 0 62.67334451 0 913.33614411 0 16407
0.12450000 0.12449800 13215.04111755 0 -54.97686081 0 5156.86885034 0 338.71127406 0 530.98551624 0 16306
0.12550000 0.12549900 13398.84170954 0 123.84395310 0 4933.88330081 0 252.98269192 0 949.43745918 0 17523
0.12650000 0.12650100 13400.72400476 0 17.97027246 0 5269.45224909 0 571.99187120 0 452.73739674 0 17154
0.12750000 0.12750600 13264.42368624 0 87.66745694 0 5030.68863670 0 108.98068571 0 663.81023199 0 18007
0.12850000 0.12850300 12976.65396421 0 313.25821377 0 5034.70789061 0 224.65193441 0 782.29960881 0 17496
0.12950000 0.12949900 13085.49491717 0 205.78580015 0 4535.14673944 0 581.87835003 0 625.67271639 0 18405
0.13050000 0.13049000 12695.19546732 0 189.41093898 0 4350.89218214 0 352.22504650 0 799.93450055 0 18100
0.13150000 0.13148800 12443.41080094 0 288.96996205 0 3893.22870808 0 433.97866403 0 299.29601217 0 19059
0.13250000 0.13249300 12305.33891045 0 115.85194904 0 3780.81139420 0 457.89377841 0 85.44236254 0 18957
0.13350000 0.13349100 12353.17135367 0 -124.87478654 0 3215.83494800 0 142.42774307 0 472.81816503 0 19468
0.13450000 0.13450700 12153.31589069 0 -88.98163117 0 3054.12364403 0 396.58963759 0 476.11328890 0 19953
0.13550000 0.13551000 12490.80035116 0 69.10459366 0 3001.08720815 0 155.89279728 0 411.91262790 0 19956
0.13650000 0.13649900 12183.98623044 0 326.91481920 0 3253.11546567 0 -283.59102665 0 -169.18290876 0 19723
0.13750000 0.13749600 11883.81550460 0 513.74479926 0 3492.04516293 0 -490.66010925 0 300.43424716 0 20946
0.13850000 0.13851100 11479.12203248 0 473.39171146 0 3714.83141060 0 -384.91830000 0 242.66992859 0 20955
0.13950000 0.13949800 11318.57332261 0 264.54884243 0 3782.23972410 0 36.39816410 0 151.28449569 0 20506
0.14050000 0.14048300 11193.67749866 0 -85.80974228 0 3671.05143827 0 29.33457448 0 -472.50924717 0 21447
0.14150000 0.14148400 11165.66451687 0 -93.14316446 0 3554.60379815 0 281.12521991 0 -511.34874817 0 21771
0.14250000 0.14249400 11066.25718465 0 229.94007674 0 3572.44131344 0 105.30965641 0 -653.59379788 0 22470
0.14350000 0.14350900 10888.72352850 0 294.14848836 0 3091.16057054 0 159.52230536 0 -473.72166674 0 22519
0.14450000 0.14449900 10719.68234550 0 232.11800303 0 3494.21533859 0 632.70032095 0 140.48122837 0 22218
0.14550000 0.14550500 10444.32469958 0 -10.13638120 0 3082.92276088 0 455.01054503 0 -73.85063497 0 23559
0.14650000 0.14650700 10510.78079314 0 143.75974375 0 3211.60531992 0 483.49077893 0 663.57992764 0 23044
0.14750000 0.14750500 10418.75870158 0 120.12808089 0 3076.60046341 0 248.52054502 0 542.91926793 0 23649
0.14850000 0.14849900 10218.38283933 0 235.80397997 0 2960.82823510 0 -11.23863114 0 1344.46811343 0 23640
0.14950000 0.14949500 10137.53272351 0 78.06487252 0 2884.86101452 0 253.33479185 0 964.85899318 0 24457
0.15050000 0.15050000 9901.51504767 0 242.26135980 0 2806.93399245 0 -97.17581588 0 870.29801754 0 24591
0.15150000 0.15149900 9908.47953998 0 207.51308282 0 2808.47304560 0 91.33173212 0 395.53001610 0 25020
0.15250000 0.15250500 9682.20550999 0 65.97389382 0 2764.38304817 0 -107.85020134 0 462.56629948 0 25297
0.15350000 0.15350100 9667.84470470 0 91.66257318 0 2898.95608402 0 -235.49284764 0 360.04100059 0 25452
0.15450000 0.15450400 9652.54275180 0 61.58404919 0 3057.01352080 0 -19.21945214 0 12.79440350 0 26061
0.15550000 0.15549900 9674.23343612 0 56.24884948 0 3131.54133916 0 21.40014652 0 293.01025337 0 26128
0.15650000 0.15649500 9693.21140086 0 -98.75539374 0 2913.20616606 0 154.63830288 0 318.36144828 0 26331
0.15750000 0.15749700 9654.03751565 0 45.34803497 0 2967.42734070 0 126.81576508 0 363.82552122 0 27345
0.15850000 0.15849900 9620.59909470 0 224.73497684 0 2850.18249319 0 250.12160319 0 27.40223235 0 26980
0.15950000 0.15949700 9489.33668397 0 135.91389438 0 2820.80761545 0 180.02160753 0 155.48422850 0 27777
0.16050000 0.16050000 9286.00451100 0 208.44647980 0 2520.11649035 0 -37.78275832 0 -56.72296643 0 28224
0.16150000 0.16150500 9062.99681683 0 260.65027686 0 2765.58993158 0 -88.78841910 0 -120.44807107 0 28075
0.16250000 0.16249700 8958.99446981 0 254.50292212 0 2501.26032118 0 254.73765541 0 345.32034475 0 28590
0.16350000 0.16349900 8728.55724568 0 25.19607163 0 2308.42471214 0 532.13482355 0 494.30622581 0 29163
0.16450000 0.16449100 8714.70576734 0 26.90298123 0 2166.12319357 0 451.58476773 0 293.21509138 0 28996
0.16550000 0.16550500 8659.89775948 0 216.28790024 0 2254.94538327 0 454.74038030 0 522.40003557 0 30777
0.16650000 0.16650700 8491.11123995 0 191.16368799 0 2035.99015998 0 124.39314041 0 877.55481922 0 29211
0.16750000 0.16749900 8356.51605945 0 -52.03350470 0 2062.97341556 0 -32.00211898 0 1090.61735124 0 30922
0.16850000 0.16850800 8547.01540796 0 -13.90617563 0 2313.15259484 0 -16.49876049 0 951.79918606 0 30867
0.16950000 0.16949900 8484.22425391 0 82.56222941 0 2416.54596399 0 -199.08261470 0 1178.71541089 0 30852
0.17050000 0.17049200 8431.43140918 0 168.86845474 0 2514.72426816 0 -288.41966750 0 1156.90293100 0 31257
0.17150000 0.17149500 8391.12814684 0 147.52654865 0 2694.18450882 0 -182.34347404 0 1186.88678661 0 32608
0.17250000 0.17250900 8279.48589569 0 137.58360096 0 2774.07133239 0 -92.57803300 0 841.16340924 0 32361
0.17350000 0.17350400 8117.86317031 0 87.09125316 0 2743.32348637 0 83.98225507 0 791.15193250 0 32508
0.17450000 0.17449800 8126.07883533 0 45.12780643 0 2649.29730401 0 158.89782624 0 899.66403742 0 32791
0.17550000 0.17549800 8126.42207740 0 -69.94332226 0 2510.31748288 0 279.48208691 0 690.27973170 0 33633
0.17650000 0.17650100 8118.01818286 0 23.58704139 0 2393.09478003 0 123.22390291 0 655.13506550 0 33984
0.17750000 0.17750300 8058.92518530 0 76.51984031 0 2191.88849342 0 138.70854917 0 491.92899767 0 34069
0.17850000 0.17849800 8051.48458302 0 62.07898211 0 2212.74875338 0 94.23854955 0 442.79555629 0 34536
