### header ###
fiducial parameters:
Omega_m = 0.31
Omega_nu = 0
Omega_de = 0.69
Omega_k = 0
H_0 = 100
w_de = -1
zeff = 0
beta = 0
fgrowth = 0
b_1 = 2
gamma = 0.55
Lx = 3500 Ly = 3500 Lz = 3500
nx = 700 ny = 700 nz = 700
xoffset = -685.467585 yoffset = -31.7331281 zoffset = 572.489161
bins = 400 dk = 0.001
kx_ny = 0.628318531 ky_ny = 0.628318531 kz_ny = 0.628318531
############################
A(data) = 8.02618784 (not used)
A(ran) = 8.02177952 (used)
Ngal = 477580
weighted Ngal = 0
Nran = 23820508
weighted Nran = 0
SN(data) = 3490.16916
SN(ran) = 69.8726088
SN(data+ran) = 3560.04177
############################
13 columns: k_central k_mean P_0(k) sigma^{lin}_{P_0(k)} P^img_1(k) sigma^{lin}_{P_1(k)} P_2(k) sigma^{lin}_{P_2(k)} P^img_3(k) sigma^{lin}_{P_3(k)} P_4(k) sigma^{lin}_{P_4(k)} N_modes
### header ###
0.00050000 0 0 0 0 0 0 0 0 0 0 0 0
0.00150000 0.00179520 22232.78534285 0 -34238.72859020 0 12428.79533218 0 -118851.44183583 0 -34076.74047811 0 3
0.00250000 0.00253879 46581.49195854 0 -50317.84796859 0 -30112.73746978 0 -35528.54370833 0 -16211.98727621 0 6
0.00350000 0.00331552 59765.30912010 0 -30324.99393656 0 -3942.35661330 0 6284.71800101 0 24692.28085481 0 7
0.00450000 0.00420575 95460.60204020 0 -28262.77343908 0 -8693.28081881 0 2100.40894577 0 48240.90127911 0 24
0.00550000 0.00557378 113554.44164259 0 -26368.07721612 0 -23856.32033101 0 12945.76217796 0 479.46155992 0 45
0.00650000 0.00659388 135143.26057399 0 3808.08253023 0 -48728.52646413 0 1216.64919572 0 24042.22466471 0 40
0.00750000 0.00754703 133421.51406469 0 -825.56361080 0 -30126.57787581 0 -21943.79766508 0 -11953.12825797 0 57
0.00850000 0.00846663 113263.23949986 0 20406.40536401 0 -35126.95048716 0 -18393.01381899 0 6837.99099988 0 75
0.00950000 0.00948925 86572.73618502 0 27025.66258710 0 -15070.76275716 0 -38763.21268085 0 3963.30545186 0 112
0.01050000 0.01054430 69281.08651574 0 16697.06582652 0 -9.58118162 0 -19044.95230431 0 -5418.99506809 0 105
0.01150000 0.01145670 60673.35047848 0 7500.69178492 0 13181.27052685 0 -35638.60261703 0 -7123.95593297 0 144
0.01250000 0.01249090 56215.52178325 0 -33.62808988 0 9725.01111774 0 376.70263498 0 5955.21668673 0 169
0.01350000 0.01339930 62367.63762223 0 4615.34358811 0 28933.31343010 0 -12460.24073466 0 14202.80321462 0 180
0.01450000 0.01448870 68465.60979285 0 -6431.50381113 0 15634.89770667 0 15333.28757861 0 12506.74449890 0 267
0.01550000 0.01550050 67963.03696933 0 -7599.02510164 0 33735.15925745 0 6494.90394304 0 28419.22538877 0 238
0.01650000 0.01653350 85212.27963456 0 -2306.11059625 0 29685.34573178 0 8791.82450970 0 6524.87672633 0 315
0.01750000 0.01747870 81895.45401188 0 -1838.91385053 0 65412.41622411 0 12331.69104352 0 17638.65632910 0 297
0.01850000 0.01844180 76653.59399624 0 19662.12368970 0 50817.98488065 0 -6795.98259951 0 9528.37770128 0 388
0.01950000 0.01947590 68924.22548684 0 8688.50864682 0 56571.93991916 0 279.07794705 0 26073.99626893 0 399
0.02050000 0.02045430 69906.22997501 0 -9567.92804554 0 55193.43547924 0 -2670.41222744 0 18340.86316909 0 462
0.02150000 0.02154770 78812.03299639 0 -6714.78924162 0 63969.24940725 0 9263.89307834 0 -1568.19550871 0 571
0.02250000 0.02255340 84034.62716685 0 849.49754813 0 62237.53780561 0 4791.94716896 0 2609.42586234 0 510
0.02350000 0.02348930 74799.75465185 0 10378.42222226 0 44272.02644787 0 19197.08604732 0 11445.35144179 0 555
0.02450000 0.02439640 71716.11218986 0 8770.17811468 0 38167.85377535 0 22118.40822747 0 16951.61857410 0 592
0.02550000 0.02547300 67398.90201982 0 -317.38154753 0 29677.04148817 0 20905.87793658 0 13820.69728513 0 837
0.02650000 0.02652900 66521.53100119 0 2097.72944317 0 23857.09539374 0 11340.60724900 0 6788.97381790 0 723
0.02750000 0.02749970 58293.90787495 0 7406.45522839 0 24758.38263398 0 10127.40154630 0 13029.13678385 0 826
0.02850000 0.02848090 59209.03552121 0 2437.00762026 0 17191.99874591 0 -804.62916627 0 14558.55701105 0 831
0.02950000 0.02946900 56542.81970488 0 -1353.09345446 0 18305.76389942 0 -6857.89903990 0 8467.64898366 0 996
0.03050000 0.03053250 57481.64212626 0 -1998.90894416 0 20152.95984891 0 -4032.27496316 0 2808.07444191 0 1041
0.03150000 0.03150510 59976.23690790 0 -846.14484818 0 24294.56294733 0 -40.21457302 0 5430.49921358 0 1036
0.03250000 0.03246190 58494.31695417 0 272.99591903 0 26420.33858926 0 4281.52406715 0 2095.42639960 0 1059
0.03350000 0.03345080 61128.42302853 0 -166.90643878 0 21462.92659821 0 1868.08942643 0 506.79691544 0 1302
0.03450000 0.03451200 58799.35950292 0 2049.02228629 0 25006.84560291 0 4011.38148622 0 -1008.78290574 0 1339
0.03550000 0.03553350 58726.94649861 0 2612.26037749 0 18301.33496949 0 5698.65984836 0 9937.64404356 0 1365
0.03650000 0.03647120 57190.66143002 0 1358.60747222 0 26944.05955318 0 6022.58071093 0 10027.16378972 0 1308
0.03750000 0.03744890 54072.03042160 0 -964.50024986 0 14334.89604971 0 7800.50819636 0 14843.55865188 0 1579
0.03850000 0.03847530 55983.77802479 0 201.33029664 0 16559.10465928 0 9907.91485142 0 8085.38804162 0 1662
0.03950000 0.03950240 55644.85416209 0 1433.78855774 0 14627.64831791 0 1893.54470119 0 10776.77125226 0 1683
0.04050000 0.04050350 52224.72374886 0 4021.57909738 0 13511.44725295 0 1286.33840813 0 13815.05039947 0 1822
0.04150000 0.04152450 47862.11704707 0 4842.54769338 0 19168.51944929 0 -4595.59056063 0 16363.78884948 0 1887
0.04250000 0.04250150 46636.41068964 0 2905.88735935 0 19609.64087006 0 -710.53212103 0 24799.57168231 0 1920
0.04350000 0.04349210 44703.95783904 0 2248.54557952 0 24734.02351938 0 2443.82817235 0 22175.65214678 0 2005
0.04450000 0.04448520 43355.34867613 0 1919.70860473 0 21108.94437376 0 5336.27372937 0 23615.49726620 0 2151
0.04550000 0.04548030 40900.94643358 0 664.28744919 0 22762.37463892 0 3177.11502811 0 16755.97059455 0 2274
0.04650000 0.04648670 41023.29562283 0 2320.05065320 0 21868.61657956 0 3986.65698490 0 14377.85667000 0 2311
0.04750000 0.04749250 37797.15234042 0 1846.12193399 0 19904.93977298 0 -257.98848997 0 11578.10861636 0 2568
0.04850000 0.04851840 37397.21996797 0 1363.18034237 0 17142.61617722 0 316.14809055 0 7749.87445496 0 2493
0.04950000 0.04949480 34399.72019307 0 430.82969486 0 15690.92367025 0 579.96726677 0 5110.23221820 0 2644
0.05050000 0.05050630 34761.67449139 0 1003.92104791 0 13336.39379756 0 728.46596554 0 -3670.08814601 0 2829
0.05150000 0.05149060 33615.57814941 0 -562.52392625 0 10486.64312504 0 -1826.69000393 0 -2863.74609109 0 2784
0.05250000 0.05249300 35703.92933346 0 -1217.20281196 0 11442.25119084 0 1155.97285572 0 -3713.49165930 0 3055
0.05350000 0.05348950 36037.64920349 0 -792.57804794 0 12674.49021990 0 -25.09653143 0 -1949.03919318 0 3009
0.05450000 0.05448610 37712.11688581 0 -531.68639440 0 13774.30424414 0 1503.14560040 0 -3162.14524496 0 3336
0.05550000 0.05550870 37067.26468838 0 487.94296074 0 14582.91612565 0 3906.74801669 0 1055.50700924 0 3349
0.05650000 0.05647670 37365.66384224 0 1558.58473077 0 14691.64635537 0 242.41969404 0 1128.88994921 0 3324
0.05750000 0.05747970 35932.01922472 0 1690.95437398 0 17130.87951291 0 1739.65045853 0 3348.48139933 0 3639
0.05850000 0.05849280 34981.46013904 0 886.86775163 0 15959.87044009 0 -688.67203014 0 3916.11520348 0 3846
0.05950000 0.05951020 34170.52306932 0 1042.10506728 0 16459.12156617 0 -1851.09340783 0 342.49468745 0 3787
0.06050000 0.06049470 33142.45770991 0 505.51916915 0 14602.62486382 0 1281.94269518 0 155.13987920 0 3930
0.06150000 0.06148310 32714.18018592 0 -261.40983834 0 12001.29287093 0 1635.37130339 0 -354.98980601 0 4083
0.06250000 0.06249100 33041.92100056 0 -294.17616918 0 10235.37885793 0 2027.64162706 0 -4705.51660143 0 4303
0.06350000 0.06350600 33361.24684833 0 -320.92801317 0 9775.83308866 0 1751.84108816 0 -8161.00094781 0 4470
0.06450000 0.06451750 31882.64859204 0 231.30750886 0 6572.29949353 0 554.81537371 0 -8191.94809567 0 4479
0.06550000 0.06550280 32285.23832245 0 926.50446001 0 7242.66232735 0 -1649.54387916 0 -7764.56743000 0 4636
0.06650000 0.06648880 32098.11603301 0 552.51454461 0 8214.29204716 0 -1464.10458309 0 -5943.21428663 0 4653
0.06750000 0.06749660 31516.81898004 0 786.78168589 0 10683.85230238 0 -1733.31708873 0 -3103.99339501 0 5220
0.06850000 0.06852730 31139.69559671 0 924.08847874 0 10522.10778143 0 -1086.05444618 0 -2621.51684104 0 5029
0.06950000 0.06949320 31493.67782116 0 -143.75088589 0 13979.03153004 0 2845.74249094 0 -282.00657697 0 5040
0.07050000 0.07048030 30912.93438443 0 64.22756675 0 13711.30271592 0 1608.65378360 0 592.29297876 0 5475
0.07150000 0.07148790 31087.65567007 0 285.41574578 0 13839.18806758 0 2202.87223964 0 -989.60010299 0 5509
0.07250000 0.07249820 30079.29904883 0 969.29456651 0 12444.07514043 0 1223.62476036 0 1900.39847025 0 5916
0.07350000 0.07351270 29425.36754504 0 1273.81560876 0 11198.99221457 0 600.48317742 0 1473.19496177 0 5721
0.07450000 0.07449140 29033.62869296 0 -304.80449377 0 10523.30359251 0 2226.92132915 0 3171.68958895 0 6028
0.07550000 0.07549160 28458.75358837 0 126.75929622 0 8798.02501160 0 614.65353873 0 -273.20075704 0 6183
0.07650000 0.07648840 28371.50366880 0 -120.60086916 0 8393.75228782 0 1667.52533466 0 557.71189388 0 6330
0.07750000 0.07749960 28275.72805912 0 168.99800094 0 8229.73794028 0 413.99754667 0 -2241.70288278 0 6583
0.07850000 0.07848650 28165.11553418 0 910.83712039 0 7721.65109900 0 -348.93324433 0 -1524.49304266 0 6549
0.07950000 0.07947320 27034.40972370 0 784.62811872 0 7485.42304900 0 393.09631911 0 -1183.23291942 0 6828
0.08050000 0.08048110 26282.04525228 0 1738.88646812 0 7843.57953990 0 -134.49774404 0 -487.21218730 0 7147
0.08150000 0.08149960 24768.79061931 0 1735.22152860 0 8577.66360306 0 129.74439499 0 -1193.74055567 0 7386
0.08250000 0.08250610 23391.39341187 0 1284.57790848 0 8199.20046843 0 -102.64753736 0 1369.33655497 0 7227
0.08350000 0.08350160 22340.62978658 0 1074.62448527 0 8033.99030981 0 672.52968779 0 702.16587240 0 7798
0.08450000 0.08449610 21880.02107413 0 159.27760698 0 8648.10573355 0 243.93881701 0 761.62204221 0 7371
0.08550000 0.08548940 21968.26750293 0 -72.40857538 0 7804.61602887 0 1275.08892612 0 1529.45344417 0 8256
0.08650000 0.08650700 21743.94220211 0 138.85359662 0 7569.62807924 0 1249.22397534 0 911.36416306 0 8037
0.08750000 0.08749060 21705.63195823 0 348.87677548 0 6801.85093167 0 1230.26815525 0 1838.63704241 0 8155
0.08850000 0.08849210 21261.18884001 0 477.00350381 0 6121.24619739 0 755.81460784 0 123.86499051 0 8718
0.08950000 0.08949900 20145.54139129 0 578.91761038 0 6312.23272819 0 -103.87235793 0 393.61228944 0 8571
0.09050000 0.09049190 19941.25699838 0 1150.96816490 0 6654.27898648 0 -956.87031083 0 258.18336289 0 8932
0.09150000 0.09150830 19322.53548752 0 764.68464725 0 7478.21496554 0 -1160.24677310 0 914.23743135 0 9285
0.09250000 0.09250820 18742.23494377 0 329.96192299 0 7090.75003084 0 -592.40923817 0 972.53322152 0 9204
0.09350000 0.09350330 18884.95721068 0 -8.05550384 0 8453.39890162 0 752.77193298 0 1280.99047524 0 9349
0.09450000 0.09448040 18632.61892807 0 4.80301949 0 7396.57871465 0 826.56012004 0 -185.46476241 0 9564
0.09550000 0.09549270 18534.18596043 0 355.39948203 0 7779.70329803 0 804.17852265 0 1194.00629147 0 10155
0.09650000 0.09649430 18122.51692367 0 449.30719051 0 7488.21327485 0 542.06448445 0 818.77406122 0 9913
0.09750000 0.09749140 18038.81014804 0 162.03350863 0 7330.11154877 0 675.43617305 0 2515.39967998 0 10476
0.09850000 0.09850240 17988.20962362 0 -287.83172706 0 6656.48237912 0 1279.54000069 0 1404.69048812 0 10575
0.09950000 0.09950330 17576.65131011 0 -14.41583474 0 6257.97833658 0 642.57019129 0 1215.87413299 0 10882
0.10050000 0.10051200 18032.72036939 0 351.06466686 0 6240.59478661 0 32.82877875 0 1189.20090250 0 10875
0.10150000 0.10150300 16976.19913520 0 528.12664197 0 6128.89717384 0 0.23021467 0 1098.49088142 0 11118
0.10250000 0.10250800 17188.89849496 0 348.15596713 0 6097.85037505 0 184.85910624 0 1252.71175766 0 11575
0.10350000 0.10349800 16667.05982626 0 145.72175971 0 5965.76861229 0 -137.35994000 0 643.57888008 0 11364
0.10450000 0.10450100 16804.35665401 0 186.79011969 0 6155.68112758 0 203.43736006 0 257.33854451 0 12093
0.10550000 0.10551000 16786.97310405 0 -78.11813040 0 5780.97151106 0 -362.45144571 0 751.29599208 0 12067
0.10650000 0.10649700 16695.95859404 0 -19.18258130 0 5937.09129101 0 -177.07083296 0 471.69875299 0 12054
0.10750000 0.10749900 16825.17262467 0 103.40709884 0 6108.04798621 0 -5.24186002 0 256.74949682 0 12807
0.10850000 0.10850100 17019.82409498 0 294.03333619 0 6327.42395784 0 -175.02356011 0 470.66238339 0 12736
0.10950000 0.10950300 16573.83085129 0 404.58939227 0 6221.04106098 0 -10.72543995 0 93.14061782 0 12933
0.11050000 0.11050200 15897.31180487 0 520.22543098 0 6102.48967915 0 187.45778088 0 409.52432744 0 13428
0.11150000 0.11150900 15806.07584836 0 492.45161140 0 6480.33276358 0 9.68164082 0 -424.79859953 0 13453
0.11250000 0.11250000 15540.00788297 0 19.43015848 0 6203.67965566 0 475.74900941 0 188.62701838 0 13668
0.11350000 0.11349100 15319.89006558 0 244.31970498 0 6400.56773559 0 460.35626345 0 -235.38987502 0 13791
0.11450000 0.11448600 15166.31692034 0 283.12266731 0 5681.33166002 0 131.90239110 0 -401.32637814 0 14205
0.11550000 0.11549300 14906.33873360 0 190.15278474 0 5193.64004106 0 776.85091776 0 -728.43385580 0 14776
0.11650000 0.11649800 14688.32465792 0 264.54330626 0 5015.75207052 0 149.17521782 0 -348.26226145 0 14553
0.11750000 0.11747300 14583.13757214 0 166.81786018 0 4751.97607637 0 465.48939324 0 -603.39852055 0 14568
0.11850000 0.11849100 14230.48402667 0 149.74544254 0 4439.23826186 0 55.55262170 0 -1314.43996852 0 16015
0.11950000 0.11950300 14046.35126493 0 262.85809843 0 4283.97105093 0 365.44208064 0 -1066.21726904 0 15270
0.12050000 0.12050700 13900.75019357 0 279.75335887 0 4311.08717441 0 86.72398414 0 -1695.19507438 0 15999
0.12150000 0.12150000 13846.82797170 0 58.68387516 0 4077.48326539 0 565.54002753 0 -1078.36471660 0 15670
0.12250000 0.12250700 13633.35354920 0 -46.20769027 0 4321.32907487 0 -102.97915349 0 -1379.00269454 0 16887
0.12350000 0.12352200 13769.87531421 0 164.71965463 0 4064.58400698 0 175.55724616 0 -1396.17587033 0 16407
0.12450000 0.12449800 13480.33402021 0 190.76176260 0 3850.46738963 0 234.67128114 0 -1110.54310699 0 16306
0.12550000 0.12549900 13470.14748137 0 122.52413198 0 3820.33959380 0 215.19174008 0 -972.88642868 0 17523
0.12650000 0.12650100 13498.27118641 0 -74.92088589 0 3926.05815117 0 22.62020599 0 -1640.05489679 0 17154
0.12750000 0.12750600 13309.93094125 0 218.42596616 0 3944.17247457 0 -293.85064283 0 -1703.32216080 0 18007
0.12850000 0.12850300 13136.64905783 0 292.78327071 0 4060.60904237 0 -236.09961104 0 -1729.84037874 0 17496
0.12950000 0.12949900 12919.18859840 0 448.77571892 0 4154.69058635 0 -466.16369782 0 -1731.84446953 0 18405
0.13050000 0.13049000 12848.32571956 0 374.32540684 0 4193.17798742 0 -302.25121567 0 -1444.97160581 0 18100
0.13150000 0.13148800 12316.74340501 0 292.16432776 0 4521.06274227 0 168.82416544 0 -690.94185673 0 19059
0.13250000 0.13249300 12397.34992969 0 -28.08041225 0 4159.36310742 0 624.53558863 0 -499.45042792 0 18957
0.13350000 0.13349100 12323.82969290 0 -179.66507867 0 4367.02455940 0 988.95015752 0 -898.08069497 0 19468
0.13450000 0.13450700 12342.87409159 0 43.98935000 0 3918.61754889 0 722.22338881 0 -573.15557254 0 19953
0.13550000 0.13551000 12407.75791502 0 -9.06007372 0 3644.95396867 0 476.42885016 0 -598.29860774 0 19956
0.13650000 0.13649900 12270.35036402 0 109.51315381 0 3103.26262157 0 -122.61381781 0 -336.96295397 0 19723
0.13750000 0.13749600 12452.93300028 0 -61.48351249 0 3234.28144115 0 316.04290346 0 -504.50715866 0 20946
0.13850000 0.13851100 11929.43348286 0 256.95876376 0 2848.77630794 0 -162.73327956 0 -909.25045625 0 20955
0.13950000 0.13949800 12084.66747682 0 357.09244049 0 2541.35320935 0 320.03115486 0 -806.19590023 0 20506
0.14050000 0.14048300 11531.27268238 0 217.46599560 0 2638.40213639 0 116.65247813 0 -706.00796911 0 21447
0.14150000 0.14148400 11457.42027584 0 407.04523391 0 2476.34759034 0 261.28029214 0 -847.26868915 0 21771
0.14250000 0.14249400 11066.86616251 0 201.84848144 0 2599.50505930 0 204.07291150 0 -389.64396823 0 22470
0.14350000 0.14350900 10850.26934441 0 332.83740575 0 2757.79501491 0 162.35239158 0 221.96468117 0 22519
0.14450000 0.14449900 10728.44055443 0 277.42152726 0 3124.80936567 0 26.20885719 0 705.73226822 0 22218
0.14550000 0.14550500 10634.71332484 0 120.98840053 0 3010.35474402 0 408.05945887 0 1233.53449107 0 23559
0.14650000 0.14650700 10425.43531344 0 48.05776503 0 3372.50834419 0 378.29372806 0 1685.76145364 0 23044
0.14750000 0.14750500 10446.42844130 0 13.55230413 0 3059.15047949 0 337.57525354 0 1471.21301563 0 23649
0.14850000 0.14849900 10510.55934665 0 43.28016759 0 3053.97970380 0 308.12176229 0 1464.53640376 0 23640
0.14950000 0.14949500 10377.92396764 0 167.57963613 0 2644.80194013 0 -104.43715722 0 1422.52800340 0 24457
0.15050000 0.15050000 10230.96100033 0 194.14657230 0 2715.72018059 0 -169.34677917 0 813.42280664 0 24591
0.15150000 0.15149900 10072.73747867 0 169.48518323 0 3018.19394999 0 -322.77487695 0 455.12569721 0 25020
0.15250000 0.15250500 9909.99644848 0 218.20009074 0 2612.60361956 0 -241.64463131 0 38.64064205 0 25297
0.15350000 0.15350100 9717.92482986 0 214.68352037 0 2813.83205081 0 -311.18547456 0 -246.84419504 0 25452
0.15450000 0.15450400 9670.23632686 0 146.70055322 0 2961.08289858 0 -283.85122628 0 -547.01159918 0 26061
0.15550000 0.15549900 9499.83324790 0 70.89764594 0 2772.62085784 0 296.58661429 0 -256.03533187 0 26128
0.15650000 0.15649500 9546.52524166 0 -64.73102535 0 2560.61905453 0 164.33544496 0 -697.41030889 0 26331
0.15750000 0.15749700 9583.10820286 0 -30.66834673 0 2423.07863564 0 416.50210654 0 -477.45082574 0 27345
0.15850000 0.15849900 9540.75656043 0 99.57596373 0 2394.40131436 0 129.13652436 0 -901.24295094 0 26980
0.15950000 0.15949700 9294.18695905 0 263.47925585 0 2315.83209744 0 308.15719373 0 -492.18476837 0 27777
0.16050000 0.16050000 9189.36525999 0 250.91881058 0 1998.54355744 0 -40.32496410 0 -409.68266168 0 28224
0.16150000 0.16150500 9013.02741493 0 159.83343769 0 2143.60208489 0 373.71642898 0 -59.43889698 0 28075
0.16250000 0.16249700 9030.14522910 0 -44.87458236 0 1975.31381997 0 254.11206905 0 -543.44188166 0 28590
0.16350000 0.16349900 8956.90180042 0 -28.75737419 0 2064.76713218 0 -58.50073890 0 -284.05163536 0 29163
0.16450000 0.16449100 9111.67075673 0 159.15691864 0 2238.33689604 0 -316.78364199 0 -299.76880044 0 28996
0.16550000 0.16550500 8925.45639793 0 185.48579983 0 2327.54661710 0 -192.31078085 0 -122.67471560 0 30777
0.16650000 0.16650700 8784.92645134 0 168.01810019 0 2615.86995538 0 -17.48364378 0 113.10822695 0 29211
0.16750000 0.16749900 8664.04988129 0 183.64890114 0 2458.34399018 0 144.55916560 0 65.58104773 0 30922
0.16850000 0.16850800 8629.82532528 0 29.69320708 0 2581.80041191 0 188.97247491 0 333.24043837 0 30867
0.16950000 0.16949900 8576.89961264 0 51.80663276 0 2328.81993446 0 294.78736151 0 55.46681118 0 30852
0.17050000 0.17049200 8360.08134805 0 275.99984075 0 2443.93889560 0 66.26066703 0 168.02585082 0 31257
0.17150000 0.17149500 8326.52113152 0 174.26067693 0 2453.69361376 0 -295.47938181 0 66.57069212 0 32608
0.17250000 0.17250900 8104.32171706 0 57.51231247 0 2543.75590384 0 95.25067076 0 380.43068675 0 32361
0.17350000 0.17350400 8125.13768772 0 118.81047423 0 2706.13154730 0 -71.85894518 0 266.03253395 0 32508
0.17450000 0.17449800 8052.92398525 0 119.23011534 0 2726.61534822 0 15.23529750 0 327.10637042 0 32791
0.17550000 0.17549800 7964.19037415 0 91.69855824 0 2701.13792881 0 305.93940706 0 591.03294819 0 33633
0.17650000 0.17650100 7977.89791228 0 83.68274868 0 2432.67834126 0 307.25479925 0 802.69372389 0 33984
0.17750000 0.17750300 7875.89965605 0 28.66835270 0 2326.51689089 0 424.95471931 0 881.23747446 0 34069
