### header ###
fiducial parameters:
Omega_m = 0.31
Omega_nu = 0
Omega_de = 0.69
Omega_k = 0
H_0 = 100
w_de = -1
zeff = 0
beta = 0
fgrowth = 0
b_1 = 2
gamma = 0.55
Lx = 3500 Ly = 3500 Lz = 3500
nx = 700 ny = 700 nz = 700
xoffset = -685.467585 yoffset = -31.7331281 zoffset = 572.489161
bins = 400 dk = 0.001
kx_ny = 0.628318531 ky_ny = 0.628318531 kz_ny = 0.628318531
############################
A(data) = 7.98774852 (not used)
A(ran) = 7.98273564 (used)
Ngal = 474296
weighted Ngal = 0
Nran = 23820508
weighted Nran = 0
SN(data) = 3493.82239
SN(ran) = 69.5325225
SN(data+ran) = 3563.35491
############################
13 columns: k_central k_mean P_0(k) sigma^{lin}_{P_0(k)} P^img_1(k) sigma^{lin}_{P_1(k)} P_2(k) sigma^{lin}_{P_2(k)} P^img_3(k) sigma^{lin}_{P_3(k)} P_4(k) sigma^{lin}_{P_4(k)} N_modes
### header ###
0.00050000 0 0 0 0 0 0 0 0 0 0 0 0
0.00150000 0.00179520 103881.54795777 0 -80890.97270434 0 54085.98155088 0 50240.00952512 0 -187740.12516000 0 3
0.00250000 0.00253879 159079.41236694 0 -45227.45735647 0 59879.13261924 0 -32628.48039183 0 160566.42559008 0 6
0.00350000 0.00331552 152906.59128054 0 25601.98306191 0 81249.27313547 0 -122256.18171757 0 4940.51562338 0 7
0.00450000 0.00420575 124264.70143967 0 68263.76131141 0 63290.95878886 0 -21575.31069512 0 117736.45872659 0 24
0.00550000 0.00557378 93708.07446790 0 15800.98257895 0 106055.48821267 0 39174.88171760 0 53240.72027422 0 45
0.00650000 0.00659388 87795.45301475 0 4181.00950244 0 96650.76623496 0 43509.14326786 0 1170.24508241 0 40
0.00750000 0.00754703 95215.46076872 0 8319.96631523 0 101953.85620685 0 89182.37242153 0 -26383.24630112 0 57
0.00850000 0.00846663 91892.43464414 0 -899.82680059 0 68621.06523331 0 25793.20211153 0 -25914.00117530 0 75
0.00950000 0.00948925 93539.99657716 0 626.52639263 0 44693.66057696 0 27509.08028868 0 -9864.77707392 0 112
0.01050000 0.01054430 94299.00444348 0 855.42899254 0 59661.67215980 0 -2614.16481736 0 -7647.87619874 0 105
0.01150000 0.01145670 95099.64425111 0 6792.72733602 0 41635.26301556 0 -6963.96083934 0 7400.90799366 0 144
0.01250000 0.01249090 88083.33346003 0 13353.99879402 0 64776.20044003 0 18767.25839786 0 9237.41914970 0 169
0.01350000 0.01339930 82136.38779994 0 11114.95326920 0 51155.80151087 0 17317.33746286 0 -14201.91742864 0 180
0.01450000 0.01448870 71490.90110305 0 5525.03472288 0 57254.77019072 0 38981.22675653 0 14223.39773878 0 267
0.01550000 0.01550050 73130.71240869 0 -1925.99768523 0 48869.80932881 0 24815.51583005 0 7113.97976831 0 238
0.01650000 0.01653350 67331.58228493 0 3330.41136523 0 33988.93694229 0 15651.50619389 0 16360.79932178 0 315
0.01750000 0.01747870 73986.93528692 0 203.16719533 0 36581.18962884 0 2015.52850371 0 21794.32128003 0 297
0.01850000 0.01844180 69145.33981347 0 -5902.72279477 0 33006.60028438 0 2600.75623200 0 17334.38884308 0 388
0.01950000 0.01947590 75887.72128853 0 -2202.27433410 0 24592.18703845 0 -137.48837897 0 10997.06622685 0 399
0.02050000 0.02045430 75668.04636413 0 -50.90279889 0 42260.29575157 0 -1674.78877974 0 -4719.72239417 0 462
0.02150000 0.02154770 79638.02842786 0 1124.70461043 0 32926.21520620 0 -2493.55398311 0 1053.59149705 0 571
0.02250000 0.02255340 80167.28555419 0 -1406.24061359 0 44330.37759966 0 3727.14383580 0 -9805.94981216 0 510
0.02350000 0.02348930 78370.46868262 0 10628.22494250 0 47880.27565977 0 -14781.66435614 0 -6140.73348907 0 555
0.02450000 0.02439640 77599.28125900 0 9099.90087545 0 55598.57184435 0 -3224.32742114 0 -5304.35221692 0 592
0.02550000 0.02547300 67964.47637156 0 3569.36320714 0 50321.94472878 0 6293.23261880 0 -6145.85997546 0 837
0.02650000 0.02652900 64512.90055584 0 852.51254218 0 42612.72785055 0 6382.74129263 0 -9894.58377234 0 723
0.02750000 0.02749970 67924.28383247 0 -294.23374527 0 42642.51240431 0 11037.12589805 0 -38110.94202578 0 826
0.02850000 0.02848090 62465.07408063 0 3037.54837377 0 36653.04901691 0 1098.27607832 0 -17967.72582271 0 831
0.02950000 0.02946900 61304.47299314 0 3994.31903368 0 33795.06053472 0 681.08195148 0 -15632.79396495 0 996
0.03050000 0.03053250 61477.75487656 0 -2768.52409765 0 31482.82694284 0 8519.51175311 0 -22344.17293052 0 1041
0.03150000 0.03150510 63307.23510634 0 -4308.27480391 0 26322.01634487 0 8228.48676758 0 -17962.41110679 0 1036
0.03250000 0.03246190 64223.91287808 0 3346.86483991 0 29231.15896772 0 5601.89880177 0 -22385.25125560 0 1059
0.03350000 0.03345080 60732.36596976 0 4959.09498442 0 21968.04605644 0 3785.48391527 0 -10654.84281136 0 1302
0.03450000 0.03451200 55180.48085920 0 4356.25118735 0 21000.32486729 0 4659.93184015 0 -13760.35311487 0 1339
0.03550000 0.03553350 52212.21202182 0 3525.95969385 0 19606.76206561 0 -37.46387536 0 -5400.17211590 0 1365
0.03650000 0.03647120 49156.36109512 0 4168.24311193 0 21360.72904013 0 -315.55350670 0 -11069.25778467 0 1308
0.03750000 0.03744890 45031.69865368 0 2920.28138162 0 19230.30302178 0 1128.05952485 0 -4505.87151262 0 1579
0.03850000 0.03847530 44952.19936148 0 -363.40920180 0 19120.68700607 0 286.65806062 0 -7865.17057330 0 1662
0.03950000 0.03950240 45138.76803467 0 475.92173768 0 20155.83865337 0 3756.98375119 0 -9275.18684966 0 1683
0.04050000 0.04050350 43286.14664602 0 1563.73336181 0 19294.07961273 0 1156.19430221 0 -5708.84638719 0 1822
0.04150000 0.04152450 44028.87819485 0 700.53381172 0 19363.72453584 0 2071.77591379 0 1133.81713375 0 1887
0.04250000 0.04250150 43750.29850241 0 -1954.59750024 0 15966.62455823 0 4866.86251869 0 6642.44267125 0 1920
0.04350000 0.04349210 45925.89960603 0 -914.21639393 0 17198.75286405 0 4834.26559442 0 1034.35776161 0 2005
0.04450000 0.04448520 45349.58509922 0 121.76678496 0 15964.74226301 0 5251.84725263 0 7649.52597513 0 2151
0.04550000 0.04548030 44468.33876690 0 3489.42102195 0 15403.04322496 0 2326.66083112 0 8547.39186700 0 2274
0.04650000 0.04648670 42512.85548068 0 1927.60317233 0 12319.51148622 0 4194.62846197 0 14445.28712815 0 2311
0.04750000 0.04749250 40758.33488992 0 -20.96467198 0 12747.12467071 0 2603.13678184 0 10835.97497307 0 2568
0.04850000 0.04851840 40175.48771147 0 246.92502301 0 12028.97368298 0 2158.40578317 0 9990.99050453 0 2493
0.04950000 0.04949480 41022.29911360 0 859.87563818 0 11960.65743885 0 2049.19944349 0 9551.49671551 0 2644
0.05050000 0.05050630 39558.42704932 0 947.86076012 0 10422.63401526 0 522.95143735 0 10154.70589930 0 2829
0.05150000 0.05149060 37447.48832265 0 958.29199733 0 9512.35604727 0 -395.72046009 0 7864.93805448 0 2784
0.05250000 0.05249300 38047.49760457 0 -216.55252880 0 9971.52535750 0 160.50442057 0 4498.65235684 0 3055
0.05350000 0.05348950 36783.37028002 0 648.69540138 0 10562.70999654 0 798.75640518 0 3425.97660074 0 3009
0.05450000 0.05448610 37839.00572823 0 -374.42505776 0 9249.45476678 0 -409.01389327 0 2303.12106855 0 3336
0.05550000 0.05550870 37207.21887408 0 -322.96642817 0 10372.67568568 0 -743.17665629 0 3016.59953522 0 3349
0.05650000 0.05647670 38168.40739159 0 335.11941189 0 10368.91109524 0 115.62053745 0 1036.07950812 0 3324
0.05750000 0.05747970 38485.40805115 0 -185.61091710 0 10204.63101191 0 1421.53149417 0 802.95060183 0 3639
0.05850000 0.05849280 36811.49398506 0 1408.65438040 0 9936.48144945 0 1096.06161336 0 1252.57888976 0 3846
0.05950000 0.05951020 36162.76647394 0 2092.66939072 0 10649.57238475 0 -1088.74280665 0 -2688.74799734 0 3787
0.06050000 0.06049470 34728.67896343 0 2061.23506056 0 10007.93116151 0 -553.88862012 0 2875.32774285 0 3930
0.06150000 0.06148310 32149.04872718 0 1045.58842067 0 10634.55831229 0 -439.44949973 0 -14.02343155 0 4083
0.06250000 0.06249100 32161.11756123 0 -40.96627315 0 10815.71261865 0 921.11998845 0 -936.16838511 0 4303
0.06350000 0.06350600 31753.21311491 0 109.86503229 0 10150.81951329 0 193.54313060 0 -2702.24516129 0 4470
0.06450000 0.06451750 31846.33136664 0 1184.31800725 0 9362.93502384 0 531.03202000 0 -2747.59740375 0 4479
0.06550000 0.06550280 30735.33429434 0 708.14382057 0 9806.47021143 0 -645.01385338 0 -763.73796348 0 4636
0.06650000 0.06648880 30261.99240834 0 992.85425926 0 8932.84163859 0 536.38216735 0 166.87654350 0 4653
0.06750000 0.06749660 30189.80085052 0 148.86519272 0 9996.74811344 0 892.98188939 0 -417.41889504 0 5220
0.06850000 0.06852730 29810.90589523 0 140.72814121 0 9415.46213278 0 1194.72599258 0 205.03952546 0 5029
0.06950000 0.06949320 29751.77968070 0 4.09567510 0 10064.12320996 0 1042.73508256 0 19.57930270 0 5040
0.07050000 0.07048030 29158.74596341 0 832.60893109 0 8878.22186026 0 683.11150862 0 1202.17766718 0 5475
0.07150000 0.07148790 29301.13606058 0 250.25225662 0 9528.42199058 0 1115.47029153 0 3207.75215089 0 5509
0.07250000 0.07249820 29028.53542354 0 114.57863169 0 8351.50029631 0 1104.46882959 0 2885.46999239 0 5916
0.07350000 0.07351270 29058.98431679 0 561.53073871 0 8971.99337915 0 1116.34500519 0 1731.71160164 0 5721
0.07450000 0.07449140 28195.89659718 0 12.21930695 0 8444.98393475 0 -307.75305387 0 1089.86000422 0 6028
0.07550000 0.07549160 28245.50061237 0 607.59271719 0 8103.82346244 0 796.96158133 0 1517.51747802 0 6183
0.07650000 0.07648840 27847.45053514 0 279.56180765 0 8059.48987387 0 -420.20912089 0 1302.55936399 0 6330
0.07750000 0.07749960 26633.81301176 0 1284.64434243 0 7557.94677656 0 699.10216012 0 -292.94049773 0 6583
0.07850000 0.07848650 26065.24913233 0 1166.01545433 0 7740.64013607 0 -785.40871762 0 -393.89131203 0 6549
0.07950000 0.07947320 24923.13882728 0 909.18070060 0 7956.26258958 0 779.47505875 0 -715.53238292 0 6828
0.08050000 0.08048110 24201.33397236 0 523.84718842 0 8199.51049353 0 60.37218324 0 -1346.01823890 0 7147
0.08150000 0.08149960 23545.07728036 0 228.57707356 0 7697.65737112 0 486.31422175 0 -1299.51447467 0 7386
0.08250000 0.08250610 23507.43137597 0 599.17664310 0 8013.49543657 0 700.45298375 0 -165.32420356 0 7227
0.08350000 0.08350160 22941.19268475 0 426.66760796 0 6612.76884074 0 1006.60165775 0 303.05949538 0 7798
0.08450000 0.08449610 22897.67844821 0 -144.46062191 0 5862.90671472 0 1866.97112162 0 1161.54223510 0 7371
0.08550000 0.08548940 23100.63416213 0 -174.50316084 0 5115.01546252 0 1711.06171585 0 1933.01753916 0 8256
0.08650000 0.08650700 22875.75524507 0 38.35154364 0 5084.17903790 0 -67.26326604 0 -353.20051832 0 8037
0.08750000 0.08749060 22942.63208697 0 940.67482132 0 5747.52201779 0 -1037.01954849 0 1261.44782194 0 8155
0.08850000 0.08849210 21771.06939791 0 1327.71568598 0 7112.55143840 0 -1863.41690535 0 2291.63906772 0 8718
0.08950000 0.08949900 21278.46166673 0 1025.15665968 0 8274.78015764 0 -151.02429606 0 3255.91676385 0 8571
0.09050000 0.09049190 20567.95058312 0 405.20279906 0 9279.69328586 0 -574.50196724 0 3250.61312026 0 8932
0.09150000 0.09150830 20582.12315889 0 802.18107525 0 9177.28535361 0 257.50905831 0 3055.02050234 0 9285
0.09250000 0.09250820 20078.99671913 0 137.08202465 0 9512.86537421 0 686.50185448 0 2885.11567799 0 9204
0.09350000 0.09350330 19299.61577514 0 106.48110838 0 9036.40109262 0 896.98010588 0 2465.81780944 0 9349
0.09450000 0.09448040 19261.41625452 0 463.88944230 0 8599.36535970 0 1352.77235704 0 2598.97358771 0 9564
0.09550000 0.09549270 18656.31370318 0 427.07506951 0 7004.75128397 0 1299.31517282 0 611.55328778 0 10155
0.09650000 0.09649430 17954.77120267 0 252.04708047 0 5735.77428115 0 1217.29139056 0 1359.31610101 0 9913
0.09750000 0.09749140 18003.93232486 0 2.86990230 0 5397.63655352 0 677.87540621 0 493.98623562 0 10476
0.09850000 0.09850240 18151.41569145 0 -292.62825817 0 4585.68082992 0 777.85739209 0 -221.13204235 0 10575
0.09950000 0.09950330 17950.56371924 0 256.98644458 0 4533.65197559 0 -408.37059119 0 -154.94389905 0 10882
0.10050000 0.10051200 17749.04740754 0 246.96820508 0 3991.37379528 0 -327.45625588 0 59.86097401 0 10875
0.10150000 0.10150300 17592.37401135 0 326.80520318 0 4593.61968681 0 -109.67492047 0 69.97709285 0 11118
0.10250000 0.10250800 17101.31640565 0 464.92802637 0 4750.76919296 0 156.57153080 0 -306.48305821 0 11575
0.10350000 0.10349800 17081.93983721 0 348.11610676 0 5092.62722174 0 306.03795075 0 -244.25548550 0 11364
0.10450000 0.10450100 16421.91855478 0 518.47711089 0 5277.54611853 0 518.70741524 0 134.41470160 0 12093
0.10550000 0.10551000 16434.76245156 0 314.19714691 0 5081.35559507 0 -337.45567243 0 492.85907295 0 12067
0.10650000 0.10649700 16379.95444371 0 66.04630682 0 5413.51426731 0 431.17625862 0 825.77952114 0 12054
0.10750000 0.10749900 16318.28159447 0 164.87688164 0 5483.82352991 0 -632.66378228 0 1216.51632782 0 12807
0.10850000 0.10850100 16239.44664176 0 185.31750049 0 5917.36040818 0 -479.26557978 0 1213.07283481 0 12736
0.10950000 0.10950300 16134.03810949 0 12.71213612 0 6130.90126463 0 428.81010281 0 1260.15235993 0 12933
0.11050000 0.11050200 15731.66982558 0 186.95399010 0 5875.66203291 0 613.73785747 0 1188.25975489 0 13428
0.11150000 0.11150900 15855.67986355 0 449.13889118 0 5726.10814159 0 620.24506276 0 328.02426615 0 13453
0.11250000 0.11250000 15537.35052501 0 147.62066341 0 5078.21105482 0 1064.65939294 0 380.26238741 0 13668
0.11350000 0.11349100 15227.10398360 0 116.05900152 0 4662.06879884 0 397.51085501 0 -136.31692700 0 13791
0.11450000 0.11448600 14704.49025216 0 239.91845587 0 4026.66129447 0 -132.19470047 0 -131.53700438 0 14205
0.11550000 0.11549300 15005.65748722 0 414.41165161 0 4393.47634339 0 -230.86350863 0 -703.84997300 0 14776
0.11650000 0.11649800 14165.37875674 0 445.84930347 0 4282.06661106 0 -490.33015397 0 82.28508912 0 14553
0.11750000 0.11747300 14323.60227839 0 166.31960557 0 4533.67412024 0 108.79478137 0 -89.58396564 0 14568
0.11850000 0.11849100 14103.15229125 0 24.61543892 0 4650.33213453 0 -151.98537386 0 -111.98327875 0 16015
0.11950000 0.11950300 14253.73590879 0 92.67801609 0 4526.79820653 0 529.26044803 0 147.21984525 0 15270
0.12050000 0.12050700 13891.56016397 0 -82.54750322 0 4180.88770687 0 688.81597036 0 512.33418508 0 15999
0.12150000 0.12150000 14159.17825484 0 45.45410785 0 4086.60686104 0 662.39740335 0 661.28684917 0 15670
0.12250000 0.12250700 14068.27446808 0 22.35424875 0 3694.94551523 0 594.12655575 0 193.67821296 0 16887
0.12350000 0.12352200 13742.52667191 0 93.57443151 0 2964.92499529 0 788.60640502 0 585.02067582 0 16407
0.12450000 0.12449800 13548.65026434 0 512.29100301 0 2779.91751989 0 257.32082879 0 146.01517631 0 16306
0.12550000 0.12549900 13353.00228479 0 154.14115550 0 2460.29271935 0 52.23324944 0 457.84616741 0 17523
0.12650000 0.12650100 13040.43055516 0 441.83558573 0 2753.83112262 0 -175.60042823 0 -108.43183057 0 17154
0.12750000 0.12750600 12907.45193409 0 372.98344107 0 2598.71892424 0 -274.87821425 0 779.76293919 0 18007
0.12850000 0.12850300 12609.49567322 0 1.47188843 0 3163.59571951 0 -456.75886512 0 505.95652598 0 17496
0.12950000 0.12949900 12784.21695886 0 12.49456494 0 3349.68828274 0 118.70085822 0 747.95436445 0 18405
0.13050000 0.13049000 12664.19295782 0 105.88176344 0 3217.34078418 0 570.55800514 0 666.06898626 0 18100
0.13150000 0.13148800 12522.68864664 0 180.52872001 0 3149.79960278 0 454.12143734 0 415.78683436 0 19059
0.13250000 0.13249300 12682.13012403 0 -103.73140723 0 3437.93471154 0 144.62559955 0 722.93755376 0 18957
0.13350000 0.13349100 12524.90311160 0 237.97194116 0 3543.53147334 0 -558.38841293 0 159.37725790 0 19468
0.13450000 0.13450700 12398.78933192 0 501.54974071 0 3578.67503231 0 -778.20949202 0 370.84537515 0 19953
0.13550000 0.13551000 12038.05298933 0 305.04144152 0 3951.75701707 0 -686.21065233 0 411.64578488 0 19956
0.13650000 0.13649900 12008.71132856 0 97.66465902 0 4258.85901824 0 -111.65553794 0 -246.98481357 0 19723
0.13750000 0.13749600 11753.93713448 0 3.50051549 0 3986.98915465 0 272.59842257 0 -364.28280823 0 20946
0.13850000 0.13851100 11676.87375374 0 290.80575350 0 3949.57576908 0 318.37030614 0 -711.17763757 0 20955
0.13950000 0.13949800 11504.80982606 0 253.73561001 0 3497.68097626 0 283.85122628 0 -886.29863413 0 20506
0.14050000 0.14048300 11351.12595758 0 55.63212099 0 3523.03660010 0 418.15520464 0 -1179.84478803 0 21447
0.14150000 0.14148400 11063.05728277 0 162.31253121 0 3171.74495057 0 134.43131009 0 -1066.03789738 0 21771
0.14250000 0.14249400 11039.26285674 0 239.72026125 0 3502.41993128 0 -222.46072133 0 -1293.41362369 0 22470
0.14350000 0.14350900 10832.46504610 0 146.97182518 0 3388.21997310 0 -259.78331383 0 -1009.28226759 0 22519
0.14450000 0.14449900 10929.45861151 0 107.96136748 0 3989.38077681 0 -128.45889808 0 -523.93244533 0 22218
0.14550000 0.14550500 10789.83659555 0 55.11781150 0 3817.26148750 0 -139.72498858 0 -798.56485397 0 23559
0.14650000 0.14650700 10890.36223258 0 222.34999808 0 4137.41775963 0 279.54852086 0 490.98342113 0 23044
0.14750000 0.14750500 10732.20514487 0 45.20896657 0 3935.61356749 0 859.18915404 0 80.53865133 0 23649
0.14850000 0.14849900 10715.14269232 0 -84.17159182 0 3556.30893618 0 843.27490158 0 838.76846538 0 23640
0.14950000 0.14949500 10607.28717626 0 122.35251094 0 3454.97501944 0 447.70834681 0 -3.90093505 0 24457
0.15050000 0.15050000 10458.84051742 0 391.72777976 0 3347.32987755 0 44.93437292 0 146.05725115 0 24591
0.15150000 0.15149900 9929.30658297 0 424.10436476 0 3303.31738639 0 -121.01497411 0 791.49628180 0 25020
0.15250000 0.15250500 9790.59249764 0 134.74465688 0 3091.06091962 0 125.11505599 0 853.16580934 0 25297
0.15350000 0.15350100 9846.57417192 0 -52.86492557 0 3093.12037204 0 339.62252639 0 689.94534749 0 25452
0.15450000 0.15450400 9830.61895186 0 25.13063419 0 3070.70998660 0 273.56946546 0 327.02000629 0 26061
0.15550000 0.15549900 9629.61196710 0 247.22619025 0 2905.06800732 0 80.42748519 0 768.62971659 0 26128
0.15650000 0.15649500 9538.49780617 0 101.52591085 0 2714.94511786 0 152.14038640 0 406.59791199 0 26331
0.15750000 0.15749700 9499.12461911 0 -10.48500442 0 2659.17381775 0 71.34828956 0 540.09803956 0 27345
0.15850000 0.15849900 9536.85910210 0 -22.42001836 0 2598.28710357 0 63.44652495 0 -15.06633383 0 26980
0.15950000 0.15949700 9445.47920537 0 100.24240696 0 2542.30542928 0 44.52325750 0 99.72909398 0 27777
0.16050000 0.16050000 9274.50036552 0 211.41939902 0 2363.31022627 0 -61.31078422 0 95.95088458 0 28224
0.16150000 0.16150500 9217.89864104 0 74.44710111 0 2471.59756299 0 236.29116226 0 198.56000097 0 28075
0.16250000 0.16249700 9073.05048777 0 197.03312738 0 2428.92482314 0 213.40909579 0 152.03741378 0 28590
0.16350000 0.16349900 8976.89841904 0 253.59609872 0 2479.29282874 0 -29.24732456 0 289.98418700 0 29163
0.16450000 0.16449100 8673.95961200 0 294.06433870 0 2603.92291690 0 -107.89105822 0 600.64704783 0 28996
0.16550000 0.16550500 8681.75452868 0 123.28369346 0 2670.16863629 0 -182.03787788 0 551.85241959 0 30777
0.16650000 0.16650700 8582.31397948 0 84.14789705 0 2829.43295648 0 -136.11762516 0 717.21094736 0 29211
0.16750000 0.16749900 8524.01818931 0 91.96374042 0 2808.05229726 0 28.21715546 0 487.46131461 0 30922
0.16850000 0.16850800 8509.67952867 0 74.11548498 0 2630.80652156 0 309.90662105 0 464.89813109 0 30867
0.16950000 0.16949900 8468.68978219 0 -37.44029131 0 2393.03941840 0 154.23416303 0 438.93795832 0 30852
0.17050000 0.17049200 8463.71830835 0 53.63090900 0 2363.59810671 0 335.91661928 0 533.95954268 0 31257
0.17150000 0.17149500 8402.59907535 0 159.41822551 0 2198.63153924 0 464.00570171 0 734.14938987 0 32608
0.17250000 0.17250900 8207.36077182 0 89.00953343 0 2062.30907607 0 163.61020768 0 624.32742892 0 32361
0.17350000 0.17350400 8185.92475097 0 140.37382682 0 2013.33618340 0 200.29614150 0 648.13735621 0 32508
0.17450000 0.17449800 7987.16544815 0 246.91727239 0 2036.10088323 0 -4.04570569 0 630.91767665 0 32791
0.17550000 0.17549800 7875.80000513 0 131.43071006 0 2032.88990903 0 -80.96703958 0 799.91014143 0 33633
0.17650000 0.17650100 7786.02559550 0 -6.95742817 0 2117.89214666 0 -135.48539541 0 461.00067275 0 33984
0.17750000 0.17750300 7849.81325878 0 -65.56045321 0 2181.12619370 0 50.20048133 0 445.94563270 0 34069
0.17850000 0.17849800 7803.99597868 0 59.73032057 0 2184.42574650 0 59.93870173 0 444.30803586 0 34536
