### header ###
fiducial parameters:
Omega_m = 0.31
Omega_nu = 0
Omega_de = 0.69
Omega_k = 0
H_0 = 100
w_de = -1
zeff = 0
beta = 0
fgrowth = 0
b_1 = 2
gamma = 0.55
Lx = 3500 Ly = 3500 Lz = 3500
nx = 700 ny = 700 nz = 700
xoffset = -685.467585 yoffset = -31.7331281 zoffset = 572.489161
bins = 400 dk = 0.001
kx_ny = 0.628318531 ky_ny = 0.628318531 kz_ny = 0.628318531
############################
A(data) = 8.02119102 (not used)
A(ran) = 8.01783733 (used)
Ngal = 475950
weighted Ngal = 0
Nran = 23820508
weighted Nran = 0
SN(data) = 3495.05077
SN(ran) = 69.8382709
SN(data+ran) = 3564.88904
############################
13 columns: k_central k_mean P_0(k) sigma^{lin}_{P_0(k)} P^img_1(k) sigma^{lin}_{P_1(k)} P_2(k) sigma^{lin}_{P_2(k)} P^img_3(k) sigma^{lin}_{P_3(k)} P_4(k) sigma^{lin}_{P_4(k)} N_modes
### header ###
0.00050000 0 0 0 0 0 0 0 0 0 0 0 0
0.00150000 0.00179520 9942.84803622 0 -9656.37377619 0 24365.31510292 0 -83751.06492824 0 4110.61166125 0 3
0.00250000 0.00253879 26166.45018117 0 -15344.24918018 0 -14720.65584639 0 36769.52987400 0 -15634.56553692 0 6
0.00350000 0.00331552 50882.20436460 0 -38606.65000791 0 25294.94749469 0 -56974.08675657 0 25439.55205683 0 7
0.00450000 0.00420575 66738.88073738 0 -26840.86548587 0 31105.92500602 0 -22720.74269761 0 27475.19897473 0 24
0.00550000 0.00557378 93186.34652245 0 9089.07214178 0 68779.06730847 0 -16383.38686441 0 10926.63516868 0 45
0.00650000 0.00659388 86359.37248577 0 19171.39825374 0 40835.73044040 0 4835.66070735 0 14131.71888929 0 40
0.00750000 0.00754703 70968.39809486 0 16824.84045493 0 44546.95227312 0 19604.10470765 0 4910.05565780 0 57
0.00850000 0.00846663 74417.09510612 0 -3992.10456871 0 20230.24467615 0 28320.68169789 0 -7783.66719031 0 75
0.00950000 0.00948925 80972.46501500 0 -14793.06885070 0 23779.14622702 0 43900.10705721 0 -39739.79172985 0 112
0.01050000 0.01054430 87298.30563039 0 -10399.06103572 0 -10781.91988330 0 1091.93938683 0 -18601.83786507 0 105
0.01150000 0.01145670 81776.53724333 0 2192.79642406 0 5705.70184695 0 8445.70363587 0 -19803.62800089 0 144
0.01250000 0.01249090 77334.98486558 0 6518.03402959 0 -12170.36727091 0 -7227.62611024 0 -9823.16727726 0 169
0.01350000 0.01339930 72298.95936831 0 5943.92291542 0 9509.43295352 0 -24422.33757574 0 -6910.33757024 0 180
0.01450000 0.01448870 63390.05609598 0 10046.30783933 0 -2615.27204984 0 -13545.32856689 0 3578.89647881 0 267
0.01550000 0.01550050 67765.50669457 0 3762.30953943 0 31587.34968913 0 -33429.56309246 0 -2547.87480867 0 238
0.01650000 0.01653350 66302.74186278 0 408.16243149 0 27052.45761316 0 -16058.63557748 0 8479.13098450 0 315
0.01750000 0.01747870 68114.50637285 0 134.29290603 0 47353.01155190 0 -3475.13772293 0 6470.02442918 0 297
0.01850000 0.01844180 74210.37480176 0 -7847.98632518 0 35092.29411047 0 15020.38367923 0 328.41179752 0 388
0.01950000 0.01947590 84049.24263561 0 -7420.81603368 0 29318.18744080 0 20247.51750287 0 -8460.95022714 0 399
0.02050000 0.02045430 81718.73970778 0 -4412.32144023 0 18310.52499909 0 18916.95622941 0 -16814.76463934 0 462
0.02150000 0.02154770 84058.54338845 0 6820.44136504 0 11032.07691793 0 9315.37938875 0 -18730.16610972 0 571
0.02250000 0.02255340 75495.42882021 0 5184.42786681 0 16302.66961648 0 -3360.04090644 0 -2652.28683171 0 510
0.02350000 0.02348930 72204.84460736 0 8913.66437200 0 14204.35334010 0 -4405.73340696 0 -2200.71313630 0 555
0.02450000 0.02439640 68609.55001549 0 4139.86474342 0 18423.01981925 0 -2103.86351112 0 6917.60101532 0 592
0.02550000 0.02547300 62588.19833262 0 3314.81045956 0 19777.16514457 0 3817.50507865 0 6842.05454308 0 837
0.02650000 0.02652900 65151.22008164 0 3003.17987754 0 24157.37684283 0 10720.72314403 0 10459.94774990 0 723
0.02750000 0.02749970 62804.21938983 0 2902.87568700 0 22357.34899706 0 6211.56315094 0 16366.33548419 0 826
0.02850000 0.02848090 59767.19141532 0 2666.03865913 0 23156.54940247 0 8736.11964354 0 26841.52982536 0 831
0.02950000 0.02946900 56863.58495488 0 -374.96981615 0 19424.17942935 0 10792.20607306 0 17846.26241945 0 996
0.03050000 0.03053250 59909.58151249 0 -651.65946274 0 19549.96103929 0 8607.40386752 0 14674.37352865 0 1041
0.03150000 0.03150510 58486.45560355 0 269.87684513 0 15194.10845564 0 -3486.15468613 0 8681.52200986 0 1036
0.03250000 0.03246190 56034.71071896 0 3929.16947444 0 18677.68329008 0 -7247.52307794 0 4019.50857264 0 1059
0.03350000 0.03345080 55234.84597406 0 4485.90811098 0 25120.55837880 0 -8161.46598545 0 11013.17645947 0 1302
0.03450000 0.03451200 52114.33267042 0 2589.21886954 0 27378.53757907 0 -5812.59407075 0 3029.58737223 0 1339
0.03550000 0.03553350 50746.23621583 0 2728.38692019 0 27806.81510305 0 1187.34075193 0 3758.63352759 0 1365
0.03650000 0.03647120 50827.83924974 0 -432.40417945 0 31077.35840798 0 -1381.44967832 0 -3578.49787511 0 1308
0.03750000 0.03744890 52006.59894993 0 -705.31373434 0 29745.13628580 0 4031.40024949 0 -4923.68568965 0 1579
0.03850000 0.03847530 49863.21831154 0 423.12446401 0 28973.61669244 0 5019.01840634 0 -7720.53279420 0 1662
0.03950000 0.03950240 48901.91907079 0 747.99643929 0 24774.43750497 0 2046.29849438 0 -1874.48923017 0 1683
0.04050000 0.04050350 48976.65726331 0 2841.00353592 0 24086.95685698 0 4034.93232111 0 -5316.81965467 0 1822
0.04150000 0.04152450 47165.11419973 0 4790.05380142 0 24692.17013157 0 4053.24594636 0 4263.42081607 0 1887
0.04250000 0.04250150 41564.62158321 0 2178.88958409 0 25937.25305742 0 2520.11649035 0 4853.98540492 0 1920
0.04350000 0.04349210 43214.95159743 0 642.35649542 0 25477.97302395 0 320.61134468 0 2954.68309483 0 2005
0.04450000 0.04448520 41173.65779387 0 445.11410110 0 29543.50925086 0 -400.49373932 0 4945.01098726 0 2151
0.04550000 0.04548030 42578.40364361 0 2362.93376722 0 30152.70856238 0 -1889.23756683 0 4218.81041938 0 2274
0.04650000 0.04648670 40741.83712594 0 1887.11168047 0 32556.17811076 0 -3546.11132502 0 7257.53245958 0 2311
0.04750000 0.04749250 40721.46404827 0 -29.16029609 0 29504.97756049 0 -549.01015381 0 4226.16244305 0 2568
0.04850000 0.04851840 41159.81738784 0 -1092.45092823 0 29853.31289928 0 6466.81345498 0 1522.89862788 0 2493
0.04950000 0.04949480 39725.61915408 0 458.03328970 0 26348.14703144 0 6499.03392020 0 1194.65955863 0 2644
0.05050000 0.05050630 42166.51316035 0 84.42459445 0 23343.78241515 0 8131.37140659 0 -794.01412846 0 2829
0.05150000 0.05149060 39321.59002145 0 818.23041008 0 21658.24240801 0 6806.42380182 0 -279.13330868 0 2784
0.05250000 0.05249300 37725.84656859 0 1306.44575000 0 17329.95991315 0 2386.38495119 0 2117.15030090 0 3055
0.05350000 0.05348950 37803.24211907 0 476.07896469 0 17619.50120716 0 2860.84514199 0 3370.21637295 0 3009
0.05450000 0.05448610 37617.78067836 0 -529.48189453 0 16858.61104562 0 99.38939506 0 2922.39619566 0 3336
0.05550000 0.05550870 37666.16673782 0 -1198.53487232 0 17142.06256098 0 -427.76708981 0 3135.29485727 0 3349
0.05650000 0.05647670 39157.16599789 0 -243.69301140 0 16118.31540825 0 -275.18934658 0 315.84360161 0 3324
0.05750000 0.05747970 38087.69014366 0 1810.25867390 0 16864.92227077 0 -1237.58696195 0 1254.18437686 0 3639
0.05850000 0.05849280 37684.32535052 0 2156.29096913 0 15785.37060095 0 1469.46358831 0 -1647.76123486 0 3846
0.05950000 0.05951020 34743.40515544 0 1764.62962332 0 15776.51274110 0 1359.32717334 0 -2066.80443995 0 3787
0.06050000 0.06049470 33554.12674667 0 1439.31364783 0 13966.51980299 0 2830.90557568 0 -484.70098403 0 3930
0.06150000 0.06148310 32426.85335688 0 606.47773408 0 10879.99853655 0 4615.18857556 0 193.89855222 0 4083
0.06250000 0.06249100 32409.46980692 0 -775.08598919 0 10229.35551323 0 6189.00882528 0 3424.70328338 0 4303
0.06350000 0.06350600 32658.15422234 0 -788.68501853 0 7615.40107004 0 4025.88623173 0 1471.48982375 0 4470
0.06450000 0.06451750 32058.47711016 0 1265.37849725 0 7918.89349332 0 626.70354983 0 3190.45717952 0 4479
0.06550000 0.06550280 31406.98151783 0 1226.17139507 0 7236.48397010 0 -1213.62645105 0 3703.26083117 0 4636
0.06650000 0.06648880 30279.48668155 0 683.64298021 0 9468.09996497 0 -2002.61817297 0 5721.04808914 0 4653
0.06750000 0.06749660 30001.46060536 0 558.97192445 0 9351.20943186 0 -422.16006452 0 4063.56535309 0 5220
0.06850000 0.06852730 30282.36548600 0 159.55109340 0 10466.52471084 0 26.53227979 0 2636.76343231 0 5029
0.06950000 0.06949320 29704.27940722 0 164.91231308 0 9200.30471691 0 1136.34162381 0 3132.51570374 0 5040
0.07050000 0.07048030 29572.51874188 0 88.74501559 0 9605.07569530 0 1135.81015222 0 2598.56391169 0 5475
0.07150000 0.07148790 29564.43594476 0 107.96778943 0 8158.41002380 0 1531.92257261 0 4267.06361093 0 5509
0.07250000 0.07249820 29817.43856687 0 120.35174185 0 8295.39682645 0 967.16868014 0 2669.93611747 0 5916
0.07350000 0.07351270 29555.35663841 0 1106.30240658 0 10104.28253208 0 -1862.01072010 0 5116.99740866 0 5721
0.07450000 0.07449140 28510.23989878 0 1200.40609521 0 10158.41512812 0 -1137.85853231 0 3856.30250481 0 6028
0.07550000 0.07549160 27095.97184969 0 2002.81747482 0 11541.79139096 0 -1720.73892774 0 4492.06432357 0 6183
0.07650000 0.07648840 26357.11561455 0 1125.23608202 0 12001.84648717 0 -1118.18301111 0 2833.69580154 0 6330
0.07750000 0.07749960 25851.44254008 0 -253.76218359 0 12915.20256146 0 952.62075256 0 2082.67108141 0 6583
0.07850000 0.07848650 24933.76825911 0 642.41074982 0 12124.41712291 0 1719.01164507 0 889.04899962 0 6549
0.07950000 0.07947320 25087.11995785 0 415.74918845 0 10625.66723546 0 438.96231744 0 -671.24861981 0 6828
0.08050000 0.08048110 24196.57287268 0 636.66864216 0 9538.17670875 0 2429.23484824 0 -1541.89873727 0 7147
0.08150000 0.08149960 23341.78939668 0 698.93718248 0 8889.20560648 0 1470.55974846 0 147.54537160 0 7386
0.08250000 0.08250610 22949.38620511 0 121.37703913 0 7595.49303002 0 2370.36329718 0 177.68977592 0 7227
0.08350000 0.08350160 22868.77968043 0 -444.38886383 0 6585.63057261 0 2252.13301276 0 894.43125671 0 7798
0.08450000 0.08449610 22818.84349550 0 82.95275031 0 6129.10754801 0 1536.65045531 0 393.19375556 0 7371
0.08550000 0.08548940 22747.75917016 0 406.69202675 0 6986.33800780 0 304.71037901 0 2863.59107855 0 8256
0.08650000 0.08650700 22298.11205928 0 774.99519612 0 6424.58360812 0 -174.70578438 0 2484.12036236 0 8037
0.08750000 0.08749060 21428.82383777 0 399.07537451 0 5848.49054781 0 73.52898393 0 3522.40547758 0 8155
0.08850000 0.08849210 21775.05543485 0 455.65384710 0 6508.72220442 0 -225.92193006 0 1842.08053543 0 8718
0.08950000 0.08949900 21162.53442588 0 888.49316891 0 6992.67137759 0 -611.50899848 0 1540.41504574 0 8571
0.09050000 0.09049190 20177.98330300 0 1457.83764725 0 6476.35779897 0 -769.06153725 0 1976.19960596 0 8932
0.09150000 0.09150830 18784.53122458 0 979.58186350 0 6907.10445139 0 -125.75614359 0 2110.13044696 0 9285
0.09250000 0.09250820 18591.20843324 0 -81.46307973 0 6501.93486930 0 346.92029568 0 248.04222059 0 9204
0.09350000 0.09350330 18262.24966288 0 34.90362170 0 6579.82867440 0 1106.23597263 0 -495.94714435 0 9349
0.09450000 0.09448040 18152.41220068 0 613.46879997 0 6133.65827351 0 557.30111063 0 -743.54425748 0 9564
0.09550000 0.09549270 17648.95359118 0 297.59530308 0 4678.21224843 0 447.23666577 0 -58.39710194 0 10155
0.09650000 0.09649430 17612.08274953 0 -71.51581383 0 5293.47919395 0 63.73595552 0 -157.17386527 0 9913
0.09750000 0.09749140 17398.16543404 0 263.87453785 0 5275.79669121 0 244.53782978 0 -924.32653372 0 10476
0.09850000 0.09850240 17255.00027413 0 528.86295157 0 5073.33923190 0 -61.22486298 0 21.07417727 0 10575
0.09950000 0.09950330 16914.96917895 0 212.48898559 0 4918.88030068 0 -217.10835951 0 672.09233096 0 10882
0.10050000 0.10051200 16825.17262467 0 75.37385469 0 5191.55844399 0 -173.56976386 0 -224.24779455 0 10875
0.10150000 0.10150300 16971.88092852 0 -25.33746522 0 5275.33165357 0 330.58197318 0 -4.11838443 0 11118
0.10250000 0.10250800 16816.20404157 0 103.75598779 0 5416.91347103 0 127.60190014 0 -260.61152372 0 11575
0.10350000 0.10349800 16560.98695450 0 175.19739561 0 4930.39551850 0 -140.25756741 0 187.95824996 0 11364
0.10450000 0.10450100 16723.30723634 0 244.09050786 0 5258.53493682 0 85.18293797 0 -857.80732791 0 12093
0.10550000 0.10551000 16439.74499773 0 246.26843415 0 5489.08288419 0 -91.20096796 0 107.83049260 0 12067
0.10650000 0.10649700 16167.03363745 0 512.09059393 0 5731.72181027 0 -398.53283059 0 -1049.70068211 0 12054
0.10750000 0.10749900 15803.30776716 0 331.93833297 0 6056.84955624 0 -37.06848264 0 -128.72463388 0 12807
0.10850000 0.10850100 15856.89781928 0 87.56249130 0 5904.04040142 0 141.71136366 0 -557.32879144 0 12736
0.10950000 0.10950300 15673.42939703 0 190.56356799 0 6012.06200235 0 291.79340488 0 -621.35561694 0 12933
0.11050000 0.11050200 15512.99141041 0 166.33732129 0 5826.46769374 0 -269.62107443 0 -564.12498442 0 13428
0.11150000 0.11150900 14979.52680065 0 569.92023923 0 5756.03663557 0 702.89775307 0 293.71113153 0 13453
0.11250000 0.11250000 14929.36916922 0 469.64372951 0 5695.60388671 0 443.07900780 0 -299.28161815 0 13668
0.11350000 0.11349100 14117.10342053 0 346.96901391 0 5746.11583253 0 458.72198831 0 -121.02161750 0 13791
0.11450000 0.11448600 14300.46111952 0 136.54169520 0 5835.05981780 0 486.71503991 0 242.70646726 0 14205
0.11550000 0.11549300 14121.20018071 0 -212.92744966 0 5046.55527817 0 503.67341261 0 76.91324001 0 14776
0.11650000 0.11649800 14447.94448611 0 -143.42535954 0 5191.68023957 0 342.38285697 0 113.87886076 0 14553
0.11750000 0.11747300 14520.13604392 0 -156.90148608 0 4651.81582606 0 223.30443248 0 472.37859374 0 14568
0.11850000 0.11849100 14519.91459743 0 80.05346206 0 4691.60976146 0 275.89686813 0 405.50064460 0 16015
0.11950000 0.11950300 14451.81979979 0 112.34202207 0 4648.47198396 0 -140.01729796 0 150.14404624 0 15270
0.12050000 0.12050700 14226.05509674 0 310.05941913 0 4581.84980553 0 284.40927145 0 73.32890702 0 15999
0.12150000 0.12150000 14313.52646281 0 183.77401841 0 4639.68055806 0 161.62604708 0 218.95079436 0 15670
0.12250000 0.12250700 13862.21850320 0 286.80864424 0 4798.80093803 0 -260.73664099 0 411.91262790 0 16887
0.12350000 0.12352200 13797.44540301 0 397.91167317 0 4936.39671855 0 279.58505953 0 528.00041746 0 16407
0.12450000 0.12449800 13479.55895747 0 341.96653756 0 4649.78959062 0 24.50095108 0 691.50765253 0 16306
0.12550000 0.12549900 13177.61665966 0 154.61615823 0 4587.70706536 0 558.29097647 0 576.56584858 0 17523
0.12650000 0.12650100 13255.23365664 0 51.13454265 0 4521.05166995 0 249.98873529 0 304.67716203 0 17154
0.12750000 0.12750600 13045.52382458 0 224.25111625 0 4312.78124011 0 440.13376940 0 264.34511165 0 18007
0.12850000 0.12850300 12878.66388956 0 1.45723974 0 4041.30998021 0 134.70368928 0 682.36966285 0 17496
0.12950000 0.12949900 12746.01743823 0 136.90708192 0 3984.81897898 0 637.30972977 0 364.31602521 0 18405
0.13050000 0.13049000 12716.56505422 0 81.56439150 0 3704.68916107 0 -119.11717763 0 386.89138828 0 18100
0.13150000 0.13148800 12449.72202609 0 235.39651841 0 3654.35437245 0 491.54810970 0 538.62763483 0 19059
0.13250000 0.13249300 12311.76085885 0 374.47156153 0 3470.40984023 0 204.67524597 0 540.04378517 0 18957
0.13350000 0.13349100 12043.47842849 0 163.49726997 0 3252.45112618 0 360.82049226 0 580.20310729 0 19468
0.13450000 0.13450700 12045.02855396 0 116.04017856 0 3412.44621981 0 198.27544222 0 603.14385708 0 19953
0.13550000 0.13551000 11792.24737835 0 133.26096535 0 3111.24576777 0 -0.35105249 0 301.10855175 0 19956
0.13650000 0.13649900 11797.11920127 0 233.95490172 0 3158.53566707 0 -21.24889856 0 563.49386190 0 19723
0.13750000 0.13749600 11545.11308840 0 97.38906885 0 3001.59653509 0 7.12797519 0 219.69706905 0 20946
0.13850000 0.13851100 11500.93451238 0 193.44680137 0 3249.74947892 0 181.90611721 0 472.72072857 0 20955
0.13950000 0.13949800 11388.32896897 0 117.73645873 0 3423.38567673 0 -144.94448250 0 562.58039511 0 20506
0.14050000 0.14048300 11216.48648779 0 288.31780212 0 3491.12615997 0 294.07873272 0 1025.03375688 0 21447
0.14150000 0.14148400 11186.36976428 0 38.06587766 0 3520.42353144 0 84.90679419 0 1354.75430319 0 21771
0.14250000 0.14249400 11065.93608723 0 4.23878489 0 3675.92326119 0 378.02134887 0 1567.68618177 0 22470
0.14350000 0.14350900 11279.48801600 0 161.43449586 0 4046.28145405 0 165.87006918 0 1517.38461012 0 22519
0.14450000 0.14449900 11090.26198485 0 152.48695017 0 3647.76633918 0 196.51051365 0 1920.46152282 0 22218
0.14550000 0.14550500 11006.40019668 0 39.36621149 0 3711.93046150 0 55.79045523 0 1920.36187190 0 23559
0.14650000 0.14650700 11044.04610106 0 121.83986230 0 3673.60914530 0 59.96771122 0 2065.06608495 0 23044
0.14750000 0.14750500 10894.08253372 0 100.27883491 0 3538.11710650 0 271.89643718 0 1542.24197934 0 23649
0.14850000 0.14849900 10769.51887951 0 99.26771021 0 3393.05857905 0 99.33204041 0 1347.52407508 0 23640
0.14950000 0.14949500 10639.50764149 0 228.94910367 0 3282.35747551 0 -94.64435025 0 793.07851702 0 24457
0.15050000 0.15050000 10214.34144077 0 328.02869508 0 3248.02219625 0 105.95871609 0 850.52063094 0 24591
0.15150000 0.15149900 10114.04832257 0 302.12499116 0 3007.63095211 0 -47.78638235 0 654.01786792 0 25020
0.15250000 0.15250500 9771.28236316 0 165.84460283 0 2816.92122944 0 370.75015316 0 571.47700810 0 25297
0.15350000 0.15350100 9756.85512392 0 55.33006797 0 2678.43966293 0 227.71343222 0 335.00204525 0 25452
0.15450000 0.15450400 9805.14153245 0 -64.22214131 0 2515.16716115 0 225.27530630 0 277.88656490 0 26061
0.15550000 0.15549900 9724.95575611 0 95.42926736 0 2587.20370642 0 187.20422464 0 178.40836980 0 26128
0.15650000 0.15649500 9581.19269067 0 178.98634516 0 2397.37976973 0 65.31187951 0 590.45829453 0 26331
0.15750000 0.15749700 9427.76348566 0 225.09925633 0 2556.07940136 0 170.49276479 0 422.57084777 0 27345
0.15850000 0.15849900 9262.28759124 0 188.67462937 0 2431.02856486 0 321.07970402 0 564.57009188 0 26980
0.15950000 0.15949700 9103.99763564 0 161.98921933 0 2537.28966614 0 -44.62124757 0 736.90750598 0 27777
0.16050000 0.16050000 9115.59035972 0 131.39638586 0 2626.92013555 0 -186.89419954 0 668.18380030 0 28224
0.16150000 0.16150500 9071.86574901 0 -66.84129974 0 2597.50096851 0 -24.67799756 0 847.07935239 0 28075
0.16250000 0.16249700 9111.62646744 0 4.53258903 0 2604.72012429 0 -65.60706769 0 886.25213037 0 28590
0.16350000 0.16349900 9202.12057818 0 59.88721542 0 2610.05698485 0 -151.85361319 0 543.66443539 0 29163
0.16450000 0.16449100 9184.20555662 0 123.02127936 0 2721.67709135 0 -207.08126215 0 447.39389278 0 28996
0.16550000 0.16550500 9057.31671420 0 162.87389808 0 2590.69148874 0 -47.01098744 0 421.05504651 0 30777
0.16650000 0.16650700 8914.01868640 0 145.08510103 0 2760.38593891 0 -29.71823054 0 453.20575608 0 29211
0.16750000 0.16749900 8820.69006050 0 189.10423558 0 2827.29599779 0 15.70841794 0 -40.96040482 0 30922
0.16850000 0.16850800 8557.20194679 0 129.92819558 0 2762.01357066 0 223.56352488 0 92.42722793 0 30867
0.16950000 0.16949900 8560.80045236 0 127.08925150 0 2726.80357774 0 202.60029230 0 -103.34874769 0 30852
0.17050000 0.17049200 8409.06531304 0 96.58710037 0 2490.02191149 0 218.73045509 0 356.70380189 0 31257
0.17150000 0.17149500 8442.27121517 0 15.28479080 0 2361.49436500 0 264.35175505 0 273.26276206 0 32608
0.17250000 0.17250900 8213.95987741 0 16.89061006 0 2251.07006958 0 441.87212440 0 467.49126956 0 32361
0.17350000 0.17350400 8301.20979698 0 141.11788705 0 1986.89547173 0 239.78780244 0 296.38066905 0 32508
0.17450000 0.17449800 8141.56901775 0 187.52532206 0 1915.01393901 0 -9.38019678 0 273.08892656 0 32791
0.17550000 0.17549800 7899.98196253 0 198.09607056 0 2008.55293908 0 -40.56324053 0 302.60553006 0 33633
0.17650000 0.17650100 7821.95528953 0 190.89130880 0 1977.89367165 0 -213.49656715 0 427.79034169 0 33984
0.17750000 0.17750300 7738.63604527 0 34.94038181 0 2153.00248866 0 37.58068839 0 601.60369670 0 34069
0.17850000 0.17849800 7688.54484779 0 -11.06589180 0 2129.26342425 0 135.02367947 0 544.09071989 0 34536
