### header ###
fiducial parameters:
Omega_m = 0.31
Omega_nu = 0
Omega_de = 0.69
Omega_k = 0
H_0 = 100
w_de = -1
zeff = 0
beta = 0
fgrowth = 0
b_1 = 2
gamma = 0.55
Lx = 3500 Ly = 3500 Lz = 3500
nx = 700 ny = 700 nz = 700
xoffset = -685.467585 yoffset = -31.7331281 zoffset = 572.489161
bins = 400 dk = 0.001
kx_ny = 0.628318531 ky_ny = 0.628318531 kz_ny = 0.628318531
############################
A(data) = 8.04912395 (not used)
A(ran) = 8.04302054 (used)
Ngal = 477969
weighted Ngal = 0
Nran = 23820508
weighted Nran = 0
SN(data) = 3493.90761
SN(ran) = 70.0576258
SN(data+ran) = 3563.96523
############################
13 columns: k_central k_mean P_0(k) sigma^{lin}_{P_0(k)} P^img_1(k) sigma^{lin}_{P_1(k)} P_2(k) sigma^{lin}_{P_2(k)} P^img_3(k) sigma^{lin}_{P_3(k)} P_4(k) sigma^{lin}_{P_4(k)} N_modes
### header ###
0.00050000 0 0 0 0 0 0 0 0 0 0 0 0
0.00150000 0.00179520 9160.44434756 0 5032.65951052 0 25576.29526834 0 -21294.07364472 0 -5874.44407718 0 3
0.00250000 0.00253879 22211.41575595 0 2937.32168951 0 8920.47385177 0 -5959.78955688 0 5528.41178195 0 6
0.00350000 0.00331552 31132.94147857 0 -20042.12587748 0 -12168.81714544 0 42297.27731646 0 8413.17314555 0 7
0.00450000 0.00420575 46719.23167929 0 -36408.57208491 0 748.00861884 0 -6167.89390185 0 -2660.77930484 0 24
0.00550000 0.00557378 70833.75862506 0 -8262.66703429 0 7055.44038699 0 -2915.05524430 0 -21125.22069124 0 45
0.00650000 0.00659388 97074.61482901 0 -1315.64685193 0 12556.90213033 0 -27885.87150226 0 10891.56911598 0 40
0.00750000 0.00754703 76853.11728947 0 7051.15539728 0 -6357.60711529 0 -14270.34439602 0 1671.85461367 0 57
0.00850000 0.00846663 80839.26494743 0 4853.79717540 0 2292.02659908 0 -26509.69225055 0 -22668.48132446 0 75
0.00950000 0.00948925 68884.58656399 0 9831.96977549 0 7196.00355056 0 -16308.75939513 0 -27498.34013360 0 112
0.01050000 0.01054430 63770.50117675 0 8935.69829839 0 17147.70944664 0 -11602.57845421 0 -17242.59927033 0 105
0.01150000 0.01145670 56234.01256569 0 3862.44764509 0 6553.58726458 0 -2443.28562843 0 -4108.87330625 0 144
0.01250000 0.01249090 64261.89095220 0 -8190.02151116 0 14076.24654195 0 -716.23215385 0 -25088.67008332 0 169
0.01350000 0.01339930 69773.69424693 0 -13401.27762100 0 12271.34687326 0 -8872.89607202 0 -35428.44989197 0 180
0.01450000 0.01448870 70323.98879041 0 8548.78697993 0 22676.67484483 0 -18688.31272190 0 -27085.45314112 0 267
0.01550000 0.01550050 77659.51470601 0 1880.32434535 0 22784.29784207 0 -2035.71335186 0 -8447.27590599 0 238
0.01650000 0.01653350 71350.50402435 0 -4648.29482677 0 19174.05561170 0 -3017.54068283 0 -18038.92087129 0 315
0.01750000 0.01747870 81845.51782695 0 -6902.81946169 0 14561.43581550 0 10886.53120819 0 -22952.70790256 0 297
0.01850000 0.01844180 78490.71413015 0 -3349.14573882 0 14199.92441017 0 4128.80349092 0 -60495.52894189 0 388
0.01950000 0.01947590 78463.58693434 0 7832.90581878 0 9550.45591697 0 -16621.22040151 0 -42713.48600640 0 399
0.02050000 0.02045430 69740.58799572 0 10486.75384829 0 10366.57483471 0 -10759.57593182 0 -48708.48555620 0 462
0.02150000 0.02154770 62849.83736808 0 5945.57269182 0 4610.20602939 0 -9556.58998492 0 -36210.04530092 0 571
0.02250000 0.02255340 60601.93398340 0 -1301.48534848 0 3916.31450533 0 2565.13656306 0 -31023.10401637 0 510
0.02350000 0.02348930 60232.45050420 0 -3368.63303050 0 6816.39996648 0 6013.52354923 0 -30324.66176681 0 555
0.02450000 0.02439640 63053.12525175 0 -1573.85346670 0 6245.53304348 0 7227.71468884 0 -21492.82187522 0 592
0.02550000 0.02547300 64729.03233630 0 -1785.91063162 0 6945.65828641 0 6922.15174082 0 -14351.39381369 0 837
0.02650000 0.02652900 68063.02006245 0 -273.92488708 0 9992.70671488 0 4880.83579261 0 -13759.35660564 0 723
0.02750000 0.02749970 61747.03381614 0 4591.75953624 0 13077.63356655 0 -6676.06932173 0 -11258.45059885 0 826
0.02850000 0.02848090 61240.14278595 0 7608.42550541 0 18095.50045111 0 -5536.29527722 0 423.87295317 0 831
0.02950000 0.02946900 53911.37098849 0 3953.16320233 0 15242.71596159 0 -9685.84830486 0 -2247.51585331 0 996
0.03050000 0.03053250 52378.96123358 0 1107.27677116 0 18977.07895317 0 -318.80323404 0 -5254.78141871 0 1041
0.03150000 0.03150510 51616.07805358 0 1912.45623198 0 15930.75022582 0 661.95118866 0 -9135.87485879 0 1036
0.03250000 0.03246190 52341.64749895 0 2128.16726409 0 12666.96103903 0 6987.50060190 0 -13130.33783269 0 1059
0.03350000 0.03345080 49368.61756189 0 -1704.19687446 0 10910.03775378 0 4362.10844718 0 -6058.80935774 0 1302
0.03450000 0.03451200 50650.23915965 0 -29.73572481 0 8239.16048870 0 3597.67514170 0 -11006.13446088 0 1339
0.03550000 0.03553350 53254.67140349 0 -2503.50800312 0 14636.39545452 0 4666.06590810 0 -6252.64147601 0 1365
0.03650000 0.03647120 49481.99816803 0 2143.31420444 0 12238.79423829 0 2461.76533855 0 -7085.28030238 0 1308
0.03750000 0.03744890 50255.17861012 0 3541.41665930 0 11993.87441330 0 -1065.80648579 0 -4926.59771108 0 1579
0.03850000 0.03847530 47919.47168963 0 1895.59308128 0 15715.28278485 0 -2842.58687837 0 -2543.77804849 0 1662
0.03950000 0.03950240 45078.31314116 0 2177.07372282 0 14663.30120383 0 -2222.23773575 0 -1901.16246066 0 1683
0.04050000 0.04050350 44000.86521306 0 1319.50002096 0 14110.12785589 0 284.73590504 0 212.01509009 0 1822
0.04150000 0.04152450 44462.80260449 0 -245.48340632 0 13026.14725614 0 1298.07507244 0 -7577.48942986 0 1887
0.04250000 0.04250150 43862.68259932 0 650.55555195 0 13503.58590232 0 1773.04459018 0 -6163.44282727 0 1920
0.04350000 0.04349210 43219.49125061 0 2519.50751248 0 13666.01690741 0 -3109.96137809 0 -6214.24265354 0 2005
0.04450000 0.04448520 40743.27652817 0 2440.06358191 0 13952.12578073 0 1134.33753302 0 -1980.80569308 0 2151
0.04550000 0.04548030 40319.98155035 0 -250.74165338 0 14747.78304220 0 774.60987922 0 -1502.86879228 0 2274
0.04650000 0.04648670 38926.64019517 0 -551.42502785 0 11825.79652256 0 5034.29821459 0 -2500.54062007 0 2311
0.04750000 0.04749250 41409.16614276 0 -1858.41221454 0 13775.19003013 0 1428.81708390 0 -3468.26180922 0 2568
0.04850000 0.04851840 41852.72347499 0 37.06936843 0 10512.80702859 0 1185.97885597 0 -3931.33965011 0 2493
0.04950000 0.04949480 41239.31668004 0 1671.22349115 0 11456.97738285 0 -4040.18060308 0 -3476.61034213 0 2644
0.05050000 0.05050630 39832.79925833 0 1288.97362144 0 11330.75287991 0 -102.16057651 0 -4283.90461698 0 2829
0.05150000 0.05149060 38707.96178000 0 1835.96861213 0 11004.27431031 0 -50.53674783 0 -4062.08166157 0 2784
0.05250000 0.05249300 37877.53741860 0 1153.07190661 0 11365.51997984 0 -186.62957098 0 -2731.07749512 0 3055
0.05350000 0.05348950 37067.37541162 0 661.45293404 0 15188.79373972 0 847.69275919 0 -568.50962505 0 3009
0.05450000 0.05448610 37064.27516067 0 958.22113446 0 13125.68745626 0 3135.77096724 0 1.55485336 0 3336
0.05550000 0.05550870 35661.63305265 0 1059.35574935 0 12147.44755854 0 945.53557191 0 1450.46347892 0 3349
0.05650000 0.05647670 35608.26444702 0 619.61947641 0 11917.47537205 0 1614.49997111 0 -564.65534878 0 3324
0.05750000 0.05747970 35395.78653375 0 664.43914004 0 13646.30816924 0 -365.62477400 0 -807.13594061 0 3639
0.05850000 0.05849280 33413.84039121 0 1752.41684905 0 13444.90258079 0 -967.40009173 0 -2492.31388273 0 3846
0.05950000 0.05951020 32230.54103785 0 1821.38636034 0 12920.07438438 0 -1238.82706233 0 -1793.00799183 0 3787
0.06050000 0.06049470 31308.32710370 0 108.41821161 0 13291.66160530 0 -1268.22408473 0 -4879.04207599 0 3930
0.06150000 0.06148310 30688.16619061 0 -259.91175279 0 11600.69615899 0 988.27142401 0 -4029.13042291 0 4083
0.06250000 0.06249100 31450.82792412 0 -629.24686284 0 12572.62483157 0 2149.65864657 0 -4996.40871906 0 4303
0.06350000 0.06350600 31676.14973418 0 -824.90702194 0 8460.72878065 0 1774.30683521 0 -6140.16880051 0 4470
0.06450000 0.06451750 32254.78942920 0 184.23794882 0 9397.09314591 0 2427.06467257 0 -6296.97506459 0 4479
0.06550000 0.06550280 32633.13076825 0 15.88158910 0 7255.58373041 0 1415.80710224 0 -5503.69835295 0 4636
0.06650000 0.06648880 31544.72123858 0 855.84199025 0 6988.55247276 0 1038.28954415 0 -3339.86713062 0 4653
0.06750000 0.06749660 31282.52858687 0 1358.47460432 0 7650.75500319 0 -992.60513195 0 -1706.63278592 0 5220
0.06850000 0.06852730 30345.03484448 0 583.20038562 0 7775.54010389 0 1083.53549229 0 -1547.27988713 0 5029
0.06950000 0.06949320 30119.04869493 0 803.22519548 0 11209.84309289 0 -2826.11125904 0 90.71046397 0 5040
0.07050000 0.07048030 29736.16770270 0 989.26128985 0 10444.16968703 0 -1662.70887337 0 867.98722335 0 5475
0.07150000 0.07148790 29844.78720917 0 376.33060487 0 13637.00741639 0 -1207.83562517 0 3823.25161523 0 5509
0.07250000 0.07249820 29235.69862090 0 591.41937233 0 14332.57086150 0 862.44441754 0 3219.72133401 0 5916
0.07350000 0.07351270 29099.39830238 0 497.38543934 0 12858.62298164 0 2333.69175738 0 2653.51585976 0 5721
0.07450000 0.07449140 28454.87827469 0 450.99129112 0 12797.83591838 0 2835.40093956 0 945.77805582 0 6028
0.07550000 0.07549160 27473.87029576 0 674.59910530 0 10033.76289531 0 1487.76614123 0 525.36188246 0 6183
0.07650000 0.07648840 26402.17997656 0 1330.78271995 0 10843.54844324 0 1409.89448078 0 441.28861288 0 6330
0.07750000 0.07749960 25600.54365969 0 681.79279473 0 7699.18535194 0 2377.33886181 0 906.89205106 0 6583
0.07850000 0.07848650 24655.29928992 0 -516.95355899 0 6767.36063986 0 2272.81611552 0 2397.24690184 0 6549
0.07950000 0.07947320 24840.20711439 0 -284.42145101 0 4475.98730794 0 3296.53005128 0 -151.48711924 0 6828
0.08050000 0.08048110 25260.95545750 0 -181.66584776 0 4189.44661396 0 1962.66922503 0 1257.40642338 0 7147
0.08150000 0.08149960 24363.32208445 0 570.15386528 0 3379.21817303 0 811.52833186 0 1767.79630822 0 7386
0.08250000 0.08250610 23981.88049445 0 857.23488871 0 3070.97572240 0 -666.10773939 0 1647.35155884 0 7227
0.08350000 0.08350160 23107.60972677 0 1124.37244068 0 3275.73622527 0 -115.20200358 0 2325.39858609 0 7798
0.08450000 0.08449610 22182.62771142 0 1514.77154146 0 4390.69718986 0 -1901.42819646 0 1821.10955222 0 7371
0.08550000 0.08548940 21313.78238290 0 1223.91264080 0 4383.89878242 0 -1067.25474587 0 2734.39919256 0 8256
0.08650000 0.08650700 20589.43089327 0 447.31860098 0 6309.32070676 0 -1014.89925797 0 1179.35760573 0 8037
0.08750000 0.08749060 20060.50593668 0 175.36237325 0 5578.91265545 0 -883.62688215 0 1275.29930029 0 8155
0.08850000 0.08849210 20421.13155602 0 -478.58906073 0 6468.98363064 0 -299.21186250 0 -1345.84108171 0 8718
0.08950000 0.08949900 20952.49242407 0 -12.80857607 0 7345.92282861 0 -1556.15989164 0 -1559.66981860 0 8571
0.09050000 0.09049190 21159.21272843 0 -172.30198267 0 7692.53088473 0 -597.25670197 0 -1954.27640282 0 8932
0.09150000 0.09150830 20645.89974984 0 407.06294963 0 7625.28865611 0 185.20345554 0 -1551.91919123 0 9285
0.09250000 0.09250820 20827.37515362 0 268.93348306 0 6526.60400900 0 910.01333943 0 -1805.49757423 0 9204
0.09350000 0.09350330 20380.71757043 0 -37.37496460 0 6243.26321689 0 1942.63938943 0 -883.68777994 0 9349
0.09450000 0.09448040 20204.88905231 0 503.48407585 0 5410.77940308 0 1973.99621332 0 -1040.10429819 0 9564
0.09550000 0.09549270 19382.76893453 0 626.12778894 0 5343.43752353 0 1240.35504316 0 -638.53986506 0 10155
0.09650000 0.09649430 18894.92230302 0 715.59660240 0 4745.06694568 0 998.79788322 0 -489.56394909 0 9913
0.09750000 0.09749140 18041.13533625 0 857.49508835 0 5409.98219569 0 -259.75895471 0 388.11709464 0 10476
0.09850000 0.09850240 17624.92664632 0 345.95811066 0 5207.56902568 0 -269.10953302 0 1717.24007310 0 10575
0.09950000 0.09950330 17602.11765719 0 39.52399212 0 6237.57204193 0 -528.88288175 0 1474.34648355 0 10882
0.10050000 0.10051200 17561.92511810 0 93.66500312 0 5719.04399835 0 316.93311838 0 860.12144379 0 10875
0.10150000 0.10150300 17925.20809540 0 243.36084165 0 6620.54161276 0 -712.40002223 0 153.21329468 0 11118
0.10250000 0.10250800 17143.39123996 0 749.98835052 0 6522.81727391 0 -952.11031839 0 -353.95011471 0 11575
0.10350000 0.10349800 16763.83194518 0 670.16131751 0 7089.49885813 0 -1018.87200811 0 258.27637042 0 11364
0.10450000 0.10450100 16336.55093042 0 306.59599593 0 7098.56709216 0 116.27712632 0 -321.97766956 0 12093
0.10550000 0.10551000 16308.31650214 0 -181.99026688 0 6687.44059932 0 535.56945871 0 -180.90960798 0 12067
0.10650000 0.10649700 16467.64725628 0 88.47285785 0 6854.10123249 0 500.09372999 0 -1052.29492781 0 12054
0.10750000 0.10749900 16186.07803614 0 273.89720627 0 6478.89336136 0 -154.32384886 0 -1537.24836085 0 12807
0.10850000 0.10850100 16037.81960682 0 455.26520850 0 6140.17987283 0 549.19616886 0 -138.30883824 0 12736
0.10950000 0.10950300 15518.85974257 0 137.17835388 0 5897.06483679 0 909.74649640 0 351.58063720 0 12933
0.11050000 0.11050200 15639.88025283 0 42.60929543 0 5916.24210337 0 1260.36273411 0 472.45167108 0 13428
0.11150000 0.11150900 15634.01192068 0 -202.13304019 0 5430.89781727 0 1416.59323730 0 199.48011117 0 13453
0.11250000 0.11250000 15463.60884172 0 141.92395229 0 4966.29199556 0 799.67983707 0 528.03584890 0 13668
0.11350000 0.11349100 15151.59072833 0 696.92312660 0 5045.84664938 0 -16.62299197 0 1337.13823440 0 13791
0.11450000 0.11448600 14820.41749301 0 437.82076075 0 5472.34152907 0 -76.58837800 0 2228.99185389 0 14205
0.11550000 0.11549300 14507.51359363 0 172.87442186 0 5007.37032063 0 242.54038238 0 2115.07977616 0 14776
0.11650000 0.11649800 14299.13244054 0 8.95509701 0 4669.63119669 0 537.72081142 0 2118.54541383 0 14553
0.11750000 0.11747300 14419.37788807 0 -1.75113246 0 4955.66256373 0 654.42643671 0 1680.38030378 0 14568
0.11850000 0.11849100 14299.35388704 0 124.40310550 0 4378.71693441 0 -104.42641706 0 1170.67690308 0 16015
0.11950000 0.11950300 14436.76143804 0 9.10431873 0 4739.91831464 0 39.23278998 0 1372.19321477 0 15270
0.12050000 0.12050700 14214.65060218 0 257.32304325 0 4365.54086787 0 -711.56738340 0 779.78176214 0 15999
0.12150000 0.12150000 14074.14280023 0 219.53209141 0 4233.65840696 0 -202.43642189 0 326.10321779 0 15670
0.12250000 0.12250700 14099.16625432 0 -12.70759647 0 4688.39878726 0 -311.02714032 0 265.31394007 0 16887
0.12350000 0.12352200 13751.82742476 0 324.71142656 0 4559.38405847 0 109.39080462 0 -198.52124784 0 16407
0.12450000 0.12449800 13560.16548215 0 567.61276674 0 4426.92583667 0 277.38609582 0 -762.00514465 0 16306
0.12550000 0.12549900 13192.78574467 0 350.28185350 0 4282.24376826 0 352.44649300 0 -461.73808959 0 17523
0.12650000 0.12650100 12794.40349769 0 265.52099255 0 4040.11416913 0 527.19545945 0 -361.29106606 0 17154
0.12750000 0.12750600 12931.58960219 0 -122.54959833 0 4345.36709205 0 251.45692556 0 -370.59071168 0 18007
0.12850000 0.12850300 12703.83188067 0 116.03907133 0 4008.00442715 0 -202.90810293 0 52.92183732 0 17496
0.12950000 0.12949900 12767.94064137 0 416.12564750 0 4604.39305886 0 -227.69239480 0 323.05057784 0 18405
0.13050000 0.13049000 12483.49261678 0 137.19274790 0 4466.13293885 0 228.54164212 0 685.22742989 0 18100
0.13150000 0.13148800 12384.39530966 0 105.87700234 0 4289.05324802 0 276.15596053 0 244.85892720 0 19059
0.13250000 0.13249300 12416.94794462 0 126.25218374 0 4527.81686041 0 233.90175456 0 421.77253315 0 18957
0.13350000 0.13349100 12254.29549304 0 1.95695591 0 4448.39507449 0 436.92722413 0 225.52000467 0 19468
0.13450000 0.13450700 12071.71285678 0 322.53792920 0 4086.30790827 0 317.44687425 0 550.56802991 0 19953
0.13550000 0.13551000 11904.85292176 0 382.11589458 0 3930.39850250 0 230.41065055 0 751.46650588 0 19956
0.13650000 0.13649900 11600.14254275 0 17.02569243 0 3884.73623495 0 472.23243905 0 687.10529618 0 19723
0.13750000 0.13749600 11521.19686679 0 66.02017613 0 3626.98358549 0 137.79618960 0 872.95094656 0 20946
0.13850000 0.13851100 11570.13654249 0 87.28811909 0 4134.01855591 0 -44.70716881 0 562.51949732 0 20955
0.13950000 0.13949800 11549.76346483 0 0.79037687 0 3636.38398926 0 -105.52855627 0 490.59478253 0 20506
0.14050000 0.14048300 11430.51452653 0 105.40631781 0 3849.05013206 0 -184.10950985 0 565.93641676 0 21447
0.14150000 0.14148400 11340.49652575 0 294.17063301 0 3814.51555095 0 -141.55524388 0 478.53702080 0 21771
0.14250000 0.14249400 11180.39070888 0 198.44817049 0 3980.12431326 0 316.96301365 0 -179.75476450 0 22470
0.14350000 0.14350900 10894.18218464 0 210.55132875 0 3452.33980613 0 247.66576154 0 -17.43913304 0 22519
0.14450000 0.14449900 10799.14842072 0 271.40814765 0 3431.47954617 0 218.85335790 0 -257.50905831 0 22218
0.14550000 0.14550500 10643.90335444 0 97.07228964 0 3284.56086815 0 88.51404690 0 -32.05238733 0 23559
0.14650000 0.14650700 10551.52694848 0 22.74388386 0 3250.93421768 0 53.63633444 0 -408.40491540 0 23044
0.14750000 0.14750500 10506.06398277 0 177.40743164 0 3328.26333421 0 -271.90750950 0 -215.52833876 0 23649
0.14850000 0.14849900 10414.41835025 0 141.84312432 0 3308.29993256 0 53.02436705 0 -339.00247620 0 23640
0.14950000 0.14949500 10320.48074649 0 124.04989834 0 3316.29415108 0 124.15397819 0 -252.41689612 0 24457
0.15050000 0.15050000 10233.56299666 0 88.95671844 0 3280.87378399 0 245.43468809 0 -654.03115471 0 24591
0.15150000 0.15149900 10238.89985722 0 91.37591069 0 3100.61633594 0 275.06533654 0 -413.84364135 0 25020
0.15250000 0.15250500 10073.46825211 0 25.33303629 0 3091.53702959 0 129.99241507 0 -126.10160013 0 25297
0.15350000 0.15350100 10057.12550067 0 145.89005904 0 2842.21041932 0 310.35947913 0 -37.43242996 0 25452
0.15450000 0.15450400 9798.01095527 0 103.04802335 0 2965.31252666 0 571.47590086 0 106.60556131 0 26061
0.15550000 0.15549900 9762.12555053 0 225.55322165 0 2491.38380744 0 549.45193957 0 300.98454171 0 26128
0.15650000 0.15649500 9607.19050934 0 197.31436443 0 2542.21685069 0 303.48577988 0 382.49013916 0 26331
0.15750000 0.15749700 9243.13246931 0 313.05669746 0 2426.59963493 0 156.58371035 0 556.15844671 0 27345
0.15850000 0.15849900 9108.29369767 0 267.43207581 0 2355.12777823 0 5.13074924 0 786.24246367 0 26980
0.15950000 0.15949700 8919.46627021 0 121.01608134 0 2360.92967643 0 -81.97849645 0 833.64530069 0 27777
0.16050000 0.16050000 8883.06046620 0 89.78991088 0 2288.40594887 0 -10.96527758 0 936.92019597 0 28224
0.16150000 0.16150500 8902.50346859 0 84.23813650 0 2744.22034468 0 -359.32351394 0 495.90506951 0 28075
0.16250000 0.16249700 8762.36105336 0 131.14947301 0 2879.40235839 0 -156.83394489 0 636.24014319 0 28590
0.16350000 0.16349900 8678.52140983 0 174.26732032 0 2801.57498724 0 24.54369026 0 827.20231488 0 29163
0.16450000 0.16449100 8644.15291359 0 75.07490192 0 2729.37235710 0 277.23219051 0 1152.92796639 0 28996
0.16550000 0.16550500 8635.18433049 0 -19.28998285 0 2649.59625678 0 387.17041086 0 701.97432118 0 30777
0.16650000 0.16650700 8633.80028989 0 -14.69784686 0 2486.39018895 0 254.06224359 0 452.42847888 0 29211
0.16750000 0.16749900 8486.79303327 0 74.71770872 0 2385.77597332 0 291.32836723 0 425.52937297 0 30922
0.16850000 0.16850800 8523.82995979 0 87.67410033 0 2298.78071722 0 -5.79674957 0 518.93550514 0 30867
0.16950000 0.16949900 8376.18050833 0 142.48421193 0 2191.70026390 0 -0.24945948 0 470.83621889 0 30852
0.17050000 0.17049200 8319.91095360 0 57.89342189 0 2111.45912594 0 114.60741973 0 417.54733400 0 31257
0.17150000 0.17149500 8383.56574899 0 -9.39904188 0 2087.47647038 0 -49.65018678 0 431.11757530 0 32608
0.17250000 0.17250900 8417.53564153 0 13.09833881 0 2042.52283162 0 -25.02290047 0 163.33672126 0 32361
0.17350000 0.17350400 8337.90348143 0 152.95863121 0 2084.46479803 0 75.30719930 0 559.48789478 0 32508
0.17450000 0.17449800 8340.38368219 0 103.23769227 0 2146.11550262 0 -14.56796849 0 154.12565424 0 32791
0.17550000 0.17549800 8101.97438420 0 165.43714128 0 2167.44080022 0 60.89236106 0 267.69227544 0 33633
0.17650000 0.17650100 8004.65972137 0 189.07544753 0 2056.52932252 0 81.14198231 0 140.25756741 0 33984
0.17750000 0.17750300 7891.54485102 0 94.51602201 0 1945.90572525 0 199.23319832 0 460.46809393 0 34069
