### header ###
fiducial parameters:
Omega_m = 0.31
Omega_nu = 0
Omega_de = 0.69
Omega_k = 0
H_0 = 100
w_de = -1
zeff = 0
beta = 0
fgrowth = 0
b_1 = 2
gamma = 0.55
Lx = 3500 Ly = 3500 Lz = 3500
nx = 700 ny = 700 nz = 700
xoffset = -685.467585 yoffset = -31.7331281 zoffset = 572.489161
bins = 400 dk = 0.001
kx_ny = 0.628318531 ky_ny = 0.628318531 kz_ny = 0.628318531
############################
A(data) = 8.04747754 (not used)
A(ran) = 8.04320055 (used)
Ngal = 477591
weighted Ngal = 0
Nran = 23820508
weighted Nran = 0
SN(data) = 3497.59522
SN(ran) = 70.0591938
SN(data+ran) = 3567.65442
############################
13 columns: k_central k_mean P_0(k) sigma^{lin}_{P_0(k)} P^img_1(k) sigma^{lin}_{P_1(k)} P_2(k) sigma^{lin}_{P_2(k)} P^img_3(k) sigma^{lin}_{P_3(k)} P_4(k) sigma^{lin}_{P_4(k)} N_modes
### header ###
0.00050000 0 0 0 0 0 0 0 0 0 0 0 0
0.00150000 0.00179520 9691.70556468 0 -4514.17575624 0 32065.78484454 0 -4028.61002364 0 -11550.64925081 0 3
0.00250000 0.00253879 27387.39543892 0 -15096.00765774 0 11572.35100746 0 -39903.32996742 0 -33941.99028506 0 6
0.00350000 0.00331552 33976.53593850 0 -20491.55154187 0 -26894.23409150 0 43868.10803848 0 68012.08736828 0 7
0.00450000 0.00420575 39974.30356951 0 -15763.89029080 0 -22647.00101431 0 -10275.20601030 0 -9414.31061100 0 24
0.00550000 0.00557378 54943.53310808 0 -16519.68718292 0 -16534.74554468 0 364.02814476 0 4618.06738001 0 45
0.00650000 0.00659388 64689.72558320 0 -16911.31531176 0 -35504.84893322 0 -10905.66418548 0 -5465.48776001 0 40
0.00750000 0.00754703 69034.06294904 0 4490.87958482 0 -24727.49084774 0 -18080.99570560 0 434.51013563 0 57
0.00850000 0.00846663 77844.53325373 0 -61.50610003 0 -16805.24244000 0 -27989.39773931 0 -2212.36122201 0 75
0.00950000 0.00948925 66489.08908947 0 10920.43466678 0 -12134.05004551 0 -17361.18386914 0 -4509.19321007 0 112
0.01050000 0.01054430 62537.15491520 0 4375.16271814 0 -10974.97693884 0 -34110.51106880 0 -12569.74602712 0 105
0.01150000 0.01145670 65976.55117362 0 -4374.55374027 0 9502.68990771 0 -12138.36825219 0 3210.53130441 0 144
0.01250000 0.01249090 71540.28367174 0 -10638.48898760 0 3057.50070310 0 -8587.54011679 0 -14172.13287487 0 169
0.01350000 0.01339930 76885.89137094 0 -5472.08686560 0 15239.06209440 0 1592.23352590 0 -10314.76742688 0 180
0.01450000 0.01448870 83267.53650341 0 -3694.44726061 0 9970.59528222 0 10234.72559077 0 -8175.05172800 0 267
0.01550000 0.01550050 78201.83717563 0 2370.65117762 0 9951.60624515 0 7515.76121900 0 -4587.15344912 0 238
0.01650000 0.01653350 81476.47724075 0 9570.57433117 0 10671.42915394 0 5700.14353989 0 -6934.13199628 0 315
0.01750000 0.01747870 75761.82895535 0 4470.78331527 0 30475.35610759 0 -18962.57420766 0 15419.31954245 0 297
0.01850000 0.01844180 78240.59031250 0 -553.59409628 0 28950.25408707 0 2133.03908701 0 13300.07657216 0 388
0.01950000 0.01947590 75320.48608808 0 -139.26105817 0 34408.24588318 0 -6534.12211755 0 22516.56902795 0 399
0.02050000 0.02045430 78295.95193659 0 5651.93463763 0 50706.92946272 0 10754.77054285 0 11227.33736611 0 462
0.02150000 0.02154770 73197.47852735 0 5299.62433422 0 47139.86929915 0 14501.97743122 0 28608.89431291 0 571
0.02250000 0.02255340 66365.96483749 0 5475.74073279 0 47369.95220888 0 16686.32567144 0 21795.53923576 0 510
0.02350000 0.02348930 63356.83912153 0 8295.05358439 0 36730.11239765 0 15370.71203649 0 31751.10937320 0 555
0.02450000 0.02439640 59515.96036519 0 6394.73262041 0 44521.92881903 0 11407.92698390 0 23776.59959231 0 592
0.02550000 0.02547300 54625.97883228 0 2050.06308482 0 37137.79539747 0 4921.52658632 0 20612.68277538 0 837
0.02650000 0.02652900 54480.15631442 0 -2133.55948628 0 36948.34791982 0 423.08903258 0 10258.83004190 0 723
0.02750000 0.02749970 54480.37776092 0 -2402.04121848 0 24424.66276395 0 2742.93595500 0 -1725.68825693 0 826
0.02850000 0.02848090 59716.03727466 0 -3120.36936342 0 31308.21638045 0 -4385.82536694 0 -10667.01129633 0 831
0.02950000 0.02946900 58931.89523100 0 87.83431687 0 21571.87827442 0 1645.93430127 0 -13154.25405430 0 996
0.03050000 0.03053250 57677.06865931 0 3303.37274802 0 21618.27131541 0 4172.90456068 0 -18338.98087388 0 1041
0.03150000 0.03150510 54120.63792756 0 3367.03861573 0 12711.91467779 0 3697.94611526 0 -19877.59113067 0 1036
0.03250000 0.03246190 54165.14867333 0 -360.45399831 0 14330.57784303 0 2674.48684297 0 -13946.47889507 0 1059
0.03350000 0.03345080 53338.37817912 0 -2823.95215570 0 12802.26484831 0 1773.70892967 0 -9157.66519403 0 1302
0.03450000 0.03451200 58500.62817932 0 678.88741670 0 21131.75336288 0 1614.58854970 0 -9353.63427100 0 1339
0.03550000 0.03553350 55600.23269307 0 4453.62121180 0 23442.21538279 0 -2557.57416521 0 1573.73167112 0 1365
0.03650000 0.03647120 53061.90222840 0 6091.72737942 0 26126.58981182 0 -1120.29782515 0 9581.24805229 0 1308
0.03750000 0.03744890 51075.97004893 0 1458.40233581 0 28469.60446670 0 -2737.55480514 0 13881.15217864 0 1579
0.03850000 0.03847530 50683.23468761 0 -32.11129210 0 35391.02543408 0 5179.07993392 0 10027.69526131 0 1662
0.03950000 0.03950240 50976.65129530 0 -535.80751369 0 31862.27551438 0 7368.87575796 0 10095.48003385 0 1683
0.04050000 0.04050350 48228.38955207 0 1829.44701281 0 28363.53159493 0 6714.87782022 0 8528.72392736 0 1822
0.04150000 0.04152450 49359.75970204 0 34.80884260 0 22363.54949896 0 9213.79080854 0 8134.64881474 0 1887
0.04250000 0.04250150 45792.36736872 0 815.57969551 0 20947.95277089 0 3353.22035435 0 5778.14806823 0 1920
0.04350000 0.04349210 44070.51013617 0 3607.09769012 0 14009.25897679 0 5285.78392820 0 5187.56133473 0 2005
0.04450000 0.04448520 40855.21773208 0 1440.95235190 0 11746.62940010 0 1538.37773798 0 3114.17993384 0 2151
0.04550000 0.04548030 39770.12989985 0 2151.30842296 0 11893.78059694 0 -1384.29526580 0 3526.88976913 0 2274
0.04650000 0.04648670 38713.05504942 0 1028.74409292 0 13340.26911125 0 -1408.77617598 0 133.75036211 0 2311
0.04750000 0.04749250 37236.89270460 0 1477.25850498 0 12730.51618349 0 -1540.33753947 0 4317.50912281 0 2568
0.04850000 0.04851840 37684.54679701 0 661.84157264 0 14322.71649241 0 -165.15922592 0 3459.03856264 0 2493
0.04950000 0.04949480 38096.99089651 0 -307.50724826 0 15287.00526086 0 464.21718311 0 3513.35938820 0 2644
0.05050000 0.05050630 37106.34999498 0 1270.56034526 0 13498.49263291 0 3245.42019992 0 1056.55777287 0 2829
0.05150000 0.05149060 37126.05873316 0 1102.60092839 0 12734.05932743 0 1942.19649644 0 1975.54633879 0 2784
0.05250000 0.05249300 35950.95290016 0 -791.54278557 0 11422.21028292 0 950.92890133 0 2655.35386568 0 3055
0.05350000 0.05348950 36106.07617087 0 -973.47326189 0 11468.49260066 0 4162.46335837 0 209.46291922 0 3009
0.05450000 0.05448610 36627.25050008 0 706.58594446 0 10192.78362435 0 1050.04392418 0 -631.04500839 0 3336
0.05550000 0.05550870 35810.77726796 0 633.90166819 0 8149.40822372 0 -442.14671805 0 -1784.19442128 0 3349
0.05650000 0.05647670 34560.71179593 0 780.23019130 0 10541.75008566 0 -2494.03009308 0 1217.24710126 0 3324
0.05750000 0.05747970 34453.42096844 0 1805.17647681 0 10635.36659200 0 -2445.73261222 0 296.03853421 0 3639
0.05850000 0.05849280 32707.42606778 0 1409.37408152 0 12297.80972957 0 -371.41892158 0 -549.36778990 0 3846
0.05950000 0.05951020 31975.98829027 0 1385.24748574 0 13390.31601943 0 -671.58743295 0 8.65324329 0 3787
0.06050000 0.06049470 31520.58357047 0 61.17968789 0 11847.83044894 0 990.53903614 0 1214.60081563 0 3930
0.06150000 0.06148310 31526.45190263 0 -188.47532753 0 13632.02487022 0 183.62786372 0 472.10510731 0 4083
0.06250000 0.06249100 32459.62743834 0 -74.81592025 0 12730.51618349 0 877.23482903 0 174.41015331 0 4303
0.06350000 0.06350600 32734.99615658 0 189.03337270 0 14056.86997351 0 1095.62425652 0 71.86857810 0 4470
0.06450000 0.06451750 31596.31827223 0 860.95297539 0 12139.14331492 0 1418.69697901 0 2467.71117698 0 4479
0.06550000 0.06550280 31463.00748142 0 703.69717492 0 12010.92579352 0 2963.13127867 0 1718.26979931 0 4636
0.06650000 0.06648880 30506.24789384 0 -158.90889856 0 10310.11705046 0 2841.00353592 0 2536.38173551 0 4653
0.06750000 0.06749660 31836.03410456 0 -719.10431490 0 9350.71117724 0 3307.20377241 0 1374.77306646 0 5220
0.06850000 0.06852730 31108.25019423 0 -231.94859646 0 8181.51796569 0 138.92445950 0 3016.09020827 0 5029
0.06950000 0.06949320 31002.28804571 0 803.52857718 0 7621.57942729 0 162.27156361 0 2209.75922568 0 5040
0.07050000 0.07048030 31033.29055521 0 396.84540829 0 8067.94913003 0 177.88243437 0 3485.39069571 0 5475
0.07150000 0.07148790 29538.52670469 0 488.65158952 0 6977.95625791 0 99.90326165 0 4273.62949955 0 5509
0.07250000 0.07249820 29894.28050111 0 910.67767892 0 8408.06880381 0 1208.74355580 0 2312.30002583 0 5916
0.07350000 0.07351270 28920.24808682 0 616.73181410 0 7778.31925742 0 156.94023921 0 3289.63199292 0 5721
0.07450000 0.07449140 28032.13691311 0 645.37591840 0 7425.44426545 0 277.28312320 0 504.77732339 0 6028
0.07550000 0.07549160 28058.48904618 0 833.04518068 0 6819.93203810 0 613.49315909 0 1769.10284255 0 6183
0.07650000 0.07648840 26331.53854422 0 895.79425990 0 6006.64763552 0 750.21090425 0 2381.54634524 0 6330
0.07750000 0.07749960 25874.14080596 0 221.17633165 0 5129.95202870 0 1765.44897536 0 935.34017522 0 6583
0.07850000 0.07848650 25620.91673735 0 399.04437200 0 5347.60071766 0 223.65985410 0 620.79978623 0 6549
0.07950000 0.07947320 25211.46216556 0 695.27556466 0 4299.15120826 0 -183.76294609 0 -959.16560376 0 6828
0.08050000 0.08048110 24553.65534809 0 260.95919472 0 5801.57710755 0 -2210.19104635 0 -991.49789947 0 7147
0.08150000 0.08149960 24659.39605010 0 1142.29853457 0 7373.13860301 0 -2668.45242594 0 -1277.80164570 0 7386
0.08250000 0.08250610 23684.36712657 0 813.13824789 0 7868.07152240 0 -1046.08888975 0 -680.21720291 0 7227
0.08350000 0.08350160 23149.35239134 0 408.73819238 0 8579.95557429 0 36.29618799 0 -312.33146018 0 7798
0.08450000 0.08449610 23012.49845658 0 674.58803297 0 8115.84800720 0 871.00775356 0 -321.62224794 0 7371
0.08550000 0.08548940 22377.83279797 0 367.53475003 0 7482.85426964 0 2486.68914172 0 196.03218922 0 8256
0.08650000 0.08650700 22003.47749585 0 -30.36241839 0 6272.70452858 0 1480.92344449 0 -883.44751049 0 8037
0.08750000 0.08749060 21466.91263514 0 239.80330369 0 4952.63981906 0 1089.87882718 0 448.41586837 0 8155
0.08850000 0.08849210 21705.74268148 0 293.64137589 0 5317.51721113 0 -550.36429913 0 -708.20914728 0 8718
0.08950000 0.08949900 21441.44628806 0 250.01530887 0 5400.07246498 0 -1007.62031163 0 -286.32478365 0 8571
0.09050000 0.09049190 21004.53235072 0 453.57778620 0 6970.46029401 0 -1778.17107658 0 -659.61603535 0 8932
0.09150000 0.09150830 20414.37743788 0 1113.26689889 0 7113.42615206 0 -973.69581562 0 -117.59141127 0 9285
0.09250000 0.09250820 20101.69498500 0 628.45186992 0 8681.88739657 0 -624.79578826 0 -366.90805645 0 9204
0.09350000 0.09350330 19578.52763732 0 439.51261198 0 8360.77890451 0 405.69551752 0 -641.71097889 0 9349
0.09450000 0.09448040 19333.49708909 0 322.25004875 0 8590.09782383 0 1187.39611355 0 303.72937103 0 9564
0.09550000 0.09549270 18960.47046595 0 322.48146034 0 7415.57882404 0 1375.47062292 0 -155.75107153 0 10155
0.09650000 0.09649430 18724.96211705 0 246.78661895 0 7041.95429536 0 1575.19321800 0 143.31685076 0 9913
0.09750000 0.09749140 18301.66713924 0 249.72410673 0 5400.31605612 0 1331.21454062 0 69.36866861 0 10476
0.09850000 0.09850240 17950.45299599 0 207.14991057 0 5282.66153260 0 132.19137878 0 -207.96926260 0 10575
0.09950000 0.09950330 17722.58455122 0 779.46398642 0 5830.40944138 0 -270.48582299 0 -326.53503846 0 10882
0.10050000 0.10051200 17128.22215496 0 446.56014673 0 6283.05715229 0 -443.75331238 0 88.02775039 0 10875
0.10150000 0.10150300 17017.72035327 0 98.47282801 0 6165.01509740 0 -398.01796749 0 477.43864618 0 11118
0.10250000 0.10250800 16857.06092015 0 -32.01928108 0 6543.32321948 0 290.70278088 0 110.99673461 0 11575
0.10350000 0.10349800 17034.99317998 0 164.11621293 0 6911.59981527 0 125.70188920 0 -289.88785777 0 11364
0.10450000 0.10450100 16727.29327327 0 494.21875444 0 7181.59845597 0 12.33158032 0 -455.30063994 0 12093
0.10550000 0.10551000 16273.32795571 0 529.71662781 0 6351.45090269 0 419.60900088 0 -470.14973475 0 12067
0.10650000 0.10649700 15706.31420175 0 200.30167767 0 6140.65598280 0 278.25748778 0 -387.53690482 0 12054
0.10750000 0.10749900 15783.26685924 0 290.86332959 0 6043.86171923 0 803.81977932 0 -510.00456794 0 12807
0.10850000 0.10850100 15273.93991758 0 236.56243422 0 5342.31921872 0 1135.05723413 0 -10.84134505 0 12736
0.10950000 0.10950300 15100.87948066 0 351.75115100 0 4796.17679704 0 739.70437523 0 -72.64696254 0 12933
0.11050000 0.11050200 14594.43134346 0 73.07811887 0 4221.51206663 0 864.11080243 0 537.39971400 0 13428
0.11150000 0.11150900 14816.76362582 0 -261.45080594 0 4344.48130607 0 767.45051399 0 403.16881299 0 13453
0.11250000 0.11250000 14947.74922842 0 -45.42299461 0 4231.77611174 0 662.42951309 0 681.17606624 0 13668
0.11350000 0.11349100 14891.83398809 0 116.15865244 0 3857.15507382 0 250.88005744 0 669.64645440 0 13791
0.11450000 0.11448600 14817.98158155 0 140.38932807 0 4141.50344749 0 -409.16558412 0 1045.58399174 0 14205
0.11550000 0.11549300 14972.88340576 0 24.06348353 0 4384.34167541 0 -517.24254667 0 684.29514014 0 14776
0.11650000 0.11649800 14706.04037763 0 312.79206889 0 4930.32908455 0 -571.50468891 0 763.87193861 0 14553
0.11750000 0.11747300 14836.80453374 0 379.38435205 0 5139.48530037 0 -734.01873644 0 924.37968088 0 14568
0.11850000 0.11849100 14438.86517976 0 202.89038721 0 5318.29227387 0 -139.43489367 0 619.29505729 0 16015
0.11950000 0.11950300 14429.34298041 0 81.94682960 0 5049.07976823 0 511.80603518 0 502.18307768 0 15270
0.12050000 0.12050700 14345.41475829 0 128.26402516 0 5022.47297169 0 506.50903499 0 -54.43121664 0 15999
0.12150000 0.12150000 14095.51238713 0 374.85577120 0 4838.77203062 0 332.52405895 0 437.98020222 0 15670
0.12250000 0.12250700 13688.60445004 0 432.63226934 0 4684.52347357 0 350.01943940 0 -58.95127180 0 16887
0.12350000 0.12352200 13454.20333363 0 173.00839699 0 4292.88427241 0 362.52009412 0 578.08275708 0 16407
0.12450000 0.12449800 13141.74232725 0 206.57636414 0 3976.07184238 0 363.89306240 0 1210.78086357 0 16306
0.12550000 0.12549900 13231.98177452 0 95.72999170 0 4159.46275835 0 774.40947014 0 729.96072939 0 17523
0.12650000 0.12650100 13168.75879981 0 -318.50649573 0 4123.11231597 0 506.67844156 0 1143.29504380 0 17154
0.12750000 0.12750600 13141.41015751 0 156.10760039 0 4070.51877308 0 -127.63622435 0 631.77356736 0 18007
0.12850000 0.12850300 12949.30532190 0 569.47402454 0 3901.22292660 0 -198.19129256 0 823.49087160 0 17496
0.12950000 0.12949900 12660.64981388 0 361.57562481 0 4380.43314475 0 -260.89054631 0 714.29892593 0 18405
0.13050000 0.13049000 12329.69802505 0 220.93163327 0 4279.71927820 0 -279.21856558 0 689.76929753 0 18100
0.13150000 0.13148800 12266.36432709 0 249.78721898 0 4531.49287225 0 -449.01598837 0 -50.27167637 0 19059
0.13250000 0.13249300 12213.88150745 0 166.87986520 0 4594.22866468 0 -189.29910849 0 426.39965770 0 18957
0.13350000 0.13349100 12112.68045861 0 117.79957098 0 4492.95010956 0 154.39471174 0 329.51017214 0 19468
0.13450000 0.13450700 12084.66747682 0 114.57198829 0 4771.37478945 0 115.36698122 0 266.66476370 0 19953
0.13550000 0.13551000 11845.50526073 0 121.89300946 0 4592.78926245 0 118.61227962 0 -162.31142398 0 19956
0.13650000 0.13649900 11653.28970188 0 466.85903982 0 4726.37686139 0 340.49170389 0 108.02304033 0 19723
0.13750000 0.13749600 11312.26209747 0 78.14049650 0 4469.96396324 0 332.76654287 0 615.69876619 0 20946
0.13850000 0.13851100 11374.37783970 0 -159.43040506 0 4193.93090551 0 412.12078761 0 636.40290637 0 20955
0.13950000 0.13949800 11389.21475496 0 -136.56826878 0 3924.13156665 0 964.60543695 0 308.59122886 0 20506
0.14050000 0.14048300 11449.11603222 0 28.59372523 0 3683.48565904 0 469.09011327 0 255.35549113 0 21447
0.14150000 0.14148400 11556.07468997 0 145.69075720 0 3487.11797838 0 67.68445728 0 267.92147257 0 21771
0.14250000 0.14249400 11145.29143920 0 386.87477979 0 3183.81378463 0 186.63289268 0 245.29517680 0 22470
0.14350000 0.14350900 10896.67345772 0 337.73912394 0 3147.71800572 0 -263.24784426 0 530.25585003 0 22519
0.14450000 0.14449900 10845.75183588 0 196.52158597 0 3198.42925339 0 -149.45977656 0 397.07128372 0 22218
0.14550000 0.14550500 10619.86533726 0 181.36357330 0 3514.14552327 0 3.60003355 0 342.05511616 0 23559
0.14650000 0.14650700 10475.46007697 0 58.74344426 0 3047.19236869 0 187.09571586 0 285.40688792 0 23044
0.14750000 0.14750500 10493.67405130 0 -1.00687182 0 3118.32098333 0 449.58953480 0 -179.62521830 0 23649
0.14850000 0.14849900 10404.81864463 0 -72.07286250 0 2906.24167375 0 102.62627849 0 -206.86313735 0 23640
0.14950000 0.14949500 10453.17148711 0 224.86009411 0 2903.42930324 0 413.01321699 0 -278.02275450 0 24457
0.15050000 0.15050000 10126.26109684 0 268.45294416 0 2635.01400499 0 -89.15336293 0 108.95211911 0 24591
0.15150000 0.15149900 9974.31558336 0 195.25823371 0 2535.88348089 0 136.38003926 0 -26.78638965 0 25020
0.15250000 0.15250500 10060.72400624 0 11.75714811 0 2657.76763249 0 140.19113346 0 273.48420856 0 25297
0.15350000 0.15350100 9870.96650350 0 162.02686523 0 2900.80516226 0 -27.42625930 0 203.75070685 0 25452
0.15450000 0.15450400 9835.20289433 0 147.37153610 0 2604.91942613 0 -82.68967187 0 446.07074997 0 26061
0.15550000 0.15549900 9671.02246192 0 195.06003910 0 3058.34219978 0 -170.32225099 0 561.38236956 0 26128
0.15650000 0.15649500 9613.68996401 0 176.65672802 0 2880.75318202 0 136.08108649 0 824.93138106 0 26331
0.15750000 0.15749700 9609.92537357 0 63.41186858 0 3056.61491711 0 259.09682969 0 976.52479461 0 27345
0.15850000 0.15849900 9321.61310762 0 -14.67692016 0 2583.15123554 0 497.15181329 0 470.78196450 0 26980
0.15950000 0.15949700 9390.72655914 0 32.89543414 0 2629.61071048 0 459.12169923 0 706.98122646 0 27777
0.16050000 0.16050000 9347.00194843 0 53.35011484 0 2127.74651575 0 356.71487422 0 581.91156701 0 28224
0.16150000 0.16150500 9183.97303780 0 176.27805451 0 2170.64070210 0 146.22776495 0 551.69851427 0 28075
0.16250000 0.16249700 9074.91063834 0 261.79183355 0 1959.71291430 0 -322.99743068 0 486.63310471 0 28590
0.16350000 0.16349900 8858.70135160 0 193.38036742 0 2328.73135586 0 -177.34874832 0 647.43647805 0 29163
0.16450000 0.16449100 8832.70353293 0 145.59885690 0 2438.00412949 0 -181.48315440 0 736.92411447 0 28996
0.16550000 0.16550500 8769.19267777 0 22.83844151 0 2594.43393453 0 43.74797331 0 289.02864537 0 30777
0.16650000 0.16650700 8762.33890871 0 63.01547935 0 2465.78459246 0 99.21832764 0 567.12447721 0 29211
0.16750000 0.16749900 8751.83127245 0 171.47930893 0 2314.21553802 0 240.53961329 0 394.77156185 0 30922
0.16850000 0.16850800 8511.76112574 0 99.77526558 0 2213.51274379 0 179.93192170 0 340.41198315 0 30867
0.16950000 0.16949900 8356.11745576 0 44.10793459 0 1968.82543763 0 225.56983014 0 -8.23267211 0 30852
0.17050000 0.17049200 8228.26532108 0 262.57243245 0 2053.65051806 0 59.83451115 0 -126.07502655 0 31257
0.17150000 0.17149500 8110.61079756 0 206.28073307 0 1727.54840750 0 -254.90816921 0 -310.09152887 0 32608
0.17250000 0.17250900 7863.29935041 0 175.15532077 0 1922.14451619 0 -49.97748470 0 -116.34798919 0 32361
0.17350000 0.17350400 7791.53961326 0 153.29522988 0 1824.80770871 0 -131.76841597 0 118.54030951 0 32508
0.17450000 0.17449800 7681.97895918 0 48.04027075 0 2061.39007311 0 191.17033139 0 162.54837173 0 32791
0.17550000 0.17549800 7857.87391125 0 -102.07399093 0 1944.59919092 0 296.95642994 0 383.64608987 0 33633
0.17650000 0.17650100 7795.17133580 0 -14.11843210 0 2132.06472243 0 242.98106091 0 536.65011761 0 33984
0.17750000 0.17750300 7960.63615789 0 76.48363381 0 2172.11332130 0 132.94651133 0 635.22702547 0 34069
0.17850000 0.17849800 7732.40232640 0 110.70254294 0 2131.22322574 0 101.97566869 0 718.06462360 0 34536
