### header ###
fiducial parameters:
Omega_m = 0.31
Omega_nu = 0
Omega_de = 0.69
Omega_k = 0
H_0 = 100
w_de = -1
zeff = 0
beta = 0
fgrowth = 0
b_1 = 2
gamma = 0.55
Lx = 3500 Ly = 3500 Lz = 3500
nx = 700 ny = 700 nz = 700
xoffset = -685.467585 yoffset = -31.7331281 zoffset = 572.489161
bins = 400 dk = 0.001
kx_ny = 0.628318531 ky_ny = 0.628318531 kz_ny = 0.628318531
############################
A(data) = 8.1231683 (not used)
A(ran) = 8.12164832 (used)
Ngal = 482336
weighted Ngal = 0
Nran = 23820508
weighted Nran = 0
SN(data) = 3492.06624
SN(ran) = 70.7425023
SN(data+ran) = 3562.80874
############################
13 columns: k_central k_mean P_0(k) sigma^{lin}_{P_0(k)} P^img_1(k) sigma^{lin}_{P_1(k)} P_2(k) sigma^{lin}_{P_2(k)} P^img_3(k) sigma^{lin}_{P_3(k)} P_4(k) sigma^{lin}_{P_4(k)} N_modes
### header ###
0.00050000 0 0 0 0 0 0 0 0 0 0 0 0
0.00150000 0.00179520 21981.33284622 0 -1243.04561809 0 39961.34894947 0 22225.36688522 0 -117378.82263495 0 3
0.00250000 0.00253879 54790.18140934 0 -14835.80802450 0 10879.99853655 0 25302.58739882 0 122441.08954204 0 6
0.00350000 0.00331552 49159.12917632 0 -10445.53158299 0 5002.31026819 0 -10561.82421056 0 18932.01459116 0 7
0.00450000 0.00420575 58801.02035165 0 -11827.23592478 0 7732.53519430 0 -38985.76640970 0 116.48639325 0 24
0.00550000 0.00557378 75979.95375427 0 -7905.69528214 0 26583.98755008 0 -25940.90692461 0 -6902.58694287 0 45
0.00650000 0.00659388 91001.66611248 0 2378.55681754 0 47966.97196310 0 -27096.19329619 0 22591.97155997 0 40
0.00750000 0.00754703 71000.17566709 0 4680.96925731 0 35111.44923241 0 5425.41701649 0 -1178.66004927 0 57
0.00850000 0.00846663 77098.92290045 0 13337.50103004 0 37604.49388858 0 18242.09803171 0 -5833.22181188 0 75
0.00950000 0.00948925 61783.57248805 0 13035.44800899 0 26305.40785764 0 16367.11054692 0 -14971.00111054 0 112
0.01050000 0.01054430 57043.73167968 0 -7836.44896272 0 15972.38216714 0 14296.03218960 0 -11419.55292496 0 105
0.01150000 0.01145670 55092.67732339 0 -3210.65309999 0 15866.30929538 0 6625.31378476 0 12283.30498406 0 144
0.01250000 0.01249090 68524.95745388 0 -353.98665338 0 9084.29996978 0 2724.96557182 0 -6330.25847299 0 169
0.01350000 0.01339930 64439.60176554 0 -4223.54937440 0 3252.38469223 0 4226.66069767 0 16376.52202302 0 180
0.01450000 0.01448870 70980.13475917 0 -2979.97228472 0 -1837.12013391 0 3675.31428333 0 8846.13426293 0 267
0.01550000 0.01550050 78405.23578255 0 -9875.92690502 0 16846.65293482 0 5813.53521836 0 12074.25949149 0 238
0.01650000 0.01653350 81273.07863383 0 -5305.63660660 0 6331.00031875 0 21563.79547731 0 8712.57988097 0 315
0.01750000 0.01747870 85228.77739854 0 -558.84348548 0 8431.44248150 0 7068.52787492 0 22085.41269951 0 297
0.01850000 0.01844180 78472.99841044 0 5750.94336616 0 3163.91681693 0 -2605.30695750 0 18042.57473848 0 388
0.01950000 0.01947590 76296.62224409 0 3121.79769332 0 1218.47612932 0 7657.74164015 0 30448.89325128 0 399
0.02050000 0.02045430 73772.46435518 0 1538.69883540 0 1747.65574938 0 -7185.36304641 0 5902.83351802 0 462
0.02150000 0.02154770 66339.72342767 0 5302.40348775 0 1677.32434213 0 -3282.08066739 0 815.85539640 0 571
0.02250000 0.02255340 70958.87589551 0 1912.35658105 0 4914.16349031 0 -11532.82280785 0 -458.27134469 0 510
0.02350000 0.02348930 65391.71097670 0 -1971.40528931 0 10324.58857899 0 -4391.66048212 0 -12244.77329369 0 555
0.02450000 0.02439640 66461.96189367 0 1106.12635662 0 13340.26911125 0 -9089.49289012 0 -14272.11596799 0 592
0.02550000 0.02547300 65829.28925353 0 4982.24721562 0 15127.45306023 0 -7007.98440282 0 -12649.57748906 0 837
0.02650000 0.02652900 60852.83286379 0 5167.91903050 0 22484.45928598 0 -5945.57269182 0 7066.24697601 0 723
0.02750000 0.02749970 60752.40687769 0 4686.93724038 0 23494.14458619 0 2947.15391395 0 -1971.28349374 0 826
0.02850000 0.02848090 55684.93597794 0 3407.33080574 0 22848.73877251 0 4418.43336353 0 1983.97237798 0 831
0.02950000 0.02946900 53796.55098012 0 2537.24537684 0 20303.76491294 0 12815.66236134 0 835.13895731 0 996
0.03050000 0.03053250 54598.40874348 0 -2095.62570145 0 16693.07978958 0 5220.00324645 0 1058.44449702 0 1041
0.03150000 0.03150510 54672.70404302 0 -1921.66840622 0 12915.53473121 0 7068.81575537 0 6125.95193544 0 1036
0.03250000 0.03246190 54832.58841340 0 -712.26715433 0 9619.17076480 0 3376.21757300 0 4225.17700615 0 1059
0.03350000 0.03345080 57714.05022420 0 20.11642118 0 11587.52009246 0 1213.31642595 0 11420.10654120 0 1302
0.03450000 0.03451200 56783.86421619 0 -2158.80438687 0 13240.06457164 0 -15.95411283 0 -3238.72144340 0 1339
0.03550000 0.03553350 57446.87502633 0 -616.68641756 0 13847.49231119 0 2364.40638642 0 6508.97686789 0 1365
0.03650000 0.03647120 58015.66035226 0 2817.61878590 0 14970.44749430 0 -2960.29676351 0 4516.89954814 0 1308
0.03750000 0.03744890 55528.04113526 0 2289.36924113 0 14972.10834302 0 1682.09651412 0 8597.40555821 0 1579
0.03850000 0.03847530 52542.83164090 0 2859.08464235 0 15882.69633611 0 2464.01302049 0 2124.98950687 0 1662
0.03950000 0.03950240 51100.77205652 0 2306.33204275 0 15142.17925224 0 -726.58367032 0 4322.96777894 0 1683
0.04050000 0.04050350 47823.91752644 0 2536.68068828 0 13916.80506456 0 1383.53127539 0 -3514.56627161 0 1822
0.04150000 0.04152450 45325.00453812 0 970.85797877 0 14196.04909648 0 -2569.25546789 0 -2187.95781811 0 1887
0.04250000 0.04250150 45912.16992325 0 1398.03602090 0 14732.06034095 0 -7763.65949936 0 -5644.48296302 0 1920
0.04350000 0.04349210 45746.97083696 0 2057.38189153 0 19461.16099425 0 -4490.39240253 0 -7226.05384012 0 2005
0.04450000 0.04448520 42732.08751209 0 2640.88233714 0 17943.69887785 0 -5602.60743056 0 -6576.72842345 0 2151
0.04550000 0.04548030 42602.65203496 0 2379.86335187 0 22370.19289385 0 2539.60378203 0 -1935.89634362 0 2274
0.04650000 0.04648670 41672.35530370 0 -223.18152967 0 21247.12698749 0 5035.62689357 0 -2983.23862054 0 2311
0.04750000 0.04749250 41214.51467245 0 -747.51036423 0 19341.24771646 0 9944.45352332 0 -2403.89029673 0 2568
0.04850000 0.04851840 42122.88820057 0 -1126.94122004 0 13107.97173655 0 6246.17523832 0 -1205.53258160 0 2493
0.04950000 0.04949480 41219.71866511 0 932.72710656 0 14008.26246756 0 2951.66035015 0 -799.41410128 0 2644
0.05050000 0.05050630 41343.95014958 0 1387.24050420 0 11392.86862215 0 -909.86164858 0 120.62190657 0 2829
0.05150000 0.05149060 38078.72156056 0 2648.13470990 0 11922.56864147 0 -761.55892996 0 2456.22917614 0 2784
0.05250000 0.05249300 38324.74861803 0 1300.18988648 0 12525.67817434 0 -2141.74193432 0 -124.98661702 0 3055
0.05350000 0.05348950 36919.22770555 0 22.79049834 0 11631.36649874 0 825.71419442 0 -202.09539429 0 3009
0.05450000 0.05448610 36478.21700802 0 2095.58141215 0 13646.41889249 0 2024.54137612 0 -1466.14189086 0 3336
0.05550000 0.05550870 35517.13921376 0 1630.72092697 0 13962.42304281 0 -1015.96441562 0 1809.60540674 0 3349
0.05650000 0.05647670 33929.81072776 0 753.35876620 0 14580.81238393 0 4480.41623787 0 4759.46096794 0 3324
0.05750000 0.05747970 32914.69998839 0 138.90674378 0 13170.53037178 0 3127.53315757 0 7821.82242164 0 3639
0.05850000 0.05849280 34331.07177919 0 -606.48769917 0 14737.59650336 0 1732.74132784 0 5048.03896969 0 3846
0.05950000 0.05951020 35124.51457570 0 6.83779170 0 15759.01846788 0 1405.05587484 0 8592.71089248 0 3787
0.06050000 0.06049470 34728.01462394 0 415.05716815 0 14315.18731153 0 -1526.17603603 0 8035.91689433 0 3930
0.06150000 0.06148310 33864.04111834 0 917.37200650 0 15381.89508456 0 1064.97384696 0 9519.08802076 0 4083
0.06250000 0.06249100 33602.73425262 0 1607.86764854 0 14194.05607802 0 1684.89781230 0 7870.67351874 0 4303
0.06350000 0.06350600 32699.78616366 0 467.74150410 0 14484.26171151 0 2331.21155662 0 7716.85678236 0 4470
0.06450000 0.06451750 30804.20415471 0 372.65902196 0 11499.27366365 0 2039.06826628 0 3933.66483832 0 4479
0.06550000 0.06550280 30635.68337097 0 786.15499231 0 10529.65910696 0 1396.20908731 0 5420.42339799 0 4636
0.06650000 0.06648880 29949.86357170 0 46.91000784 0 8688.99582911 0 1630.83165021 0 3711.83081058 0 4653
0.06750000 0.06749660 30012.20076043 0 -11.07332133 0 9830.44179466 0 36.88590001 0 4265.18131572 0 5220
0.06850000 0.06852730 29937.57329115 0 -808.16898851 0 6784.14628428 0 927.65376733 0 357.52758286 0 5029
0.06950000 0.06949320 30535.03593837 0 -157.01553102 0 8919.67664438 0 -1362.22812244 0 324.31393010 0 5040
0.07050000 0.07048030 30754.93230926 0 475.93391724 0 8646.62204203 0 -1886.82380002 0 -1031.18996948 0 5475
0.07150000 0.07148790 30656.38861838 0 1204.07103473 0 10006.93465227 0 -1068.22800323 0 -637.25436815 0 5509
0.07250000 0.07249820 29168.48960925 0 591.97631027 0 9447.15112642 0 -431.96682261 0 -1490.48993314 0 5916
0.07350000 0.07351270 28634.58210649 0 601.96133279 0 9406.11709064 0 47.25956113 0 -1649.24492639 0 5721
0.07450000 0.07449140 28476.80147783 0 575.31910481 0 9489.67992604 0 1005.69483435 0 -2333.97963782 0 6028
0.07550000 0.07549160 27859.63009244 0 249.96769787 0 8437.01186089 0 1393.61816330 0 -2104.14031924 0 6183
0.07650000 0.07648840 27430.13461272 0 831.09866598 0 8369.18279905 0 1576.95371765 0 -941.36462715 0 6330
0.07750000 0.07749960 26906.08147906 0 281.55482612 0 7073.73186759 0 2357.50832806 0 -229.97882988 0 6583
0.07850000 0.07848650 26147.40578248 0 389.50999310 0 6413.61093423 0 2651.47855200 0 2201.97538133 0 6549
0.07950000 0.07947320 25584.26734221 0 484.52271960 0 4684.54561822 0 966.28178692 0 -675.20697593 0 6828
0.08050000 0.08048110 25413.97498649 0 1360.86622649 0 5499.91161787 0 -167.27846890 0 1136.38591311 0 7147
0.08150000 0.08149960 24028.27353544 0 1076.26429658 0 5481.71978819 0 -1366.96707746 0 2665.46289824 0 7386
0.08250000 0.08250610 23205.59980142 0 813.42945003 0 6813.60974062 0 -53.85744877 0 1372.42573360 0 7227
0.08350000 0.08350160 22535.28125689 0 621.12199089 0 6541.97239585 0 -715.83687185 0 854.03720131 0 7798
0.08450000 0.08449610 22118.07605773 0 874.54203964 0 6720.67971842 0 -348.04192219 0 -566.30291071 0 7371
0.08550000 0.08548940 21280.45468520 0 812.30893076 0 7337.20890897 0 -519.20899156 0 1227.46685707 0 8256
0.08650000 0.08650700 21088.68201934 0 344.96713758 0 7712.32820150 0 -611.81791634 0 -419.56028266 0 8037
0.08750000 0.08749060 20640.25286418 0 530.74635402 0 8141.11505243 0 150.48728831 0 1900.36525327 0 8155
0.08850000 0.08849210 20791.72226770 0 104.84539383 0 8179.83497232 0 586.15005295 0 736.62626893 0 8718
0.08950000 0.08949900 20271.43372447 0 -96.69505553 0 8310.01229522 0 -102.49042107 0 1275.42109586 0 8571
0.09050000 0.09049190 20678.12021506 0 467.83561886 0 8932.21051607 0 248.20166206 0 47.73102072 0 8932
0.09150000 0.09150830 19812.92875373 0 709.49575143 0 9262.87442446 0 -530.99658856 0 734.16156943 0 9285
0.09250000 0.09250820 19221.88805491 0 917.81711396 0 9265.98574773 0 -318.31494451 0 982.48724153 0 9204
0.09350000 0.09350330 18883.51780846 0 488.69144989 0 9133.91505730 0 976.53365247 0 1485.79526741 0 9349
0.09450000 0.09448040 18601.50569533 0 -85.26808415 0 8432.61614793 0 1254.43904033 0 1618.50815269 0 9564
0.09550000 0.09549270 18780.32374115 0 -307.28690899 0 7385.65033006 0 1305.55996402 0 1379.78882960 0 10155
0.09650000 0.09649430 18889.38614061 0 321.25907568 0 7040.45953151 0 897.05318323 0 736.73809941 0 9913
0.09750000 0.09749140 18483.69615926 0 351.56735041 0 6745.34885812 0 170.95780243 0 261.45966380 0 10476
0.09850000 0.09850240 17755.80152568 0 518.15158454 0 6378.02448226 0 698.44778572 0 1151.08996047 0 10575
0.09950000 0.09950330 17705.42244775 0 111.27686443 0 5996.77112178 0 618.10478237 0 477.89039703 0 10882
0.10050000 0.10051200 17686.82094206 0 -116.06121598 0 6001.67616167 0 414.23781612 0 161.52196722 0 10875
0.10150000 0.10150300 17804.07686189 0 -27.04038878 0 5930.40360682 0 579.69267311 0 11.80575561 0 11118
0.10250000 0.10250800 17462.82781098 0 137.40865823 0 5353.22545867 0 -221.56275578 0 37.62309539 0 11575
0.10350000 0.10349800 17314.68010490 0 520.74693748 0 5868.21035831 0 375.79802604 0 799.15833058 0 11364
0.10450000 0.10450100 17111.94583747 0 450.80195436 0 5749.19393883 0 576.49830740 0 1024.01399576 0 12093
0.10550000 0.10551000 16794.50228492 0 451.25038352 0 5400.78109377 0 629.83591052 0 1507.97313403 0 12067
0.10650000 0.10649700 15950.56968725 0 351.12777911 0 5067.20516395 0 619.55857862 0 1664.12613094 0 12054
0.10750000 0.10749900 16203.46158610 0 68.77054162 0 5578.91265545 0 352.06781949 0 2252.85271388 0 12807
0.10850000 0.10850100 15870.18460906 0 108.78005518 0 5209.39595928 0 126.31751046 0 1686.55866103 0 12736
0.10950000 0.10950300 15838.40703683 0 404.19521750 0 5369.56821010 0 171.80262082 0 1987.67053447 0 12933
0.11050000 0.11050200 15604.00592042 0 187.43342176 0 5018.27656058 0 -427.21236634 0 1611.95333640 0 13428
0.11150000 0.11150900 15479.66371271 0 -22.70468783 0 5379.61080871 0 209.33448025 0 788.78356222 0 13453
0.11250000 0.11250000 15439.36045037 0 61.41530696 0 5121.49277254 0 417.00368285 0 1690.61113191 0 13668
0.11350000 0.11349100 15125.23859526 0 345.51632490 0 4939.50804182 0 584.87895006 0 330.35720499 0 13791
0.11450000 0.11448600 15080.72784949 0 174.66149508 0 4017.52662650 0 373.68874816 0 593.53418637 0 14205
0.11550000 0.11549300 15115.60567267 0 -29.26371160 0 3795.19434414 0 -30.09457886 0 219.80225614 0 14776
0.11650000 0.11649800 14742.24687979 0 68.06844550 0 4029.94977494 0 -385.34790620 0 -217.20136704 0 14553
0.11750000 0.11747300 14859.94569261 0 292.97482193 0 4435.37402050 0 -332.91601925 0 -457.21725936 0 14568
0.11850000 0.11849100 14483.48664877 0 542.94251981 0 4105.87270622 0 -288.80276994 0 -1272.66408698 0 16015
0.11950000 0.11950300 14246.76034415 0 339.29367835 0 4321.86054646 0 -390.76116580 0 -702.00421645 0 15270
0.12050000 0.12050700 13815.60401571 0 341.53250243 0 4380.95354402 0 131.47167766 0 -947.22077975 0 15999
0.12150000 0.12150000 13568.91261875 0 293.06782946 0 4043.65731307 0 191.35966814 0 -230.60663070 0 15670
0.12250000 0.12250700 13792.13068710 0 -110.23152624 0 4638.32973443 0 952.80233869 0 -1108.60545014 0 16887
0.12350000 0.12352200 13549.09315733 0 7.58119866 0 3895.60925792 0 426.00105400 0 -195.41878242 0 16407
0.12450000 0.12449800 13467.71156991 0 292.39906104 0 4018.30168923 0 356.16125798 0 -304.12686749 0 16306
0.12550000 0.12549900 13294.09751676 0 170.04101394 0 3797.06556703 0 550.71861353 0 242.01555419 0 17523
0.12650000 0.12650100 13402.05268374 0 31.71612083 0 3515.15310483 0 372.66012919 0 767.36525709 0 17154
0.12750000 0.12750600 13076.96922706 0 180.32056030 0 3407.76262641 0 353.92907729 0 727.16828907 0 18007
0.12850000 0.12850300 13233.64262325 0 47.07387824 0 3720.71081508 0 1.83310088 0 1354.83180946 0 17496
0.12950000 0.12949900 13079.95875476 0 139.26659434 0 3681.14939851 0 232.78566422 0 1543.79210481 0 18405
0.13050000 0.13049000 12910.88435478 0 196.22816937 0 3807.19674424 0 -189.31460975 0 1936.77105728 0 18100
0.13150000 0.13148800 12960.48836997 0 227.13767133 0 4450.64275643 0 -105.27732522 0 2097.54121364 0 19059
0.13250000 0.13249300 12770.26582959 0 157.71640918 0 4816.02947544 0 58.17543400 0 2106.38800117 0 18957
0.13350000 0.13349100 12496.44723682 0 196.55923188 0 4736.95093159 0 150.74527348 0 2549.84568249 0 19468
0.13450000 0.13450700 12531.32506000 0 198.73494370 0 4267.07468326 0 411.49852296 0 2392.53009146 0 19953
0.13550000 0.13551000 12408.42225451 0 -22.95602960 0 4333.91830819 0 499.03189404 0 1864.01481089 0 19956
0.13650000 0.13649900 12231.92939690 0 -67.32992144 0 3742.12469128 0 621.06995096 0 1991.70086070 0 19723
0.13750000 0.13749600 12246.87703541 0 -4.01674049 0 3321.27669725 0 661.20380673 0 1160.43500262 0 20946
0.13850000 0.13851100 12061.74776444 0 259.52089973 0 3000.45608563 0 27.27899738 0 1255.23624772 0 20955
0.13950000 0.13949800 11965.30781527 0 225.90642881 0 3233.14099169 0 -166.84664823 0 1130.59508723 0 20506
0.14050000 0.14048300 11676.54158400 0 207.07904769 0 2802.61578577 0 -60.77554804 0 915.04903275 0 21447
0.14150000 0.14148400 11592.05974563 0 243.56125073 0 3207.37569184 0 6.97318409 0 1110.68704721 0 21771
0.14250000 0.14249400 11362.64117539 0 300.19065602 0 2921.83150709 0 97.77604661 0 548.70455764 0 22470
0.14350000 0.14350900 10992.61515228 0 361.00982901 0 2410.38975140 0 271.64509540 0 735.87113638 0 22519
0.14450000 0.14449900 10770.63718431 0 106.67011296 0 2383.07432607 0 -107.41860212 0 663.93202757 0 22218
0.14550000 0.14550500 10802.79121559 0 -17.55661040 0 2573.34115575 0 115.28283155 0 -35.33212067 0 23559
0.14650000 0.14650700 10658.69598040 0 92.95371698 0 2450.39406096 0 -23.04283663 0 -132.22459575 0 23044
0.14750000 0.14750500 10559.34400980 0 152.47809231 0 2250.30607917 0 -128.97708288 0 -370.50766924 0 23649
0.14850000 0.14849900 10686.75325149 0 -111.07866981 0 2362.04798124 0 122.77768822 0 -316.42932760 0 23640
0.14950000 0.14949500 10692.61051132 0 -9.31128263 0 2227.18706495 0 30.89388999 0 -804.39221852 0 24457
0.15050000 0.15050000 10632.27741338 0 146.67508687 0 2398.33198967 0 -4.96655773 0 -257.30422030 0 24591
0.15150000 0.15149900 10592.76028610 0 228.73872950 0 2420.31055443 0 -27.32395102 0 -697.99824933 0 25020
0.15250000 0.15250500 10229.03441581 0 276.30543692 0 2502.01323927 0 -80.30657540 0 173.10029728 0 25297
0.15350000 0.15350100 10273.04690696 0 278.84764270 0 2656.45002584 0 8.63893785 0 -276.31761648 0 25452
0.15450000 0.15450400 9908.11415326 0 221.14643637 0 2657.61261995 0 -57.34489891 0 -24.97872190 0 26061
0.15550000 0.15549900 9718.62238632 0 248.46186170 0 2659.49491517 0 69.83547782 0 -182.81736955 0 26128
0.15650000 0.15649500 9591.37922950 0 170.14620102 0 2860.45761062 0 36.79089946 0 46.52934131 0 26331
0.15750000 0.15749700 9566.21183519 0 -14.52068966 0 2732.39510177 0 14.09960915 0 137.73307735 0 27345
0.15850000 0.15849900 9589.08725827 0 100.34681898 0 2806.42466551 0 -89.87262115 0 -159.64963710 0 26980
0.15950000 0.15949700 9424.68537936 0 196.38982531 0 3111.22362312 0 -155.53183950 0 -83.00711542 0 27777
0.16050000 0.16050000 9242.76708259 0 347.13842048 0 3029.07804529 0 31.77491487 0 -37.79947753 0 28224
0.16150000 0.16150500 9090.79942445 0 288.67322374 0 3039.76283874 0 230.37521911 0 540.94617964 0 28075
0.16250000 0.16249700 8925.57819351 0 32.99309205 0 3102.00037654 0 210.90675038 0 198.19793595 0 28590
0.16350000 0.16349900 8838.54972043 0 127.31401969 0 3019.72193081 0 374.18589555 0 444.69335276 0 29163
0.16450000 0.16449100 8768.45083201 0 100.09547721 0 2924.25634623 0 222.51497572 0 443.87621519 0 28996
0.16550000 0.16550500 8572.80285246 0 81.76413624 0 2823.68641990 0 221.95693055 0 604.53454108 0 30777
0.16650000 0.16650700 8679.01966445 0 57.62292499 0 2723.85833934 0 111.60349801 0 852.87903613 0 29211
0.16750000 0.16749900 8587.51797214 0 20.45700589 0 2791.29986981 0 176.71208964 0 495.73455571 0 30922
0.16850000 0.16850800 8477.55871437 0 108.73166912 0 2398.50914686 0 10.22925586 0 484.04771686 0 30867
0.16950000 0.16949900 8485.53078824 0 89.18425472 0 2636.48662419 0 66.98546141 0 494.08256485 0 30852
0.17050000 0.17049200 8483.61527605 0 13.17584509 0 2423.63225188 0 -84.62898956 0 207.81978622 0 31257
0.17150000 0.17149500 8464.33835854 0 11.18847351 0 2382.40998658 0 67.61293006 0 41.04953703 0 32608
0.17250000 0.17250900 8388.02789589 0 37.60847993 0 2239.42198387 0 -191.71841147 0 -159.54002108 0 32361
0.17350000 0.17350400 8495.30765106 0 87.46106881 0 2338.20926590 0 -63.47719529 0 1.68898350 0 32508
0.17450000 0.17449800 8336.44193456 0 159.44369185 0 2442.39984245 0 105.52169143 0 76.19542120 0 32791
0.17550000 0.17549800 8207.15039765 0 143.77192331 0 2510.79359285 0 134.49110064 0 213.54749985 0 33633
0.17650000 0.17650100 8192.30241007 0 89.47324239 0 2476.96764053 0 259.47107427 0 145.22239786 0 33984
0.17750000 0.17750300 8094.38984170 0 85.63391376 0 2467.54509211 0 195.60701194 0 303.82016409 0 34069
0.17850000 0.17849800 8024.70062929 0 194.06242263 0 2381.20310317 0 170.61677483 0 311.51985877 0 34536
