### header ###
fiducial parameters:
Omega_m = 0.31
Omega_nu = 0
Omega_de = 0.69
Omega_k = 0
H_0 = 100
w_de = -1
zeff = 0
beta = 0
fgrowth = 0
b_1 = 2
gamma = 0.55
Lx = 3500 Ly = 3500 Lz = 3500
nx = 700 ny = 700 nz = 700
xoffset = -685.467585 yoffset = -31.7331281 zoffset = 572.489161
bins = 400 dk = 0.001
kx_ny = 0.628318531 ky_ny = 0.628318531 kz_ny = 0.628318531
############################
A(data) = 8.05808413 (not used)
A(ran) = 8.05868129 (used)
Ngal = 478615
weighted Ngal = 0
Nran = 23820508
weighted Nran = 0
SN(data) = 3487.79371
SN(ran) = 70.1940367
SN(data+ran) = 3557.98774
############################
13 columns: k_central k_mean P_0(k) sigma^{lin}_{P_0(k)} P^img_1(k) sigma^{lin}_{P_1(k)} P_2(k) sigma^{lin}_{P_2(k)} P^img_3(k) sigma^{lin}_{P_3(k)} P_4(k) sigma^{lin}_{P_4(k)} N_modes
### header ###
0.00050000 0 0 0 0 0 0 0 0 0 0 0 0
0.00150000 0.00179520 19496.03881742 0 -3708.79699358 0 32396.40446363 0 -14822.74268122 0 4058.92604899 0 3
0.00250000 0.00253879 37090.07367750 0 -96.48999608 0 10243.50594435 0 -16680.67878579 0 -10048.92090798 0 6
0.00350000 0.00331552 28699.46592993 0 5065.48895361 0 -6634.91349038 0 22509.15057032 0 43608.46202149 0 7
0.00450000 0.00420575 25785.56220741 0 -1867.52473786 0 -3770.71343396 0 8376.59018435 0 11180.50143212 0 24
0.00550000 0.00557378 30082.62074628 0 -2650.55954904 0 4804.34817276 0 7966.01730775 0 -36937.38631825 0 45
0.00650000 0.00659388 48716.12546033 0 -10800.18921925 0 -2165.62493895 0 132.50140387 0 -9374.09592726 0 40
0.00750000 0.00754703 52828.60834447 0 -18411.50460144 0 10045.02344965 0 -18873.44199287 0 3445.68533891 0 57
0.00850000 0.00846663 62615.54697492 0 -13896.87487988 0 8315.48202368 0 -21015.49395229 0 2946.25705564 0 75
0.00950000 0.00948925 80479.30366758 0 -15715.83640109 0 16702.82343542 0 12348.52097724 0 -4539.94105609 0 112
0.01050000 0.01054430 92324.25531207 0 -8595.20216557 0 26211.29309669 0 2801.15423889 0 16981.07095812 0 105
0.01150000 0.01145670 96900.89005261 0 3757.53736743 0 20765.25941139 0 18826.27388914 0 -11029.24240278 0 144
0.01250000 0.01249090 88826.72934836 0 14177.77976053 0 21047.16080127 0 -3786.30326731 0 10809.41246583 0 169
0.01350000 0.01339930 88605.50429848 0 12428.35243919 0 12967.13176486 0 -3175.22166057 0 6731.08770375 0 180
0.01450000 0.01448870 76888.99162188 0 1631.27454321 0 16981.07095812 0 10746.21163576 0 10316.21790143 0 267
0.01550000 0.01550050 79144.31346419 0 -6231.22759981 0 21614.28527848 0 -4909.83421131 0 -2320.67070339 0 238
0.01650000 0.01653350 83732.24197605 0 1080.94235382 0 18614.23886887 0 4380.14526431 0 -8131.10567080 0 315
0.01750000 0.01747870 82395.59092394 0 7395.62649472 0 27119.99879455 0 -1069.22340523 0 8671.45726660 0 297
0.01850000 0.01844180 72119.03409001 0 1516.08914812 0 19049.49195749 0 -531.02205491 0 5925.83073667 0 388
0.01950000 0.01947590 77720.52321577 0 -795.57754073 0 21510.64831818 0 9424.20926939 0 7545.43504951 0 399
0.02050000 0.02045430 79063.04260003 0 1262.00143818 0 19831.30881293 0 -4379.50306947 0 -6504.79152911 0 462
0.02150000 0.02154770 74759.67283601 0 2122.86362050 0 21612.73515300 0 -1323.15388815 0 4495.44138264 0 571
0.02250000 0.02255340 75595.85480632 0 1239.64641437 0 27831.61711065 0 6616.84345627 0 10118.51046947 0 510
0.02350000 0.02348930 77121.73188957 0 -5010.50378856 0 16971.54875877 0 12697.18848578 0 424.74988130 0 555
0.02450000 0.02439640 76788.67635903 0 920.90518535 0 23475.43235725 0 12615.03183563 0 -2443.91675095 0 592
0.02550000 0.02547300 75673.80397304 0 4573.72271911 0 20015.77374441 0 -1342.45295031 0 -8780.10999004 0 837
0.02650000 0.02652900 72209.16281404 0 6982.57341736 0 22259.69109216 0 -4872.84157409 0 -1779.82085297 0 723
0.02750000 0.02749970 64447.35239292 0 6276.65734854 0 23358.73005366 0 -6272.75989021 0 -2485.21652252 0 826
0.02850000 0.02848090 63937.02894202 0 4314.22064234 0 28739.65846902 0 -1663.30677891 0 3937.09725901 0 831
0.02950000 0.02946900 59214.46096038 0 1385.62394478 0 29712.91582058 0 6663.01505077 0 2581.81148424 0 996
0.03050000 0.03053250 63126.09187231 0 1724.75818165 0 28199.66118762 0 6838.54461612 0 -3848.98369811 0 1041
0.03150000 0.03150510 58698.60134708 0 -287.44862462 0 29424.59248230 0 7893.81467761 0 77.59518450 0 1036
0.03250000 0.03246190 61187.65996631 0 2198.52081599 0 27879.22810737 0 -2349.56947117 0 1065.60607671 0 1059
0.03350000 0.03345080 57445.87851709 0 1506.26799600 0 30191.24025275 0 3234.63575554 0 -564.74946354 0 1302
0.03450000 0.03451200 57703.64223887 0 1520.51807805 0 26589.74515899 0 -1352.10801755 0 5931.07901863 0 1339
0.03550000 0.03553350 56197.14172405 0 1886.90130629 0 28858.79668407 0 4870.97035119 0 3900.11569412 0 1365
0.03650000 0.03647120 53833.64326826 0 -12.59388370 0 26731.58163991 0 5302.00488406 0 5469.24127812 0 1308
0.03750000 0.03744890 52118.65087710 0 1647.90517508 0 25871.81561775 0 8127.20821246 0 1905.81283708 0 1579
0.03850000 0.03847530 51794.23175991 0 1121.12824951 0 20805.23050398 0 6140.66705512 0 2604.54296709 0 1662
0.03950000 0.03950240 49047.96303514 0 3570.32649940 0 21044.72488981 0 5417.90998026 0 6123.68210885 0 1683
0.04050000 0.04050350 48028.31264259 0 1274.71246707 0 20321.36990941 0 706.85168026 0 10854.23323669 0 1822
0.04150000 0.04152450 45993.77295717 0 490.08434836 0 22747.64844692 0 2948.81476268 0 10752.13532954 0 1887
0.04250000 0.04250150 46030.86524531 0 2283.58948757 0 22263.78785234 0 914.02705717 0 11880.38308391 0 1920
0.04350000 0.04349210 46452.94226740 0 938.81356351 0 21361.28265637 0 2508.72306811 0 11530.60834289 0 2005
0.04450000 0.04448520 45421.99810353 0 -1787.30574455 0 18362.34347924 0 5038.80465079 0 15722.81196573 0 2151
0.04550000 0.04548030 46726.98230666 0 -890.65337948 0 18477.82782710 0 2329.79429904 0 8904.02037709 0 2274
0.04650000 0.04648670 46436.88739641 0 664.01507000 0 16674.47828389 0 1208.42245838 0 9680.89897566 0 2311
0.04750000 0.04749250 46151.44286259 0 1350.24786698 0 16135.69895821 0 362.23442814 0 6380.62647859 0 2568
0.04850000 0.04851840 44788.10750767 0 2286.75617247 0 15795.11424679 0 -568.66242313 0 7236.35110220 0 2493
0.04950000 0.04949480 42489.04998232 0 2140.63470184 0 16655.21243870 0 -1064.52652504 0 6714.85567557 0 2644
0.05050000 0.05050630 41042.45074477 0 1114.51807160 0 20529.19744625 0 -401.21897659 0 7311.72041724 0 2829
0.05150000 0.05149060 41728.27054403 0 1625.48371733 0 24439.72112570 0 2123.59439394 0 10582.77304911 0 2784
0.05250000 0.05249300 38637.98468715 0 1488.90659069 0 20894.03054903 0 3059.73731271 0 8657.99331962 0 3055
0.05350000 0.05348950 39207.21290607 0 604.25662572 0 21836.83900733 0 3284.71588070 0 11050.31303691 0 3009
0.05450000 0.05448610 37699.71588202 0 749.67721819 0 19216.57333900 0 2934.12178764 0 8338.00313236 0 3336
0.05550000 0.05550870 38010.51603968 0 157.85149154 0 18917.84201539 0 3456.84624233 0 7144.71654200 0 3349
0.05650000 0.05647670 36413.77607758 0 1081.20255345 0 15231.31146703 0 -1152.91689407 0 6515.56490116 0 3324
0.05750000 0.05747970 35679.57021885 0 340.95674154 0 14911.54272626 0 202.76526994 0 3372.43083791 0 3639
0.05850000 0.05849280 36523.05992354 0 1.35260627 0 14607.16451700 0 -609.52040894 0 1255.88951488 0 3846
0.05950000 0.05951020 35771.47051485 0 768.30529747 0 13584.63532000 0 398.55829694 0 -621.34233015 0 3787
0.06050000 0.06049470 34927.87008692 0 700.50391644 0 13691.26180800 0 391.86286212 0 -1511.28375915 0 3930
0.06150000 0.06148310 35989.26314403 0 -418.27257128 0 13070.87944841 0 1360.08009142 0 -720.73748282 0 4083
0.06250000 0.06249100 35598.52080118 0 -481.24974038 0 11232.54135877 0 2648.07934828 0 -1583.53067859 0 4303
0.06350000 0.06350600 36054.03624422 0 -998.06046639 0 10827.27212576 0 3217.19684396 0 -1581.00618853 0 4470
0.06450000 0.06451750 36144.60786124 0 -370.10906555 0 9479.73697836 0 1972.74504061 0 581.13207534 0 4479
0.06550000 0.06550280 35700.93980575 0 1230.89927776 0 8109.58107135 0 1759.79101738 0 -35.73792137 0 4636
0.06650000 0.06648880 34914.47257389 0 1282.59596234 0 7938.15933851 0 1742.36317811 0 -2687.26430581 0 4653
0.06750000 0.06749660 32834.53635670 0 1858.58937173 0 7685.34494592 0 -1031.88752594 0 -753.72636738 0 5220
0.06850000 0.06852730 31406.76007134 0 1931.75529413 0 7682.97546841 0 -1483.04933086 0 -2936.85665187 0 5029
0.06950000 0.06949320 30217.26021607 0 1140.82591536 0 8126.63245157 0 -2022.73658717 0 -143.28695548 0 5040
0.07050000 0.07048030 29331.03133759 0 980.58169443 0 9308.72492153 0 -706.46193443 0 -1945.86143595 0 5475
0.07150000 0.07148790 29169.48611848 0 792.17833701 0 10001.97425075 0 -443.49975615 0 -386.25030067 0 5509
0.07250000 0.07249820 27885.98222551 0 1187.28539030 0 10663.68959889 0 173.30513529 0 -1397.51562164 0 5916
0.07350000 0.07351270 28487.09873991 0 311.37591855 0 11575.11908866 0 -473.12486843 0 -1702.82390618 0 5721
0.07450000 0.07449140 26905.41713957 0 610.92437973 0 11612.32210005 0 465.85699442 0 -1469.76254108 0 6028
0.07550000 0.07549160 27717.01854877 0 899.72382797 0 14034.50387738 0 597.16590891 0 2041.68133493 0 6183
0.07650000 0.07648840 26480.23986653 0 295.74843930 0 11658.93658754 0 3355.27980677 0 3394.55334290 0 6330
0.07750000 0.07749960 26287.13852169 0 -45.72604414 0 11296.09650323 0 3116.72656855 0 3857.94120889 0 6583
0.07850000 0.07848650 26463.07776306 0 285.30280807 0 9939.39347088 0 2424.71733971 0 3755.17896224 0 6549
0.07950000 0.07947320 25832.28741814 0 343.35279263 0 10283.25559045 0 1579.24568888 0 4951.14505521 0 6828
0.08050000 0.08048110 25396.03782029 0 695.80039286 0 8695.86067050 0 354.25128195 0 5077.33634116 0 7147
0.08150000 0.08149960 24352.91409912 0 518.92664728 0 8545.64243968 0 494.81665998 0 4878.78741252 0 7386
0.08250000 0.08250610 24210.63472520 0 452.20371069 0 8592.37872274 0 -156.45084245 0 4199.04631957 0 7227
0.08350000 0.08350160 23792.32229356 0 536.06771333 0 8493.54715141 0 350.99269675 0 3518.89555061 0 7798
0.08450000 0.08449610 22946.39667741 0 889.27155334 0 8292.63981757 0 -1097.18877602 0 2956.06713543 0 7371
0.08550000 0.08548940 22837.44500120 0 954.00147147 0 8632.88128693 0 512.07952161 0 2142.79380518 0 8256
0.08650000 0.08650700 21520.39196402 0 708.84137703 0 7876.45327229 0 446.33870023 0 1675.92922920 0 8037
0.08750000 0.08749060 20945.62758268 0 361.95319109 0 7252.12916507 0 914.80876331 0 1905.80176476 0 8155
0.08850000 0.08849210 20938.65201805 0 -208.06337736 0 6610.21113371 0 1395.31222900 0 1178.81506182 0 8718
0.08950000 0.08949900 21224.31799837 0 -330.21437200 0 6131.41059157 0 1331.03738342 0 1347.34691788 0 8571
0.09050000 0.09049190 20893.03403979 0 420.83360001 0 5383.07644638 0 384.69906796 0 523.69992650 0 8932
0.09150000 0.09150830 20555.10668633 0 915.74991092 0 6399.22798429 0 -641.01120796 0 1855.76592890 0 9285
0.09250000 0.09250820 19624.03489233 0 1004.95852475 0 6229.64425736 0 -164.14278651 0 1785.25736446 0 9204
0.09350000 0.09350330 19567.01241951 0 551.89560166 0 7284.92539118 0 -28.77531135 0 2684.38550136 0 9349
0.09450000 0.09448040 18728.72670749 0 327.16394651 0 7637.85574477 0 246.36476338 0 3502.68566708 0 9564
0.09550000 0.09549270 18808.33672294 0 314.34994500 0 8469.14374751 0 306.46202080 0 3026.16602386 0 10155
0.09650000 0.09649430 18676.79750409 0 357.81546330 0 8597.30590728 0 58.89391716 0 3636.81580993 0 9913
0.09750000 0.09749140 18427.33802593 0 236.99093319 0 8957.97581593 0 -440.73056771 0 3224.61530158 0 10476
0.09850000 0.09850240 18027.62709998 0 315.93218021 0 8837.81894700 0 432.06425907 0 3956.56240605 0 10575
0.09950000 0.09950330 17970.93679690 0 270.24001738 0 7718.06366576 0 823.79646776 0 2485.33831809 0 10882
0.10050000 0.10051200 17584.51266073 0 -346.98451517 0 6955.39085993 0 1297.05641856 0 2607.01209552 0 10875
0.10150000 0.10150300 17925.20809540 0 -51.95765927 0 6257.39150336 0 816.74561132 0 680.68334778 0 11118
0.10250000 0.10250800 17474.12158229 0 404.14871374 0 6274.97435517 0 329.97631701 0 518.81481679 0 11575
0.10350000 0.10349800 16957.15473651 0 555.17300980 0 5354.44341440 0 65.37665261 0 251.58315006 0 11364
0.10450000 0.10450100 16580.03135319 0 463.78757691 0 5717.53816218 0 -279.34811178 0 392.71875283 0 12093
0.10550000 0.10551000 16132.37726077 0 392.20610419 0 6107.28399579 0 -319.10661574 0 557.32436251 0 12067
0.10650000 0.10649700 16498.42831927 0 -63.04792126 0 6127.57956719 0 616.60780406 0 725.14980426 0 12054
0.10750000 0.10749900 16167.14436070 0 -36.69899916 0 5831.80455431 0 594.86618704 0 1590.34015835 0 12807
0.10850000 0.10850100 16658.97702914 0 -131.73298453 0 5438.29413025 0 993.42780568 0 1485.73990579 0 12736
0.10950000 0.10950300 16425.79386846 0 -4.13762813 0 5341.23413089 0 844.09757532 0 1957.06662867 0 12933
0.11050000 0.11050200 16584.12811337 0 216.31115212 0 5348.57508225 0 642.17269483 0 2638.46857033 0 13428
0.11150000 0.11150900 16157.17926836 0 323.47575511 0 5077.84566810 0 208.50405589 0 2568.15930774 0 13453
0.11250000 0.11250000 15918.01705228 0 546.90419763 0 5137.08260588 0 103.38661504 0 2359.98852882 0 13668
0.11350000 0.11349100 15254.00973290 0 445.50606140 0 4886.20587014 0 -109.10945684 0 2402.38446055 0 13791
0.11450000 0.11448600 14915.97165619 0 487.29522973 0 5460.23947804 0 80.79010383 0 2114.70331711 0 14205
0.11550000 0.11549300 14436.31854505 0 361.43279182 0 4725.73466655 0 -126.86891224 0 1456.71934244 0 14776
0.11650000 0.11649800 14235.79874258 0 341.77166464 0 4958.66316376 0 30.42885234 0 1310.93004155 0 14553
0.11750000 0.11747300 13984.23552270 0 113.41825205 0 4675.26701002 0 -364.75559650 0 855.33377054 0 14568
0.11850000 0.11849100 13846.27435546 0 37.96988061 0 4523.05576074 0 -212.76247202 0 201.93484558 0 16015
0.11950000 0.11950300 14182.31941371 0 65.31243313 0 5050.58560440 0 -133.18678078 0 10.90124633 0 15270
0.12050000 0.12050700 13952.34722722 0 101.08800041 0 4733.65137879 0 -200.38250564 0 -310.57760393 0 15999
0.12150000 0.12150000 13840.51674656 0 181.13548341 0 4603.90587657 0 621.80072440 0 395.74260474 0 15670
0.12250000 0.12250700 13998.74026821 0 -346.90479443 0 4262.26929429 0 773.21255183 0 109.72087062 0 16887
0.12350000 0.12352200 13950.24348551 0 -132.22459575 0 4026.15196753 0 1092.10657893 0 16.71300997 0 16407
0.12450000 0.12449800 14155.85655739 0 91.49449529 0 3810.45200774 0 611.22333250 0 49.63645710 0 16306
0.12550000 0.12549900 13823.79753608 0 369.88983352 0 3339.40209298 0 -37.57393427 0 -230.97755358 0 17523
0.12650000 0.12650100 13529.27369590 0 390.60615325 0 3644.62179893 0 -545.12266056 0 -81.59938005 0 17154
0.12750000 0.12750600 13301.07308139 0 273.93817387 0 4062.72385641 0 -477.47629208 0 -158.18033959 0 18007
0.12850000 0.12850300 13205.40819496 0 310.30743920 0 4193.73160366 0 -356.81784684 0 64.05948885 0 17496
0.12950000 0.12949900 13133.88097663 0 161.31823645 0 4633.38040523 0 112.89120939 0 236.69087318 0 18405
0.13050000 0.13049000 13004.22405300 0 191.48146372 0 4278.95528779 0 5.35561708 0 21.84569687 0 18100
0.13150000 0.13148800 12820.09129127 0 258.49006629 0 4638.55118093 0 190.95995722 0 141.23193199 0 19059
0.13250000 0.13249300 12617.91064008 0 295.46720225 0 4547.27093512 0 247.20183113 0 365.06119267 0 18957
0.13350000 0.13349100 12265.92143410 0 240.43221174 0 4369.57119411 0 288.78283976 0 -8.76628066 0 19468
0.13450000 0.13450700 12138.03608244 0 224.06953012 0 4238.47486825 0 546.20885563 0 125.42286662 0 19953
0.13550000 0.13551000 12001.51431743 0 58.52122270 0 4037.13571375 0 230.88454605 0 -276.06738194 0 19956
0.13650000 0.13649900 12008.82205181 0 -85.66004445 0 3706.48287769 0 364.80431473 0 89.59249133 0 19723
0.13750000 0.13749600 11967.19011049 0 -155.87508156 0 3354.01756174 0 477.30909998 0 624.26542390 0 20946
0.13850000 0.13851100 12040.04600780 0 65.26083610 0 3354.94763702 0 524.89241589 0 87.49417506 0 20955
0.13950000 0.13949800 11951.46740925 0 187.58843431 0 3044.82289118 0 189.30464466 0 96.06360085 0 20506
0.14050000 0.14048300 11638.34206338 0 349.33738419 0 2767.59402237 0 -123.19290040 0 90.89249299 0 21447
0.14150000 0.14148400 11470.15344938 0 350.25860162 0 3104.01553966 0 -232.09696562 0 382.38716654 0 21771
0.14250000 0.14249400 11325.77033375 0 67.59532506 0 3198.49568734 0 39.49243599 0 95.25465680 0 22470
0.14350000 0.14350900 11172.41863501 0 18.20013392 0 3155.28040357 0 418.55380833 0 25.69642999 0 22519
0.14450000 0.14449900 11261.44012655 0 182.40437183 0 3128.10891846 0 -231.30972332 0 -881.04038707 0 22218
0.14550000 0.14550500 10956.23149292 0 276.59553183 0 3193.83423859 0 -55.67342076 0 -202.50174861 0 23559
0.14650000 0.14650700 10687.05220426 0 540.14343609 0 3346.62124876 0 -358.31039622 0 222.91025771 0 23044
0.14750000 0.14750500 10482.56850951 0 185.33853791 0 3281.02879654 0 -38.47123548 0 194.72786935 0 23649
0.14850000 0.14849900 10283.96421923 0 66.50082575 0 3372.13188514 0 424.21176631 0 214.18969469 0 23640
0.14950000 0.14949500 10141.87307484 0 128.22416479 0 3056.28274737 0 332.68903659 0 255.34774050 0 24457
0.15050000 0.15050000 10019.23600514 0 69.73937004 0 2955.08169852 0 674.29683083 0 293.44539574 0 24591
0.15150000 0.15149900 9962.71178695 0 22.12671247 0 2634.89220942 0 422.05044851 0 102.84373895 0 25020
0.15250000 0.15250500 9943.77811151 0 52.77712203 0 2507.25044891 0 320.12416239 0 152.71061113 0 25297
0.15350000 0.15350100 9690.93050195 0 174.48101619 0 2182.91991032 0 187.72573114 0 -98.62562609 0 25452
0.15450000 0.15450400 9794.98821059 0 229.70755792 0 2338.68537587 0 -309.62206230 0 -105.35649235 0 26061
0.15550000 0.15549900 9526.14109167 0 62.11762453 0 2257.80204307 0 -511.99426471 0 178.40061918 0 26128
0.15650000 0.15649500 9523.01869607 0 223.44837270 0 2375.56728984 0 -266.34809521 0 -117.24041857 0 26331
0.15750000 0.15749700 9638.52518858 0 121.55087463 0 2655.17670849 0 -72.58484680 0 357.86085984 0 27345
0.15850000 0.15849900 9351.06549164 0 80.03220319 0 2832.69929230 0 306.75543740 0 70.72569273 0 26980
0.15950000 0.15949700 9419.83570109 0 149.42766682 0 2959.22274801 0 265.54092273 0 172.84784828 0 27777
0.16050000 0.16050000 9176.73173737 0 212.36608279 0 2734.97495345 0 165.74273744 0 379.78184851 0 28224
0.16150000 0.16150500 9178.37044144 0 68.10387694 0 3075.61502650 0 145.61657262 0 595.11309989 0 28075
0.16250000 0.16249700 9091.78486136 0 -59.64583874 0 2824.76043541 0 152.75822213 0 832.94552976 0 28590
0.16350000 0.16349900 9132.91854806 0 125.74064234 0 3067.66509728 0 6.16618876 0 555.82074080 0 29163
0.16450000 0.16449100 8989.23298889 0 68.45874495 0 2935.38403267 0 -39.28748726 0 906.19338736 0 28996
0.16550000 0.16550500 9077.33547747 0 -21.38243080 0 2700.63967419 0 202.89038721 0 850.91148401 0 30777
0.16650000 0.16650700 9008.31060455 0 19.00531338 0 2802.13967580 0 113.37396275 0 857.18174156 0 29211
0.16750000 0.16749900 9010.68008206 0 241.25267101 0 2589.50674999 0 137.31011454 0 489.86400909 0 30922
0.16850000 0.16850800 8819.20636898 0 160.16892913 0 2454.72333997 0 30.06136188 0 628.87926165 0 30867
0.16950000 0.16949900 8578.21721930 0 189.33343270 0 2468.29801020 0 23.33857842 0 445.39312369 0 30852
0.17050000 0.17049200 8570.06798823 0 61.87757653 0 2396.60470700 0 85.92456229 0 510.59804455 0 31257
0.17150000 0.17149500 8422.46282607 0 205.13806915 0 2444.99076645 0 151.79603710 0 467.12145391 0 32608
0.17250000 0.17250900 8320.44242519 0 119.33530243 0 2502.71079573 0 170.00115357 0 663.76483546 0 32361
0.17350000 0.17350400 8257.90593462 0 87.81527248 0 2602.23992353 0 185.92094219 0 1013.11550644 0 32508
0.17450000 0.17449800 8214.20346856 0 82.93824556 0 2848.53271679 0 150.14404624 0 1080.83827396 0 32791
0.17550000 0.17549800 8067.24050124 0 45.19689774 0 2617.98476942 0 362.75925634 0 1228.33049841 0 33633
0.17650000 0.17650100 8166.33780837 0 112.50146355 0 2538.06472888 0 121.08694422 0 1324.65972433 0 33984
0.17750000 0.17750300 8008.80077085 0 73.94940011 0 2295.41473048 0 141.08356284 0 1128.45812854 0 34069
0.17850000 0.17849800 8007.82640626 0 74.55417049 0 2270.50199964 0 54.03726332 0 1134.06072490 0 34536
