### header ###
fiducial parameters:
Omega_m = 0.31
Omega_nu = 0
Omega_de = 0.69
Omega_k = 0
H_0 = 100
w_de = -1
zeff = 0
beta = 0
fgrowth = 0
b_1 = 2
gamma = 0.55
Lx = 3500 Ly = 3500 Lz = 3500
nx = 700 ny = 700 nz = 700
xoffset = -685.467585 yoffset = -31.7331281 zoffset = 572.489161
bins = 400 dk = 0.001
kx_ny = 0.628318531 ky_ny = 0.628318531 kz_ny = 0.628318531
############################
A(data) = 8.01593767 (not used)
A(ran) = 8.01184304 (used)
Ngal = 476403
weighted Ngal = 0
Nran = 23820508
weighted Nran = 0
SN(data) = 3490.81752
SN(ran) = 69.7860585
SN(data+ran) = 3560.60358
############################
13 columns: k_central k_mean P_0(k) sigma^{lin}_{P_0(k)} P^img_1(k) sigma^{lin}_{P_1(k)} P_2(k) sigma^{lin}_{P_2(k)} P^img_3(k) sigma^{lin}_{P_3(k)} P_4(k) sigma^{lin}_{P_4(k)} N_modes
### header ###
0.00050000 0 0 0 0 0 0 0 0 0 0 0 0
0.00150000 0.00179520 11433.28260773 0 -15348.89955660 0 8059.92169454 0 -13650.73709916 0 -40971.03424969 0 3
0.00250000 0.00253879 27272.24326081 0 -20214.63269815 0 562.01902824 0 17041.85802137 0 43840.75939618 0 6
0.00350000 0.00331552 37448.70627838 0 -14199.92441017 0 7074.91660634 0 -10708.77610555 0 -10888.86746873 0 7
0.00450000 0.00420575 48393.69936161 0 -4551.68879272 0 -1753.34692433 0 -14743.68628201 0 -15287.66960035 0 24
0.00550000 0.00557378 54810.33304051 0 -313.46083731 0 6455.71898551 0 -15692.36307247 0 -13662.47376347 0 45
0.00650000 0.00659388 56993.57404825 0 1420.56820191 0 -5946.20381433 0 4705.57196305 0 55128.55165580 0 40
0.00750000 0.00754703 59211.91432567 0 -18080.44208936 0 -13830.55165422 0 21346.99935736 0 -427.08060567 0 57
0.00850000 0.00846663 73478.49413125 0 -20115.31394453 0 -32993.09204811 0 28434.50519702 0 -2119.58621236 0 75
0.00950000 0.00948925 101894.06565283 0 -26920.47550132 0 -24834.11733574 0 -982.10746079 0 -42104.39741812 0 112
0.01050000 0.01054430 100625.06650536 0 2906.85065161 0 -30320.12211364 0 -25343.33355415 0 13018.95024501 0 105
0.01150000 0.01145670 91556.61103239 0 26570.47931380 0 -22337.75098213 0 -33440.96758702 0 2911.81105313 0 144
0.01250000 0.01249090 70083.49789535 0 16186.63165238 0 -10332.44992961 0 -15669.44336010 0 22995.77924610 0 169
0.01350000 0.01339930 61430.47604958 0 -2189.68510079 0 6719.67213686 0 9742.79327140 0 1634.57409600 0 180
0.01450000 0.01448870 62969.30775288 0 4100.27010987 0 2901.52486338 0 -2454.93371414 0 2092.63617375 0 267
0.01550000 0.01550050 61124.99060783 0 4369.60441108 0 12981.52578713 0 -8650.50842804 0 10353.62021467 0 238
0.01650000 0.01653350 58117.74718709 0 4823.20434193 0 3871.17263704 0 1064.14785153 0 8392.52325976 0 315
0.01750000 0.01747870 58124.94419822 0 3972.79443423 0 10335.67197614 0 1664.75725346 0 -6322.58535189 0 297
0.01850000 0.01844180 55228.31330242 0 -2579.50844068 0 9804.48826529 0 -8964.32025805 0 3597.91873284 0 388
0.01950000 0.01947590 53819.02779950 0 -1177.74104631 0 14523.34701812 0 2063.96992479 0 -11126.02559402 0 399
0.02050000 0.02045430 57722.57591431 0 -3999.13549497 0 5415.73980460 0 5026.20434515 0 -8030.73504631 0 462
0.02150000 0.02154770 64631.92804764 0 -9384.70321444 0 4639.75806433 0 12726.97303954 0 -12262.15684366 0 571
0.02250000 0.02255340 67120.32232739 0 -764.71122083 0 -1703.72076449 0 -9822.09326175 0 -8737.72513063 0 510
0.02350000 0.02348930 66307.61368570 0 6693.13177427 0 4413.83834873 0 -8827.96457791 0 -1909.85423564 0 555
0.02450000 0.02439640 68046.63302171 0 1776.45486623 0 13121.14780309 0 -10658.25308740 0 714.39857686 0 592
0.02550000 0.02547300 65993.27038410 0 -1779.72120205 0 19647.61894419 0 -4699.19430396 0 -6501.72449513 0 837
0.02650000 0.02652900 67198.27149411 0 3229.14388243 0 21561.13811935 0 1327.12885276 0 -5212.38548698 0 723
0.02750000 0.02749970 66498.50056557 0 1816.32630790 0 23270.37290160 0 1533.24017926 0 -3778.97338828 0 826
0.02850000 0.02848090 64418.34290189 0 1535.23319773 0 22979.83509836 0 2507.50511238 0 5549.17239099 0 831
0.02950000 0.02946900 66638.01185829 0 -530.19163055 0 21204.05564395 0 7764.00274143 0 7409.37832214 0 996
0.03050000 0.03053250 60915.61294551 0 4523.39900281 0 17922.44001420 0 8308.53967601 0 3868.02809680 0 1041
0.03150000 0.03150510 60277.51486621 0 2118.43469058 0 15812.60852001 0 1559.75839720 0 2295.44794745 0 1036
0.03250000 0.03246190 55300.17269049 0 3538.00638325 0 11253.91094567 0 -1237.71982985 0 1624.83045016 0 1059
0.03350000 0.03345080 56818.74203937 0 2466.48214893 0 19396.83078705 0 -5988.13470842 0 2047.63824569 0 1302
0.03450000 0.03451200 51976.48222643 0 587.68356993 0 18464.09814433 0 -2450.98089418 0 2615.67065353 0 1339
0.03550000 0.03553350 53971.49371225 0 2085.47237959 0 24420.12311077 0 -1217.32460754 0 5299.42503238 0 1365
0.03650000 0.03647120 50598.75284924 0 2788.94146462 0 24846.40761629 0 3756.99482351 0 7196.33572031 0 1308
0.03750000 0.03744890 50449.05501769 0 -53.41876326 0 24415.69418085 0 6993.32464476 0 5578.74657058 0 1579
0.03850000 0.03847530 48748.78881854 0 1999.54006667 0 25247.89011421 0 5747.53309011 0 11514.22130216 0 1662
0.03950000 0.03950240 48358.93226168 0 782.04273087 0 22254.04420650 0 5045.78021543 0 11012.80000042 0 1683
0.04050000 0.04050350 45458.97966843 0 832.03206296 0 24276.18288813 0 1615.08680432 0 12288.84114647 0 1822
0.04150000 0.04152450 48383.84499252 0 -281.30126988 0 24795.47492212 0 -510.12525628 0 6389.04144545 0 1887
0.04250000 0.04250150 44726.21321193 0 2100.09892068 0 22016.76428564 0 -177.90900795 0 5259.08855306 0 1920
0.04350000 0.04349210 43693.38675285 0 4038.38688646 0 21318.87565232 0 -5691.13066748 0 -532.96746238 0 2005
0.04450000 0.04448520 43669.91342423 0 387.13940835 0 22382.26172790 0 -5492.08348422 0 -3820.18458125 0 2151
0.04550000 0.04548030 42943.34746963 0 -879.05622647 0 26380.03532692 0 -45.73390549 0 -7339.64482043 0 2274
0.04650000 0.04648670 42272.03241588 0 2652.04324056 0 24941.07599349 0 -2152.55959567 0 -8053.74333729 0 2311
0.04750000 0.04749250 41619.20814457 0 1278.79815493 0 24545.24038122 0 1517.53962267 0 -10734.48604378 0 2568
0.04850000 0.04851840 40075.39389510 0 1149.36267780 0 23707.17611570 0 2821.35015936 0 -6370.61709696 0 2493
0.04950000 0.04949480 39730.04808401 0 657.16794433 0 23398.70114625 0 5854.30351834 0 -8025.44247505 0 2644
0.05050000 0.05050630 38472.45343111 0 -167.75568609 0 20581.12664965 0 4392.22517068 0 -8578.52724439 0 2829
0.05150000 0.05149060 36863.31246522 0 1660.49440840 0 18382.38438716 0 2819.05818813 0 -7985.90320312 0 2784
0.05250000 0.05249300 36617.39613099 0 1917.40556117 0 17866.19260412 0 1772.85636066 0 -8547.07076958 0 3055
0.05350000 0.05348950 34466.04341873 0 1952.50483084 0 15771.30874843 0 1564.43091828 0 -2573.35222808 0 3009
0.05450000 0.05448610 31949.08254096 0 839.53134856 0 14263.92244762 0 2925.90612263 0 -2613.78835831 0 3336
0.05550000 0.05550870 32818.48148572 0 -1268.45660355 0 14417.82776260 0 3254.15626420 0 -3561.76759231 0 3349
0.05650000 0.05647670 32351.78299461 0 216.37094268 0 13117.71538239 0 2867.92035755 0 -2180.11861214 0 3324
0.05750000 0.05747970 33282.30117237 0 1213.20570270 0 12674.15805016 0 1069.47585423 0 -281.90914051 0 3639
0.05850000 0.05849280 32231.86971682 0 -536.96900057 0 12067.83754309 0 1249.91045948 0 3185.20889755 0 3846
0.05950000 0.05951020 33436.09576410 0 -1165.55041668 0 11545.77742789 0 429.94833780 0 -851.14732453 0 3787
0.06050000 0.06049470 33813.44059392 0 402.76024421 0 12098.84005258 0 743.90964420 0 3106.65075297 0 3930
0.06150000 0.06148310 33775.35179654 0 386.47839056 0 11885.03346033 0 519.03404883 0 -1405.87522687 0 4083
0.06250000 0.06249100 32672.54824461 0 1302.50400237 0 9801.80876268 0 687.28798954 0 2709.78541449 0 4303
0.06350000 0.06350600 31575.72374807 0 1028.26576849 0 10031.34912850 0 385.58596118 0 -548.54179447 0 4470
0.06450000 0.06451750 31379.07925929 0 -289.85242634 0 9223.85555180 0 2526.25055830 0 1020.72108636 0 4479
0.06550000 0.06550280 31161.72952310 0 -111.14288930 0 9428.82642884 0 2091.15248222 0 98.44426141 0 4636
0.06650000 0.06648880 31425.25085379 0 172.98514511 0 8215.19997779 0 1599.29766913 0 -206.42578052 0 4653
0.06750000 0.06749660 31296.92260914 0 378.17414695 0 8740.19425907 0 -275.58352134 0 1227.17897663 0 5220
0.06850000 0.06852730 31153.53600274 0 717.74241895 0 9595.92995500 0 -29.35893360 0 689.91102329 0 5029
0.06950000 0.06949320 29231.93403046 0 1376.14603474 0 9545.67267265 0 -1580.38613834 0 2769.14414784 0 5040
0.07050000 0.07048030 28557.51872576 0 1844.85968896 0 9925.58628183 0 432.59130173 0 2391.52250990 0 5475
0.07150000 0.07148790 27847.11836539 0 402.05715158 0 11729.79946638 0 1536.86082948 0 1751.65285863 0 5509
0.07250000 0.07249820 27911.89146558 0 -50.55612440 0 10470.13428873 0 1635.61489454 0 2167.26364303 0 5916
0.07350000 0.07351270 27513.06632561 0 219.79671997 0 9501.64910917 0 719.33572649 0 1606.73827141 0 5721
0.07450000 0.07449140 26787.16471050 0 333.71654834 0 8843.13366291 0 677.29078746 0 1463.10807386 0 6028
0.07550000 0.07549160 27464.01592667 0 340.17171371 0 8970.48754297 0 -359.29583313 0 217.20468873 0 6183
0.07650000 0.07648840 26512.68177825 0 531.51698783 0 8612.30890741 0 -556.43082590 0 510.99554101 0 6330
0.07750000 0.07749960 26166.33945792 0 705.63261730 0 9809.37116053 0 -1160.61215982 0 -1085.09004669 0 6583
0.07850000 0.07848650 25567.88030147 0 482.77661398 0 9776.02131818 0 822.73463181 0 2048.00363241 0 6549
0.07950000 0.07947320 25113.36136767 0 932.21777962 0 9721.19116568 0 494.73583201 0 926.78791153 0 6828
0.08050000 0.08048110 24600.04838908 0 457.84838188 0 9591.50102508 0 1581.43800920 0 2917.22541997 0 7147
0.08150000 0.08149960 24062.48701913 0 692.01919393 0 8464.92519175 0 2211.05468769 0 2384.27013715 0 7386
0.08250000 0.08250610 23389.06822366 0 598.84336612 0 8772.61402614 0 1303.09083558 0 4326.96488820 0 7227
0.08350000 0.08350160 23139.71946874 0 256.24459881 0 8083.42824013 0 475.24078970 0 3850.09093059 0 7798
0.08450000 0.08449610 23025.45307662 0 44.46911383 0 8948.19895311 0 479.36965963 0 4350.19462567 0 7371
0.08550000 0.08548940 22414.26074663 0 392.68332139 0 8005.24655458 0 -213.50653225 0 3837.22488915 0 8256
0.08650000 0.08650700 22323.91057611 0 833.16919072 0 7991.67188435 0 188.22730745 0 4111.92926790 0 8037
0.08750000 0.08749060 21770.40505842 0 314.44627422 0 7261.36348397 0 246.55742183 0 3790.03464077 0 8155
0.08850000 0.08849210 21386.30611046 0 268.64781707 0 7208.79208573 0 1159.12846829 0 2155.50483407 0 8718
0.08950000 0.08949900 20968.43657181 0 479.67857749 0 6973.74877448 0 -73.26070150 0 1665.08942320 0 8571
0.09050000 0.09049190 20693.28930006 0 383.45343142 0 7209.85502891 0 -131.03542807 0 1045.03812613 0 8932
0.09150000 0.09150830 20152.95984891 0 636.57231294 0 7045.54172860 0 -554.16210655 0 1766.95481153 0 9285
0.09250000 0.09250820 19771.07536592 0 227.47427000 0 7009.80026409 0 -107.13326831 0 1923.00815753 0 9204
0.09350000 0.09350330 19343.57290467 0 186.76576058 0 7180.43586187 0 491.94671339 0 -526.81567871 0 9349
0.09450000 0.09448040 19340.36193047 0 272.33157954 0 6926.24850100 0 958.36286021 0 -129.35243469 0 9564
0.09550000 0.09549270 18552.67674288 0 622.31115857 0 6490.97326773 0 745.94252303 0 -666.74550530 0 10155
0.09650000 0.09649430 18489.45376816 0 526.54108505 0 6241.50271725 0 -299.93267085 0 885.30323213 0 9913
0.09750000 0.09749140 17843.71578474 0 379.55265139 0 6670.47779769 0 72.39318485 0 -710.11026545 0 10476
0.09850000 0.09850240 17505.01336854 0 800.65087996 0 7534.89419629 0 -1084.25962233 0 -51.40935775 0 10575
0.09950000 0.09950330 17155.46007401 0 660.60147226 0 7372.50748050 0 -157.57800512 0 763.95498105 0 10882
0.10050000 0.10051200 17014.17720932 0 42.74692443 0 7966.43805609 0 650.15362656 0 2309.91947599 0 10875
0.10150000 0.10150300 17292.64617851 0 -580.24961105 0 7661.47301361 0 964.51353665 0 2476.12614384 0 11118
0.10250000 0.10250800 17583.29470500 0 -667.69329631 0 7471.72658320 0 1231.79613607 0 1737.93424818 0 11575
0.10350000 0.10349800 18470.85226247 0 -93.39505985 0 8100.77857312 0 520.69600478 0 1829.81239953 0 11364
0.10450000 0.10450100 17873.50033850 0 460.66961024 0 6994.02220122 0 -666.48530567 0 2183.08599519 0 12093
0.10550000 0.10551000 17472.12856382 0 567.62937522 0 7169.90608096 0 -88.99923617 0 1586.97417161 0 12067
0.10650000 0.10649700 17096.55530598 0 588.85612913 0 7242.30801295 0 352.90488725 0 1378.49336760 0 12054
0.10750000 0.10749900 16607.60144198 0 645.81881139 0 6911.28979017 0 6.40847338 0 928.97580291 0 12807
0.10850000 0.10850100 15816.26238720 0 408.52117481 0 6284.28618034 0 947.43447562 0 174.65485169 0 12736
0.10950000 0.10950300 15471.02729935 0 98.60746748 0 6121.52300551 0 741.74721916 0 784.67019355 0 12933
0.11050000 0.11050200 15578.98246633 0 -164.36423300 0 5359.23773105 0 1324.36077156 0 110.51132389 0 13428
0.11150000 0.11150900 15579.42535932 0 77.15461669 0 5300.32189069 0 438.94460172 0 413.83921242 0 13453
0.11250000 0.11250000 15371.04420624 0 297.03947237 0 5144.13567679 0 -72.32531150 0 1065.42449058 0 13668
0.11350000 0.11349100 14996.35673437 0 592.87095411 0 5384.64871650 0 -459.67088654 0 1395.25686737 0 13791
0.11450000 0.11448600 15046.84653555 0 54.98715807 0 5827.41991368 0 477.64791312 0 1504.39677311 0 14205
0.11550000 0.11549300 14736.37854763 0 66.91227334 0 5862.54132800 0 411.69671757 0 1232.51583719 0 14776
0.11650000 0.11649800 14716.55908621 0 692.23399703 0 5698.15052142 0 -198.16250451 0 1082.24113752 0 14553
0.11750000 0.11747300 14501.53453823 0 204.00979925 0 5728.66584862 0 -272.52645246 0 880.09259607 0 14568
0.11850000 0.11849100 14107.47049793 0 171.00873513 0 5286.38183374 0 -450.92374994 0 559.24098194 0 16015
0.11950000 0.11950300 14160.61765706 0 177.88132714 0 5441.23936865 0 62.71586224 0 -114.41033235 0 15270
0.12050000 0.12050700 14228.49100820 0 -221.74766361 0 5346.77029330 0 180.90075012 0 -666.17970950 0 15999
0.12150000 0.12150000 14383.72500216 0 -258.72258511 0 4701.27590102 0 559.56207936 0 -684.45015269 0 15670
0.12250000 0.12250700 14299.68605679 0 310.87877117 0 4987.53978688 0 445.89691447 0 -741.57338366 0 16887
0.12350000 0.12352200 14078.57173016 0 287.13195613 0 4490.80207855 0 709.04289334 0 -237.68073902 0 16407
0.12450000 0.12449800 13633.24282595 0 231.10820701 0 4394.67215447 0 624.24992265 0 -75.32270055 0 16306
0.12550000 0.12549900 13714.73513662 0 116.48307156 0 4374.97448862 0 549.35561034 0 486.02191238 0 17523
0.12650000 0.12650100 13347.24467589 0 276.57781611 0 4033.03895357 0 837.45418043 0 750.53753783 0 17154
0.12750000 0.12750600 13176.50942718 0 230.02533364 0 3696.28526653 0 74.30980428 0 846.85569143 0 18007
0.12850000 0.12850300 12922.62101909 0 141.81101458 0 3689.14361703 0 -115.11453221 0 664.18447657 0 17496
0.12950000 0.12949900 13056.26397965 0 212.39708530 0 3900.49215316 0 -509.88166513 0 740.33992667 0 18405
0.13050000 0.13049000 12707.59647111 0 201.52516956 0 3918.66183819 0 -115.42234284 0 914.44448382 0 18100
0.13150000 0.13148800 12714.01841951 0 -77.47914653 0 4239.84783653 0 -30.50359054 0 -24.15361225 0 19059
0.13250000 0.13249300 12781.55960090 0 44.47077468 0 4186.94426855 0 -32.54488434 0 -213.39802346 0 18957
0.13350000 0.13349100 12757.97554904 0 213.90181424 0 4097.55739029 0 -208.18849464 0 -652.28837079 0 19468
0.13450000 0.13450700 12285.18727928 0 267.96244017 0 4136.06693601 0 -7.74615415 0 -348.12275016 0 19953
0.13550000 0.13551000 12178.45006803 0 434.11263916 0 4250.83158275 0 203.89796877 0 -435.22208611 0 19956
0.13650000 0.13649900 11962.31828757 0 231.46362864 0 4037.27965397 0 314.74854869 0 -92.19902732 0 19723
0.13750000 0.13749600 11692.92862473 0 152.68625202 0 3635.44284166 0 495.32820139 0 118.59013497 0 20946
0.13850000 0.13851100 11551.31359030 0 33.82163411 0 3727.29884835 0 670.56435013 0 620.27052911 0 20955
0.13950000 0.13949800 11512.00683719 0 31.33445779 0 3719.01674939 0 488.74238259 0 685.94048761 0 20506
0.14050000 0.14048300 11551.97792979 0 67.06883602 0 3849.71447155 0 346.20059457 0 1021.53600947 0 21447
0.14150000 0.14148400 11489.97291081 0 -5.71154803 0 3579.01827438 0 251.65179848 0 1474.18039868 0 21771
0.14250000 0.14249400 11462.73499175 0 57.10274717 0 3652.83746395 0 282.09958450 0 1264.94667658 0 22470
0.14350000 0.14350900 11388.88258521 0 296.70508817 0 3494.83538878 0 -73.01434227 0 967.63482502 0 22519
0.14450000 0.14449900 11247.37827403 0 370.34601330 0 3538.99182016 0 -435.05489401 0 744.00597342 0 22218
0.14550000 0.14550500 10749.79906900 0 414.52016040 0 3640.54718340 0 -372.12865760 0 894.29949604 0 23559
0.14650000 0.14650700 10781.02302499 0 192.80460653 0 3802.71245269 0 -144.56691623 0 609.82268341 0 23044
0.14750000 0.14750500 10423.51980125 0 47.72493094 0 3518.29764507 0 69.17213484 0 30.03700277 0 23649
0.14850000 0.14849900 10488.99045790 0 47.71186560 0 3626.35246298 0 397.13771767 0 1.74401295 0 23640
0.14950000 0.14949500 10433.80599100 0 -86.51250274 0 3416.45440139 0 305.98258913 0 57.31046398 0 24457
0.15050000 0.15050000 10476.06905484 0 46.70516983 0 3140.99710455 0 482.80650925 0 108.58628950 0 24591
0.15150000 0.15149900 10294.13968574 0 290.31967844 0 3091.23807682 0 420.51471705 0 368.00753830 0 25020
0.15250000 0.15250500 10021.98194170 0 330.95953946 0 2766.65287476 0 266.12443425 0 662.91780261 0 25297
0.15350000 0.15350100 9799.31748960 0 225.93632409 0 2841.59036913 0 181.25395728 0 832.03427743 0 25452
0.15450000 0.15450400 9760.29861694 0 105.20923043 0 2546.03680275 0 -108.42773381 0 688.54359117 0 26061
0.15550000 0.15549900 9520.02916837 0 223.52477174 0 2733.20338148 0 -91.55616814 0 273.22843785 0 26128
0.15650000 0.15649500 9340.63536166 0 194.37466219 0 2600.31333901 0 -238.09484397 0 65.32018376 0 26331
0.15750000 0.15749700 9302.57978126 0 202.98450197 0 2489.86689894 0 -109.93567372 0 42.40932924 0 27345
0.15850000 0.15849900 9183.24226436 0 1.66299675 0 2368.55850823 0 143.43421740 0 -236.08743148 0 26980
0.15950000 0.15949700 9251.24848340 0 -224.66743566 0 2073.28174997 0 450.00253251 0 -364.63269370 0 27777
0.16050000 0.16050000 9342.17441481 0 -71.98074075 0 2041.02806777 0 414.61981132 0 -553.71699909 0 28224
0.16150000 0.16150500 9364.05332865 0 118.73407519 0 1885.82729079 0 54.55865910 0 -710.95286937 0 28075
0.16250000 0.16249700 9197.97952870 0 245.12687746 0 1822.49359282 0 66.73666627 0 -396.01387670 0 28590
0.16350000 0.16349900 8995.75458821 0 226.60841420 0 1820.95453967 0 -112.65093994 0 -134.30176389 0 29163
0.16450000 0.16449100 8899.83503830 0 11.61985128 0 1785.79990838 0 311.32498586 0 127.03721157 0 28996
0.16550000 0.16550500 8923.27514995 0 -10.53403268 0 1783.86225153 0 424.38892351 0 66.81195808 0 30777
0.16650000 0.16650700 8952.63895536 0 47.83731504 0 1710.36415939 0 158.30656409 0 252.94283155 0 29211
0.16750000 0.16749900 8800.12875331 0 186.99163600 0 2084.84125708 0 48.14601146 0 354.28892785 0 30922
0.16850000 0.16850800 8667.72589313 0 321.27236247 0 1875.08713571 0 -220.71793740 0 720.39313351 0 30867
0.16950000 0.16949900 8427.05784087 0 202.77634226 0 2434.67135972 0 -218.67620070 0 716.04170986 0 30852
0.17050000 0.17049200 8407.41553664 0 103.72874988 0 2516.34082758 0 -188.37014044 0 894.85532675 0 31257
0.17150000 0.17149500 8354.94378933 0 10.77204337 0 2717.00457027 0 -14.91674672 0 942.36888701 0 32608
0.17250000 0.17250900 8408.74421562 0 88.62930980 0 2646.15276376 0 149.41548727 0 696.91316150 0 32361
0.17350000 0.17350400 8297.79952094 0 130.24707854 0 2594.11283711 0 16.17555933 0 788.16240480 0 32508
0.17450000 0.17449800 8086.27382760 0 213.38584390 0 2511.86760836 0 219.33721849 0 750.59289946 0 32791
0.17550000 0.17549800 8002.51169035 0 134.50217297 0 2367.31840785 0 228.62247009 0 802.71254684 0 33633
0.17650000 0.17650100 7781.09841095 0 154.39692620 0 2101.62690150 0 346.01679398 0 625.33390325 0 33984
0.17750000 0.17750300 7729.67853450 0 156.46191478 0 1972.55681109 0 171.66421676 0 519.63638330 0 34069
0.17850000 0.17849800 7483.67362167 0 144.02658678 0 1770.60867872 0 -89.57211826 0 582.85050015 0 34536
