### header ###
fiducial parameters:
Omega_m = 0.31
Omega_nu = 0
Omega_de = 0.69
Omega_k = 0
H_0 = 100
w_de = -1
zeff = 0
beta = 0
fgrowth = 0
b_1 = 2
gamma = 0.55
Lx = 3500 Ly = 3500 Lz = 3500
nx = 700 ny = 700 nz = 700
xoffset = -685.467585 yoffset = -31.7331281 zoffset = 572.489161
bins = 400 dk = 0.001
kx_ny = 0.628318531 ky_ny = 0.628318531 kz_ny = 0.628318531
############################
A(data) = 8.03512551 (not used)
A(ran) = 8.03551418 (used)
Ngal = 477669
weighted Ngal = 0
Nran = 23820508
weighted Nran = 0
SN(data) = 3484.50178
SN(ran) = 69.9922427
SN(data+ran) = 3554.49402
############################
13 columns: k_central k_mean P_0(k) sigma^{lin}_{P_0(k)} P^img_1(k) sigma^{lin}_{P_1(k)} P_2(k) sigma^{lin}_{P_2(k)} P^img_3(k) sigma^{lin}_{P_3(k)} P_4(k) sigma^{lin}_{P_4(k)} N_modes
### header ###
0.00050000 0 0 0 0 0 0 0 0 0 0 0 0
0.00150000 0.00179520 10575.43209776 0 -9982.19907863 0 11060.16740600 0 -32246.26373909 0 -36450.75764247 0 3
0.00250000 0.00253879 21076.61318529 0 -9895.13738858 0 -5830.34300743 0 9874.88610648 0 41001.59386618 0 6
0.00350000 0.00331552 39040.57441755 0 -17514.42484463 0 5879.58163590 0 6884.94872943 0 -57873.93459458 0 7
0.00450000 0.00420575 52998.45780719 0 -19381.21880905 0 -7377.09142297 0 4503.05914212 0 -1242.29270000 0 24
0.00550000 0.00557378 72526.16347359 0 -7380.47955437 0 -11799.00149649 0 7171.55585736 0 -13965.41257051 0 45
0.00650000 0.00659388 71964.13226580 0 -8722.63355191 0 -24609.68131167 0 2792.09707719 0 37063.16792819 0 40
0.00750000 0.00754703 74037.20364159 0 -1305.03956475 0 -14320.83419719 0 -1285.49691144 0 -23549.28476379 0 57
0.00850000 0.00846663 72151.14383199 0 -2454.98907576 0 -16691.52966411 0 -14441.63326096 0 -21904.15874223 0 75
0.00950000 0.00948925 63160.41607925 0 4907.79690354 0 -22251.94046479 0 -4314.92927113 0 -11953.12825797 0 112
0.01050000 0.01054430 62556.53148364 0 -2637.17310833 0 -20134.57978972 0 -27640.28733778 0 -21170.39577650 0 105
0.01150000 0.01145670 67231.82063831 0 -5870.67948674 0 -9190.04067180 0 -31281.86424738 0 -25300.70510360 0 144
0.01250000 0.01249090 77075.44957183 0 -2065.04394030 0 -2901.77952685 0 -39745.10644576 0 -32682.51333694 0 169
0.01350000 0.01339930 74656.03587571 0 4350.46036147 0 -5787.34917016 0 -27036.29201892 0 -10521.17770615 0 180
0.01450000 0.01448870 78475.10215216 0 1978.04868420 0 23220.43671667 0 -16334.00429572 0 -19245.02921379 0 267
0.01550000 0.01550050 82629.99204035 0 2722.57394966 0 17162.87853164 0 2895.44615705 0 -11604.68219593 0 238
0.01650000 0.01653350 77603.48874243 0 2466.39357033 0 28843.18470608 0 19795.32375727 0 -14955.49985579 0 315
0.01750000 0.01747870 73867.46490212 0 3315.41943742 0 24854.93330640 0 17054.81264141 0 -6356.01270052 0 297
0.01850000 0.01844180 67336.34338460 0 5391.57999184 0 26954.24609202 0 14445.73002114 0 352.33134082 0 388
0.01950000 0.01947590 67088.10186216 0 9594.20267233 0 29318.51961054 0 4825.76204896 0 17260.64715979 0 399
0.02050000 0.02045430 55497.92441175 0 4358.91961763 0 26947.71342037 0 5020.88962924 0 25271.14199633 0 462
0.02150000 0.02154770 57723.24025380 0 -2624.71674291 0 29723.21308266 0 4839.84604613 0 23381.98193578 0 571
0.02250000 0.02255340 61409.88152542 0 -2939.70223935 0 31336.45080874 0 18525.88171681 0 17180.59425135 0 510
0.02350000 0.02348930 64787.49421135 0 -4793.04332912 0 26999.86407027 0 11098.78767496 0 15553.18394950 0 555
0.02450000 0.02439640 64684.30014404 0 -3140.22204182 0 23123.11098152 0 7993.87527699 0 28209.51555671 0 592
0.02550000 0.02547300 68889.56911016 0 -4987.62836548 0 14383.50355566 0 5511.95830727 0 6135.21947131 0 837
0.02650000 0.02652900 71264.58278376 0 1047.70877087 0 15471.47019234 0 -2139.38352913 0 18190.16882831 0 723
0.02750000 0.02749970 74741.95711630 0 2978.55502714 0 8543.38368542 0 -3399.00441748 0 9403.20506921 0 826
0.02850000 0.02848090 69844.77857226 0 1174.45256584 0 13600.80091423 0 -6958.39145995 0 12784.77057510 0 831
0.02950000 0.02946900 68391.86810956 0 3647.61132663 0 14714.67679099 0 -4589.04681666 0 2272.86040482 0 996
0.03050000 0.03053250 68686.50267298 0 3431.02558085 0 20222.16187903 0 -8752.34059940 0 -6089.34682959 0 1041
0.03150000 0.03150510 63401.12842080 0 6413.74380212 0 22816.40758404 0 -8937.99026963 0 -5333.59422677 0 1036
0.03250000 0.03246190 59415.53437908 0 5104.08707793 0 26196.23473493 0 -1911.92476038 0 -10644.77806810 0 1059
0.03350000 0.03345080 55512.31843401 0 711.09680960 0 27084.34590864 0 -1535.37713795 0 -9759.88894092 0 1302
0.03450000 0.03451200 55043.51620119 0 1147.20357446 0 24964.88149185 0 6643.90421813 0 -15164.87751811 0 1339
0.03550000 0.03553350 55059.57107218 0 -224.51685205 0 24929.33932918 0 5786.44123952 0 -12960.15620023 0 1365
0.03650000 0.03647120 51269.29284026 0 4537.00689001 0 23289.19585380 0 2961.51471924 0 -10627.53845836 0 1308
0.03750000 0.03744890 50707.48307896 0 2659.90459118 0 19625.03140156 0 5718.46823746 0 -9551.46349853 0 1579
0.03850000 0.03847530 47517.76774521 0 -526.91865133 0 15797.21798851 0 1233.72272059 0 -7801.65971814 0 1662
0.03950000 0.03950240 49572.01616881 0 -1258.12612449 0 15766.76909526 0 4615.81969807 0 -12398.90005517 0 1683
0.04050000 0.04050350 50358.48340068 0 -948.58156847 0 15277.04016853 0 1983.34125546 0 -10341.25242785 0 1822
0.04150000 0.04152450 50134.26882310 0 2348.07470732 0 16463.43977285 0 -800.64866550 0 -14578.15502597 0 1887
0.04250000 0.04250150 46775.47908936 0 3295.82142249 0 12729.18750451 0 -2376.13197841 0 -6020.85342826 0 1920
0.04350000 0.04349210 45486.66048047 0 2201.46605439 0 13247.37230602 0 2924.20098460 0 -4326.79880333 0 2005
0.04450000 0.04448520 42081.92059874 0 2728.15440137 0 11897.10229439 0 3960.89168505 0 -1053.56270900 0 2151
0.04550000 0.04548030 42268.59999518 0 1032.60279812 0 11288.78876885 0 4987.17440017 0 -5355.94925057 0 2274
0.04650000 0.04648670 37405.30276509 0 2237.20751891 0 9786.81683488 0 4241.79656570 0 -1465.30039417 0 2311
0.04750000 0.04749250 37929.35589875 0 1411.00171326 0 9045.69077314 0 959.86648192 0 -1033.40664890 0 2568
0.04850000 0.04851840 36922.21723325 0 233.33928046 0 9084.45498233 0 -947.74339348 0 287.24821554 0 2493
0.04950000 0.04949480 37483.91627130 0 -186.48784522 0 9864.19024071 0 -1072.51520740 0 -1576.63262023 0 2644
0.05050000 0.05050630 36873.83117379 0 -464.85162733 0 9080.92291071 0 -1372.52538452 0 -2644.69121688 0 2829
0.05150000 0.05149060 37130.26621659 0 598.84447335 0 10055.35392870 0 -2871.70709264 0 -5913.14185242 0 2784
0.05250000 0.05249300 36519.40605635 0 1006.61937347 0 10680.17629054 0 -2164.70593599 0 -8283.44978798 0 3055
0.05350000 0.05348950 35944.86312151 0 1112.60255940 0 11109.97072303 0 -1680.97820932 0 -7627.42561480 0 3009
0.05450000 0.05448610 34217.02683356 0 2317.06112550 0 11128.35078223 0 778.43647468 0 -7193.09152913 0 3336
0.05550000 0.05550870 33866.91992279 0 442.19432905 0 11709.64783521 0 364.97704300 0 -4347.57048469 0 3349
0.05650000 0.05647670 33410.51869377 0 903.25368513 0 12698.84933451 0 1089.73377972 0 -4465.51288866 0 3324
0.05750000 0.05747970 32044.74742739 0 748.60984608 0 10899.68513007 0 1953.36847218 0 -6054.20327061 0 3639
0.05850000 0.05849280 32254.01436646 0 -106.53635928 0 11910.05691443 0 -833.20019323 0 -880.23432183 0 3846
0.05950000 0.05951020 32460.40250108 0 -345.92267922 0 12439.42476400 0 615.57364892 0 -3451.43187549 0 3787
0.06050000 0.06049470 33273.44331251 0 -566.52435721 0 14228.26956171 0 -333.67779520 0 -2532.70572367 0 3930
0.06150000 0.06148310 32551.97062733 0 920.55862158 0 14805.35913125 0 -1622.63812985 0 -1832.44761284 0 4083
0.06250000 0.06249100 32716.28392764 0 1072.25611500 0 14691.53563212 0 1478.23286956 0 -1027.59367837 0 4303
0.06350000 0.06350600 31398.12365798 0 72.76632220 0 13206.07253445 0 3309.18571855 0 -1226.71393898 0 4470
0.06450000 0.06451750 31217.31259369 0 1028.08750406 0 12573.84278730 0 4179.80261904 0 -1387.26264885 0 4479
0.06550000 0.06550280 30209.73103519 0 846.95091342 0 10114.38049231 0 2218.76102576 0 -1254.56083590 0 4636
0.06650000 0.06648880 29290.39590550 0 1242.94596717 0 9877.28880097 0 1694.16534818 0 212.43251674 0 4653
0.06750000 0.06749660 27791.64601805 0 1017.37724426 0 7294.81297724 0 1263.96123967 0 980.87289657 0 5220
0.06850000 0.06852730 28117.06164447 0 -542.46419537 0 9064.92340135 0 -534.84422143 0 724.92946499 0 5029
0.06950000 0.06949320 28436.60893874 0 -820.47919925 0 7221.65812717 0 -780.17040074 0 -1813.70216692 0 5040
0.07050000 0.07048030 28307.94852434 0 354.98094815 0 9348.48563996 0 -1575.29286892 0 -912.87996432 0 5475
0.07150000 0.07148790 28846.17423378 0 1213.78146359 0 9600.79070560 0 -2368.19312151 0 -2226.54487011 0 5509
0.07250000 0.07249820 27826.30239473 0 589.44960574 0 10031.53735802 0 -700.66557238 0 -1622.73778077 0 5916
0.07350000 0.07351270 27664.75717563 0 466.64534395 0 10408.70503064 0 697.17557560 0 -1944.89814369 0 5721
0.07450000 0.07449140 26696.03947725 0 198.22672400 0 9791.40077735 0 1486.37102830 0 -2587.67981639 0 6028
0.07550000 0.07549160 27287.08017606 0 781.63084039 0 9581.69094529 0 2738.20807230 0 -1908.60306294 0 6183
0.07650000 0.07648840 26054.95187025 0 245.50001481 0 8185.34899008 0 2842.77510789 0 490.75311677 0 6330
0.07750000 0.07749960 25536.98851523 0 652.31383713 0 6813.31078785 0 1921.40267043 0 -1291.89671519 0 6583
0.07850000 0.07848650 25285.31457210 0 215.42536614 0 6770.02907014 0 760.52256035 0 400.86244773 0 6549
0.07950000 0.07947320 24472.93810016 0 748.42161656 0 5887.32119095 0 6.65434542 0 337.44127841 0 6828
0.08050000 0.08048110 24290.68763364 0 717.74131172 0 7174.55645739 0 -764.88727080 0 332.75989947 0 7147
0.08150000 0.08149960 23334.70310880 0 447.17798245 0 7230.08416635 0 -1524.53733195 0 -305.91283348 0 7386
0.08250000 0.08250610 23274.24821529 0 926.04495853 0 9247.50603761 0 -440.86897177 0 1024.93189149 0 7227
0.08350000 0.08350160 22317.26718122 0 842.36586372 0 8263.35351843 0 109.10181694 0 433.92108795 0 7798
0.08450000 0.08449610 21843.70384872 0 45.72205811 0 9186.15428579 0 1557.74323409 0 1268.35695263 0 7371
0.08550000 0.08548940 21648.27731567 0 398.59262115 0 7974.76444436 0 1357.43380579 0 652.79326880 0 8256
0.08650000 0.08650700 21168.18131154 0 335.92436991 0 7825.79738625 0 1522.26750537 0 1409.35193687 0 8037
0.08750000 0.08749060 20938.65201805 0 304.04493229 0 7676.78603884 0 642.99426133 0 2389.60699771 0 8155
0.08850000 0.08849210 20414.82033088 0 330.72259171 0 7125.68321564 0 1155.09814206 0 2288.21771935 0 8718
0.08950000 0.08949900 19841.60607501 0 435.50775209 0 5980.97091426 0 1547.73385245 0 2992.35114386 0 8571
0.09050000 0.09049190 19925.86646688 0 170.30121357 0 5993.34977341 0 1055.25456024 0 3495.96476591 0 8932
0.09150000 0.09150830 19632.44985919 0 127.68383534 0 5570.92950925 0 -97.85698530 0 3387.16810225 0 9285
0.09250000 0.09250820 19942.58567736 0 -176.04332122 0 5819.83537118 0 -6.47976808 0 2853.36025041 0 9204
0.09350000 0.09350330 19638.76108434 0 170.23920855 0 5948.30755605 0 -665.73349481 0 2227.65210259 0 9349
0.09450000 0.09448040 19745.27684909 0 453.18471866 0 6406.08175335 0 -1261.65819611 0 1924.23718558 0 9564
0.09550000 0.09549270 19296.95841718 0 764.94816858 0 7095.43362423 0 -821.65618737 0 845.14058831 0 10155
0.09650000 0.09649430 19134.52741210 0 592.49338784 0 7011.68255931 0 -1048.81046719 0 1359.28288404 0 9913
0.09750000 0.09749140 18478.71361309 0 75.90709786 0 6890.98314646 0 517.01777848 0 241.34014237 0 10476
0.09850000 0.09850240 18538.94706010 0 280.83401777 0 6711.61148440 0 371.40342032 0 -811.77635194 0 10575
0.09950000 0.09950330 18463.32308159 0 241.23495529 0 6741.46247211 0 341.93332058 0 -807.20569625 0 10882
0.10050000 0.10051200 17661.35459497 0 563.59351283 0 6822.21293701 0 469.01482146 0 -626.79323566 0 10875
0.10150000 0.10150300 17216.24713726 0 554.36805179 0 6635.81034869 0 462.59951646 0 -801.27314462 0 11118
0.10250000 0.10250800 17005.87296571 0 615.92574885 0 6462.39559738 0 543.74747782 0 -852.24016299 0 11575
0.10350000 0.10349800 16774.35065375 0 197.37969115 0 6594.61022804 0 -95.26572912 0 -414.50023021 0 11364
0.10450000 0.10450100 16150.53587347 0 392.23046331 0 6671.28607741 0 -116.23837318 0 16.61634858 0 12093
0.10550000 0.10551000 16219.40573384 0 324.89633439 0 6648.38850968 0 181.94265588 0 -87.16499484 0 12067
0.10650000 0.10649700 15679.51917569 0 -153.76801815 0 6196.47157221 0 611.71826542 0 -568.76318128 0 12054
0.10750000 0.10749900 15837.07835785 0 304.50886270 0 6204.11147633 0 690.19226034 0 -373.40972558 0 12807
0.10850000 0.10850100 15358.75392569 0 141.75897465 0 5294.71929433 0 856.08558140 0 -242.76293611 0 12736
0.10950000 0.10950300 15308.59629426 0 20.77378510 0 4648.97023858 0 1427.32232005 0 274.95239883 0 12933
0.11050000 0.11050200 15403.15394821 0 -145.39512612 0 3940.18643764 0 1069.85563497 0 -257.13592096 0 13428
0.11150000 0.11150900 15233.08303900 0 -32.44047232 0 3289.93094569 0 453.90441978 0 -489.60048776 0 13453
0.11250000 0.11250000 15355.10005850 0 -10.70494508 0 3494.06032605 0 -254.46416898 0 -297.97951275 0 13668
0.11350000 0.11349100 15141.18274300 0 288.86477496 0 3497.92456741 0 -365.28706809 0 -512.34082847 0 13791
0.11450000 0.11448600 14976.86944269 0 311.82656217 0 3666.91038879 0 -319.72998763 0 -516.84947914 0 14205
0.11550000 0.11549300 14677.91667259 0 480.13032834 0 3673.02231209 0 -401.03517600 0 -774.28878180 0 14776
0.11650000 0.11649800 14338.21774715 0 367.99646598 0 4185.32770912 0 -239.38144811 0 -626.70022813 0 14553
0.11750000 0.11747300 13991.32181059 0 292.83198894 0 3953.98255436 0 52.50740020 0 -672.36581738 0 14568
0.11850000 0.11849100 14007.26595832 0 203.51375910 0 4223.62688067 0 284.81451854 0 -243.94988933 0 16015
0.11950000 0.11950300 13819.92222239 0 151.57348337 0 4277.07299257 0 311.04928497 0 -214.39342546 0 15270
0.12050000 0.12050700 13786.70524794 0 -63.03939557 0 3950.84908644 0 535.77983288 0 252.55308572 0 15999
0.12150000 0.12150000 13864.65441466 0 -390.47107089 0 4040.76743629 0 112.98753861 0 112.24347838 0 15670
0.12250000 0.12250700 14116.99269728 0 141.77336868 0 4453.72086273 0 165.64751545 0 260.29485523 0 16887
0.12350000 0.12352200 14231.92342890 0 586.21095073 0 4532.26793499 0 -198.09939226 0 447.72495530 0 16407
0.12450000 0.12449800 13360.64218892 0 755.73820880 0 4314.25385931 0 -80.65513219 0 1833.68771322 0 16306
0.12550000 0.12549900 13080.95526400 0 226.79553649 0 4412.09999373 0 256.49815505 0 1485.30808512 0 17523
0.12650000 0.12650100 13052.05649622 0 -248.02229040 0 4807.00553072 0 757.78437443 0 1402.29886596 0 17154
0.12750000 0.12750600 13171.19471127 0 -198.56442990 0 3872.87777507 0 547.46445726 0 798.42423544 0 18007
0.12850000 0.12850300 13100.44255568 0 83.53282941 0 3552.51112876 0 668.04871793 0 271.57423252 0 17496
0.12950000 0.12949900 12994.59113041 0 98.10677695 0 2898.41354010 0 422.41915692 0 609.68649381 0 18405
0.13050000 0.13049000 12996.47342563 0 74.24946011 0 2731.18821837 0 938.49025163 0 396.71364762 0 18100
0.13150000 0.13148800 12707.48574786 0 80.38142432 0 1882.09591732 0 464.55931795 0 473.88110822 0 19059
0.13250000 0.13249300 12515.93452850 0 422.63285279 0 2213.31344195 0 -197.88901809 0 169.36560212 0 18957
0.13350000 0.13349100 12189.96528584 0 349.43592788 0 1743.07180690 0 -321.15167413 0 306.47087866 0 19468
0.13450000 0.13450700 12033.62405940 0 130.21275433 0 2284.06559754 0 -328.94880527 0 297.45800625 0 19953
0.13550000 0.13551000 12090.42508572 0 -97.16828670 0 2532.29604765 0 -445.93566761 0 104.67443714 0 19956
0.13650000 0.13649900 12143.12935186 0 84.29892356 0 2982.44141315 0 17.03521463 0 -60.45467206 0 19723
0.13750000 0.13749600 12114.45203058 0 266.32041440 0 2997.71014908 0 -153.36166383 0 342.23005889 0 20946
0.13850000 0.13851100 11831.88630121 0 291.58856687 0 3297.73693469 0 9.06792400 0 322.75826846 0 20955
0.13950000 0.13949800 11692.59645499 0 211.77703511 0 3371.30146078 0 89.99973144 0 509.22064734 0 20506
0.14050000 0.14048300 11373.15988397 0 637.54778476 0 3605.19325025 0 -85.51256108 0 351.52859727 0 21447
0.14150000 0.14148400 11121.26449434 0 347.62671001 0 3720.57794719 0 -406.63555789 0 884.91348630 0 21771
0.14250000 0.14249400 10709.61760224 0 290.25324449 0 3973.48091837 0 -223.10070170 0 1109.22550033 0 22470
0.14350000 0.14350900 10790.25734389 0 -12.72719449 0 4060.16614937 0 50.22351176 0 977.96198237 0 22519
0.14450000 0.14449900 10863.72221906 0 -134.55974906 0 3778.72979713 0 558.55781950 0 293.20734076 0 22218
0.14550000 0.14550500 10850.91153925 0 -15.33361975 0 3842.71676226 0 135.07350493 0 651.86872968 0 23559
0.14650000 0.14650700 10712.57391296 0 236.63661879 0 3462.17203057 0 262.77394876 0 539.68061292 0 23044
0.14750000 0.14750500 10604.43051646 0 207.12001529 0 3345.59152255 0 320.99776882 0 435.30955748 0 23649
0.14850000 0.14849900 10315.52034497 0 199.57090423 0 3364.60270427 0 124.81499598 0 760.52809652 0 23640
0.14950000 0.14949500 10374.49154695 0 105.30467387 0 3375.37607631 0 244.78142093 0 390.52089635 0 24457
0.15050000 0.15050000 10053.75951393 0 134.60293112 0 3419.15604865 0 141.60506934 0 408.49570846 0 24591
0.15150000 0.15149900 10078.73867872 0 61.68392156 0 3148.85845517 0 35.07225320 0 498.02209802 0 25020
0.15250000 0.15250500 10021.21795129 0 -29.77259565 0 3039.30887342 0 233.17873175 0 355.59989111 0 25297
0.15350000 0.15350100 10001.26562196 0 32.43980798 0 3011.36232558 0 65.90823493 0 320.78407295 0 25452
0.15450000 0.15450400 10113.14039193 0 164.52588895 0 2989.67164126 0 99.02002230 0 345.52739722 0 26061
0.15550000 0.15549900 9875.04111903 0 146.39938598 0 2855.95117442 0 78.38242679 0 125.21249244 0 26128
0.15650000 0.15649500 9825.81356289 0 178.53570154 0 2744.96219044 0 -8.33918787 0 334.83263868 0 26331
0.15750000 0.15749700 9605.13105693 0 150.21601635 0 2932.80418099 0 -134.59628773 0 88.27145226 0 27345
0.15850000 0.15849900 9568.16056436 0 106.93562731 0 2874.39766757 0 140.32400136 0 144.87472686 0 26980
0.15950000 0.15949700 9399.68406992 0 129.64031514 0 3023.27614708 0 -46.27788881 0 67.76428874 0 27777
0.16050000 0.16050000 9381.45902327 0 224.79919633 0 2808.09658656 0 304.41917687 0 176.86931665 0 28224
0.16150000 0.16150500 9122.66557528 0 96.11386920 0 2609.94626160 0 107.30344994 0 505.88455587 0 28075
0.16250000 0.16249700 9154.80853423 0 121.03268983 0 2644.62478293 0 270.17801236 0 157.27683789 0 28590
0.16350000 0.16349900 8929.82996624 0 142.56393267 0 2571.39242658 0 93.46481549 0 190.16053537 0 29163
0.16450000 0.16449100 8837.16567983 0 289.21023150 0 2730.66781910 0 -296.67297842 0 -41.99112754 0 28996
0.16550000 0.16550500 8608.17893026 0 238.25760715 0 2708.77783293 0 -336.07384629 0 -17.71250874 0 30777
0.16650000 0.16650700 8475.00100734 0 72.93805396 0 2644.73550618 0 -98.35845089 0 -206.24640886 0 29211
0.16750000 0.16749900 8453.02244257 0 -71.11776376 0 2734.39919256 0 145.58999904 0 -336.64628548 0 30922
0.16850000 0.16850800 8533.78397980 0 12.27035036 0 2649.80663095 0 335.54791086 0 -518.12722542 0 30867
0.16950000 0.16949900 8431.55320475 0 199.91857523 0 2668.27526875 0 313.92919665 0 -353.53047360 0 30852
0.17050000 0.17049200 8253.15590727 0 276.85351700 0 2514.90142536 0 303.03402903 0 116.26051783 0 31257
0.17150000 0.17149500 8066.58723408 0 93.67109290 0 2568.69077933 0 188.64584133 0 275.80386061 0 32608
0.17250000 0.17250900 8047.37675052 0 -75.89170733 0 2497.72824956 0 351.83972960 0 387.00764769 0 32361
0.17350000 0.17350400 8149.64074254 0 -5.02509711 0 2547.77515774 0 204.74721608 0 538.90997911 0 32508
0.17450000 0.17449800 7958.99745381 0 167.53977576 0 2193.84829492 0 146.93307204 0 673.05340875 0 32791
0.17550000 0.17549800 8061.06214399 0 188.54176148 0 2271.17741145 0 -0.30662478 0 1073.41538740 0 33633
0.17650000 0.17650100 7797.75118748 0 183.84488129 0 2241.37071304 0 85.47447229 0 1207.18235800 0 33984
0.17750000 0.17750300 7621.38012544 0 147.72806496 0 2033.53210387 0 220.93052604 0 1290.06978159 0 34069
