### header ###
fiducial parameters:
Omega_m = 0.31
Omega_nu = 0
Omega_de = 0.69
Omega_k = 0
H_0 = 100
w_de = -1
zeff = 0
beta = 0
fgrowth = 0
b_1 = 2
gamma = 0.55
Lx = 3500 Ly = 3500 Lz = 3500
nx = 700 ny = 700 nz = 700
xoffset = -685.467585 yoffset = -31.7331281 zoffset = 572.489161
bins = 400 dk = 0.001
kx_ny = 0.628318531 ky_ny = 0.628318531 kz_ny = 0.628318531
############################
A(data) = 8.03213046 (not used)
A(ran) = 8.0359462 (used)
Ngal = 477766
weighted Ngal = 0
Nran = 23820508
weighted Nran = 0
SN(data) = 3483.90626
SN(ran) = 69.9960058
SN(data+ran) = 3553.90226
############################
13 columns: k_central k_mean P_0(k) sigma^{lin}_{P_0(k)} P^img_1(k) sigma^{lin}_{P_1(k)} P_2(k) sigma^{lin}_{P_2(k)} P^img_3(k) sigma^{lin}_{P_3(k)} P_4(k) sigma^{lin}_{P_4(k)} N_modes
### header ###
0.00050000 0 0 0 0 0 0 0 0 0 0 0 0
0.00150000 0.00179520 35565.19310348 0 -36309.25333129 0 44853.10205435 0 -41989.24524001 0 5079.84975890 0 3
0.00250000 0.00253879 70380.56837024 0 -44528.24004417 0 -6230.26430755 0 -14133.82263100 0 -7645.48457657 0 6
0.00350000 0.00331552 82790.09785723 0 -22413.04279090 0 -2133.28267816 0 -8727.15106043 0 122401.22917269 0 7
0.00450000 0.00420575 97436.79057383 0 -613.26506920 0 482.28389552 0 -48962.04179455 0 18260.47809091 0 24
0.00550000 0.00557378 87417.11167569 0 12896.60105577 0 20516.57499596 0 -3732.81286611 0 38150.35950214 0 45
0.00650000 0.00659388 81613.99551499 0 16025.52932627 0 -1530.26172389 0 12812.34066390 0 21290.08760779 0 40
0.00750000 0.00754703 62621.52603032 0 8493.17069237 0 8803.31758286 0 25290.07567177 0 10630.27332259 0 57
0.00850000 0.00846663 65034.51777805 0 2560.58583756 0 8611.56706165 0 19097.54584720 0 -1039.98028815 0 75
0.00950000 0.00948925 59480.86109551 0 -3568.66565067 0 -859.02971257 0 7115.24201333 0 1494.68634424 0 112
0.01050000 0.01054430 59325.51637831 0 -2734.11131212 0 -2614.98416939 0 -478.28457180 0 15210.82766611 0 105
0.01150000 0.01145670 72601.56600561 0 -12687.33411669 0 -11536.25522855 0 14220.29748784 0 22012.66752545 0 144
0.01250000 0.01249090 75646.01243774 0 -8845.34812787 0 1393.17527031 0 9145.83995113 0 14572.72958681 0 169
0.01350000 0.01339930 84106.92944791 0 -7386.72434556 0 -11252.58226669 0 4193.51015716 0 -555.92149896 0 180
0.01450000 0.01448870 87838.52435829 0 -1150.62492283 0 -6554.20731477 0 -12639.28022698 0 -19256.43370835 0 267
0.01550000 0.01550050 94279.29570530 0 1895.96954032 0 3924.59660429 0 -29650.24646211 0 653.63476548 0 238
0.01650000 0.01653350 89957.76732858 0 4532.04648849 0 23055.12690713 0 -33551.80155845 0 -6371.30358109 0 315
0.01750000 0.01747870 92143.66569428 0 5359.72491334 0 16894.92827103 0 -18226.26460722 0 -6434.30510931 0 297
0.01850000 0.01844180 90761.61811041 0 -2004.04650288 0 43025.28267329 0 -5698.30553397 0 -12426.80231371 0 388
0.01950000 0.01947590 94899.56734164 0 422.50884275 0 42365.81500709 0 9706.46497367 0 -20035.81465233 0 399
0.02050000 0.02045430 90042.47061344 0 9337.63476163 0 40089.12357788 0 12211.55631924 0 -22615.99850482 0 462
0.02150000 0.02154770 80426.71012469 0 9023.07001354 0 36472.34867587 0 6438.71189459 0 -19089.46305008 0 571
0.02250000 0.02255340 72172.07052589 0 8917.35145617 0 39206.54856659 0 1206.70624804 0 -10608.57156594 0 510
0.02350000 0.02348930 66533.15694225 0 8343.89360916 0 33014.90452800 0 5667.56876027 0 -18339.97738311 0 555
0.02450000 0.02439640 61245.23605536 0 1518.64685515 0 30660.15320882 0 3840.34728475 0 3460.05721653 0 592
0.02550000 0.02547300 61376.66455096 0 -2167.70653602 0 29734.50685398 0 7223.75079656 0 -17985.10937267 0 837
0.02650000 0.02652900 62139.76917746 0 323.52558057 0 29727.08839635 0 2425.85778917 0 -6875.65904891 0 723
0.02750000 0.02749970 59109.38459785 0 2482.33771807 0 22503.28223817 0 11999.18912922 0 -16480.49115307 0 826
0.02850000 0.02848090 59072.07086321 0 -293.54172496 0 20448.70164482 0 5321.21536762 0 8037.34522423 0 831
0.02950000 0.02946900 60679.66170363 0 -3290.19668148 0 18084.98174254 0 9974.83598262 0 -3185.47463335 0 996
0.03050000 0.03053250 63816.45132475 0 -1011.08816377 0 18435.97443929 0 7391.81761498 0 3959.80659722 0 1041
0.03150000 0.03150510 60960.34513778 0 4172.59453558 0 16051.99218258 0 -94.73171090 0 5257.90381431 0 1036
0.03250000 0.03246190 59567.00378260 0 2783.26136199 0 15850.80804063 0 -2255.49899951 0 12031.96321068 0 1059
0.03350000 0.03345080 56415.15579973 0 4873.88237262 0 15968.94974644 0 4646.65612269 0 10932.17133109 0 1302
0.03450000 0.03451200 51499.48647324 0 1825.16202311 0 13283.24663843 0 4459.05772329 0 10083.11224702 0 1339
0.03550000 0.03553350 51334.84100319 0 224.42716621 0 12479.06368686 0 7650.81036481 0 4124.92817724 0 1365
0.03650000 0.03647120 51819.47666050 0 -1263.72872085 0 10103.66248189 0 472.55132201 0 672.39903435 0 1308
0.03750000 0.03744890 50028.97101408 0 3050.90159750 0 12716.12216122 0 -4526.92000210 0 221.31362848 0 1579
0.03850000 0.03847530 47641.33489018 0 3503.70432096 0 12056.21160203 0 -5713.04279830 0 3558.84449856 0 1662
0.03950000 0.03950240 47073.10318049 0 2142.16268266 0 16335.66514444 0 -886.57987118 0 3861.18540006 0 1683
0.04050000 0.04050350 43969.97342682 0 689.20239450 0 16334.22574221 0 317.61738805 0 3315.10941233 0 1822
0.04150000 0.04152450 43912.84023075 0 2394.24630181 0 20153.07057216 0 1907.44046883 0 -1743.96866521 0 1887
0.04250000 0.04250150 42809.59378582 0 1020.87388444 0 16236.12494432 0 681.54034572 0 2193.53826982 0 1920
0.04350000 0.04349210 42626.78970307 0 -1344.49025808 0 16909.87590953 0 -358.70899992 0 -5255.87757886 0 2005
0.04450000 0.04448520 42749.36033881 0 539.89763048 0 18751.31425012 0 -848.92068001 0 -3995.27125361 0 2151
0.04550000 0.04548030 42275.13266683 0 2017.78725798 0 18473.17745068 0 -781.04622164 0 -3245.43127224 0 2274
0.04650000 0.04648670 40266.83439122 0 800.23898948 0 17394.17939710 0 3987.00022697 0 1025.87636079 0 2311
0.04750000 0.04749250 39818.40523606 0 1030.76700667 0 18043.57124771 0 5529.68509930 0 -853.41272219 0 2568
0.04850000 0.04851840 39596.29440020 0 103.24655013 0 15429.61680453 0 4359.61717409 0 -393.61339668 0 2493
0.04950000 0.04949480 37248.40792241 0 1944.13415328 0 14922.06143484 0 3262.71517128 0 950.85250229 0 2644
0.05050000 0.05050630 37569.06244916 0 1022.48601494 0 10780.22581761 0 2549.45815112 0 2845.32174260 0 2829
0.05150000 0.05149060 35875.77181464 0 -175.76872757 0 12463.34098561 0 2632.38986401 0 3904.03529711 0 2784
0.05250000 0.05249300 36984.00080574 0 575.57155382 0 9991.48875915 0 -330.99386366 0 1057.16896520 0 3055
0.05350000 0.05348950 34573.88786246 0 1070.16787453 0 8797.19458724 0 -2143.80138674 0 -455.58519869 0 3009
0.05450000 0.05448610 34408.35660643 0 1655.34577736 0 8762.33890871 0 -1165.57256133 0 702.78260089 0 3336
0.05550000 0.05550870 33524.34219290 0 903.08981472 0 11546.33104413 0 1250.36442480 0 -2790.84590449 0 3349
0.05650000 0.05647670 32301.07174694 0 -535.20960815 0 10226.78673387 0 497.23817742 0 -947.29164263 0 3324
0.05750000 0.05747970 33364.90071552 0 -287.07770174 0 11183.26951333 0 2374.29397249 0 -474.44136785 0 3639
0.05850000 0.05849280 33939.99726660 0 -265.97163617 0 10788.13145753 0 1073.44971161 0 295.72518742 0 3846
0.05950000 0.05951020 33656.98864423 0 -122.10559810 0 9987.03768457 0 50.37165947 0 959.18664118 0 3787
0.06050000 0.06049470 35133.70460529 0 -583.28010635 0 9767.00844578 0 746.94678289 0 2168.53696038 0 3930
0.06150000 0.06148310 34030.34743712 0 285.51982563 0 10616.82044793 0 -1472.46418833 0 -388.59763353 0 4083
0.06250000 0.06249100 34022.59680974 0 1157.02472657 0 10744.31826822 0 -74.08304307 0 601.08661913 0 4303
0.06350000 0.06350600 32925.99375970 0 775.25871745 0 9728.48782773 0 1110.57632396 0 185.04955023 0 4470
0.06450000 0.06451750 33000.73195223 0 771.35018679 0 9996.08377395 0 -1283.51496530 0 -875.19973573 0 4479
0.06550000 0.06550280 31494.23143741 0 527.17220757 0 10455.99492994 0 -718.70460398 0 -2056.31894834 0 4636
0.06650000 0.06648880 32348.79346691 0 1575.82434051 0 12106.59067996 0 -1033.26824484 0 -652.11674975 0 4653
0.06750000 0.06749660 30092.36439212 0 1325.01403872 0 12051.78267210 0 -866.06174606 0 -1197.33906124 0 5220
0.06850000 0.06852730 29670.06592353 0 1265.94318582 0 13543.11410193 0 -684.44904545 0 590.24127697 0 5029
0.06950000 0.06949320 29062.41673749 0 387.00654046 0 14101.26999604 0 1581.37157525 0 820.94755859 0 5040
0.07050000 0.07048030 28881.38422670 0 144.26132006 0 12430.34545765 0 2260.53690730 0 2156.46812633 0 5475
0.07150000 0.07148790 28847.39218951 0 -319.63698010 0 11481.22577420 0 2832.03495281 0 1958.58353717 0 5509
0.07250000 0.07249820 29309.10813445 0 -440.89111642 0 11194.12039165 0 2681.76136038 0 428.13358376 0 5916
0.07350000 0.07351270 28958.33688419 0 588.20507643 0 10174.19319098 0 1169.04927133 0 482.84636962 0 5721
0.07450000 0.07449140 27527.57107113 0 1485.86170136 0 8620.29205361 0 -10.63338465 0 1791.98933795 0 6028
0.07550000 0.07549160 26650.86439199 0 1029.30435256 0 9391.36875398 0 -240.33698975 0 1272.66408698 0 6183
0.07650000 0.07648840 26761.58764017 0 -1.42629259 0 9473.11572811 0 -25.65036912 0 1546.74841554 0 6330
0.07750000 0.07749960 26408.82337145 0 154.94611351 0 10353.39876817 0 -974.47862899 0 714.29228254 0 6583
0.07850000 0.07848650 27139.81825598 0 132.58776801 0 11034.61248031 0 297.25095378 0 639.75007016 0 6549
0.07950000 0.07947320 26361.65526772 0 -348.06406684 0 10198.60766721 0 1020.01467204 0 342.53897675 0 6828
0.08050000 0.08048110 26214.83624063 0 883.37443315 0 10553.55318392 0 161.91060582 0 -545.37400234 0 7147
0.08150000 0.08149960 26139.65515511 0 380.80493133 0 9754.52993571 0 968.11979284 0 -1966.19022432 0 7386
0.08250000 0.08250610 24615.32819733 0 548.74663248 0 9345.57361853 0 832.55024776 0 -1092.63694329 0 7227
0.08350000 0.08350160 24673.34717938 0 669.84132732 0 8655.02593656 0 874.77234399 0 -1526.98431574 0 7798
0.08450000 0.08449610 24188.60079881 0 379.06104017 0 8036.44836592 0 924.73067358 0 -1604.33557692 0 7371
0.08550000 0.08548940 23214.45766127 0 1053.89598598 0 7786.33562059 0 411.07223845 0 -741.20356801 0 8256
0.08650000 0.08650700 22269.76690774 0 1350.69075998 0 7518.52930020 0 -253.29493148 0 -419.50602826 0 8037
0.08750000 0.08749060 21443.88219952 0 893.68387478 0 8132.94367672 0 979.49992829 0 810.80530905 0 8155
0.08850000 0.08849210 21018.59420324 0 260.71671081 0 6848.27718963 0 1212.85138831 0 730.22867965 0 8718
0.08950000 0.08949900 20464.64579256 0 61.70883430 0 6847.75679037 0 1512.98889717 0 1541.50013358 0 8571
0.09050000 0.09049190 20822.94622369 0 -23.68580653 0 6180.23954402 0 1606.50575259 0 399.03662137 0 8932
0.09150000 0.09150830 20602.82840630 0 122.16981758 0 5047.21961766 0 121.17773728 0 1693.83317843 0 9285
0.09250000 0.09250820 20265.12249933 0 334.01328664 0 5485.00826866 0 -252.09469147 0 213.33934014 0 9204
0.09350000 0.09350330 19647.72966744 0 729.46801093 0 5808.72982938 0 -415.20553730 0 1248.16103216 0 9349
0.09450000 0.09448040 19522.94456673 0 349.48686058 0 6406.28105520 0 47.37648488 0 769.73362737 0 9564
0.09550000 0.09549270 18935.44701186 0 128.37696288 0 6461.64267929 0 218.35178159 0 421.29531595 0 10155
0.09650000 0.09649430 18931.90386791 0 511.85253895 0 7114.95413289 0 7.15245610 0 -347.55363266 0 9913
0.09750000 0.09749140 18610.69572493 0 635.56694585 0 7185.00873202 0 -461.94624929 0 -161.71462567 0 10476
0.09850000 0.09850240 18088.52488648 0 400.25236264 0 7374.87695801 0 -1038.82212297 0 656.85791924 0 10575
0.09950000 0.09950330 17886.01206554 0 318.95271042 0 7542.93270410 0 -578.30641805 0 140.43140291 0 10882
0.10050000 0.10051200 17948.79214727 0 124.51050705 0 7863.54294155 0 -390.20090617 0 -593.05807640 0 10875
0.10150000 0.10150300 17463.49215047 0 744.56623306 0 8245.22812270 0 334.85146163 0 -951.03741011 0 11118
0.10250000 0.10250800 16884.85245544 0 595.96456167 0 6903.43951188 0 574.93046621 0 -851.58578859 0 11575
0.10350000 0.10349800 16405.19934430 0 21.83927492 0 6202.64992946 0 1801.83263471 0 -358.95701999 0 11364
0.10450000 0.10450100 16567.51962614 0 -99.87436288 0 5884.81884554 0 1451.85859184 0 -1164.29924398 0 12093
0.10550000 0.10551000 16381.39384594 0 -1.17555980 0 4927.90424541 0 1262.25610165 0 -1060.69328619 0 12067
0.10650000 0.10649700 16016.00712692 0 263.82139069 0 4772.96920422 0 494.49556256 0 -852.90782418 0 12054
0.10750000 0.10749900 15681.29074766 0 633.14432117 0 4456.23428046 0 -888.53967267 0 -270.48914469 0 12807
0.10850000 0.10850100 15328.19430919 0 316.37839490 0 4588.54856204 0 242.67878645 0 125.92112123 0 12736
0.10950000 0.10950300 15235.40822721 0 109.74091153 0 4752.68470516 0 -59.34245704 0 92.43608579 0 12933
0.11050000 0.11050200 15435.37441343 0 55.79167319 0 5051.86999408 0 45.36862950 0 -582.83610613 0 13428
0.11150000 0.11150900 15092.57523705 0 296.94425038 0 5209.22987440 0 -391.11990913 0 -1366.34702727 0 13453
0.11250000 0.11250000 14675.81293087 0 516.76311501 0 4923.41995386 0 -153.13468117 0 -932.80682730 0 13668
0.11350000 0.11349100 14624.43734372 0 53.29154225 0 4999.35395747 0 -3.27534869 0 -1153.59230588 0 13791
0.11450000 0.11448600 14607.60740999 0 -35.60472130 0 4888.60856463 0 170.47172737 0 -782.22874593 0 14205
0.11550000 0.11549300 14701.50072445 0 -49.10088875 0 4872.11080065 0 593.61390711 0 -916.57812081 0 14776
0.11650000 0.11649800 14785.53966983 0 103.43190085 0 4923.37566456 0 330.65837222 0 -628.75635885 0 14553
0.11750000 0.11747300 14588.56301130 0 281.77737984 0 4985.43604517 0 87.59161151 0 -327.50275965 0 14568
0.11850000 0.11849100 14311.20127460 0 305.26510248 0 4922.09127488 0 278.99601185 0 -254.76865791 0 16015
0.11950000 0.11950300 14180.65856498 0 352.49521123 0 5235.53771817 0 -495.81427645 0 391.15534057 0 15270
0.12050000 0.12050700 14090.52984096 0 107.22561150 0 5176.50008224 0 278.85096440 0 361.59666223 0 15999
0.12150000 0.12150000 13951.46144124 0 51.56824561 0 5503.22224299 0 373.56141643 0 1384.20668720 0 15670
0.12250000 0.12250700 13942.27141164 0 -92.00171849 0 5279.48377538 0 712.09553329 0 270.68291038 0 16887
0.12350000 0.12352200 13918.68735978 0 113.47693537 0 4867.31648400 0 496.15198236 0 232.85320540 0 16407
0.12450000 0.12449800 13817.92920393 0 147.50661847 0 5004.07076784 0 151.06083473 0 -46.75765265 0 16306
0.12550000 0.12549900 13354.66313351 0 415.96842048 0 4359.72789734 0 194.14325060 0 735.22561984 0 17523
0.12650000 0.12650100 13224.34187040 0 423.94381605 0 4502.37265798 0 49.84284523 0 716.38273746 0 17154
0.12750000 0.12750600 12957.05594928 0 67.24089994 0 3989.32541518 0 312.29159981 0 1183.70902939 0 18007
0.12850000 0.12850300 13149.93584762 0 -243.49038785 0 3939.24529003 0 284.78683773 0 127.59636398 0 17496
0.12950000 0.12949900 13184.26005455 0 -113.00857603 0 3800.99624234 0 -0.75497200 0 -207.18091308 0 18405
0.13050000 0.13049000 13289.00424734 0 237.39728751 0 3790.41109982 0 98.63824854 0 110.07673514 0 18100
0.13150000 0.13148800 12945.98362446 0 152.34079548 0 3229.98537912 0 390.15329517 0 488.57961941 0 19059
0.13250000 0.13249300 12955.50582380 0 51.68328707 0 3372.46405489 0 591.63085373 0 814.11925587 0 18957
0.13350000 0.13349100 12760.85435349 0 200.56741346 0 3384.67682916 0 1060.86269276 0 566.39923994 0 19468
0.13450000 0.13450700 12574.72857329 0 348.02309923 0 3191.32082085 0 237.59769659 0 953.72687781 0 19953
0.13550000 0.13551000 12054.32930681 0 539.63964531 0 2884.89423150 0 53.03997903 0 1276.73870251 0 19956
0.13650000 0.13649900 12049.34676064 0 165.43160512 0 3379.14066675 0 -297.66173703 0 1623.14745679 0 19723
0.13750000 0.13749600 11748.62241857 0 154.48439757 0 3111.54472054 0 -202.32791311 0 1584.58254945 0 20946
0.13850000 0.13851100 11442.14046759 0 290.28092531 0 3470.24375536 0 -384.45769128 0 893.49675250 0 20955
0.13950000 0.13949800 11526.95447570 0 260.66356365 0 3449.51636330 0 -286.23288335 0 832.45834747 0 20506
0.14050000 0.14048300 11024.84668982 0 235.95234912 0 3313.63679313 0 -90.99601923 0 3.48602182 0 21447
0.14150000 0.14148400 10947.40685004 0 327.24588171 0 3245.34269364 0 -29.38805381 0 -56.70879385 0 21771
0.14250000 0.14249400 10635.52160455 0 81.14087508 0 3004.80750928 0 247.64029520 0 -339.59595282 0 22470
0.14350000 0.14350900 10894.74687320 0 -164.61557478 0 3047.67955098 0 120.05943247 0 -846.43162139 0 22519
0.14450000 0.14449900 10699.22068923 0 -121.18548791 0 2663.04913143 0 395.32628532 0 -579.84547120 0 22218
0.14550000 0.14550500 10923.55706238 0 182.78304534 0 2893.23169209 0 360.38313543 0 -676.97079727 0 23559
0.14650000 0.14650700 10827.31641506 0 127.88092273 0 2717.40317397 0 -191.77820202 0 -60.77178345 0 23044
0.14750000 0.14750500 10656.85797448 0 49.32156018 0 2683.64365559 0 319.60597759 0 219.39811628 0 23649
0.14850000 0.14849900 10760.86032150 0 49.84694199 0 2728.08796742 0 395.10483883 0 280.95913504 0 23640
0.14950000 0.14949500 10541.59507311 0 147.70038415 0 2850.25999947 0 281.50942958 0 237.52019031 0 24457
0.15050000 0.15050000 10445.65337856 0 359.53610258 0 2919.35130633 0 185.66184979 0 434.10931747 0 24591
0.15150000 0.15149900 10003.53544855 0 454.78245514 0 3081.28405681 0 -106.93607021 0 849.77878518 0 25020
0.15250000 0.15250500 9851.87781551 0 254.64243341 0 2884.89423150 0 -1.24642268 0 1111.84964131 0 25297
0.15350000 0.15350100 9596.14032917 0 129.32143218 0 3445.44174777 0 49.50879319 0 1249.09110744 0 25452
0.15450000 0.15450400 9521.22497945 0 194.95042308 0 3424.20502876 0 -182.69557397 0 966.44344287 0 26061
0.15550000 0.15549900 9390.83728239 0 241.90925987 0 3584.12261612 0 221.32137910 0 1460.29570336 0 26128
0.15650000 0.15649500 9323.04143752 0 4.15899772 0 3374.36849476 0 -147.95394039 0 1109.31407893 0 26331
0.15750000 0.15749700 9322.65390615 0 6.81508236 0 3330.54423312 0 343.76357588 0 1289.35008048 0 27345
0.15850000 0.15849900 9232.60268840 0 91.41001345 0 3489.32137102 0 -99.78600573 0 519.60759525 0 26980
0.15950000 0.15949700 9198.18990287 0 171.03641594 0 3253.89052840 0 -437.35904480 0 33.79273535 0 27777
0.16050000 0.16050000 8998.76626056 0 225.28416416 0 3464.89582247 0 -451.38657311 0 348.01977754 0 28224
0.16150000 0.16150500 8814.22382281 0 152.44376810 0 3380.89009407 0 -56.32558069 0 -66.57124574 0 28075
0.16250000 0.16249700 8901.01977706 0 -150.24591163 0 3321.73066257 0 588.46084714 0 -41.80954141 0 28590
0.16350000 0.16349900 8986.80814976 0 -148.78990091 0 2934.71969318 0 698.03146631 0 -551.68744195 0 29163
0.16450000 0.16449100 9067.64719326 0 52.02564335 0 2679.69083563 0 421.41821876 0 -376.64173719 0 28996
0.16550000 0.16550500 8967.63088317 0 114.36161412 0 2476.04863757 0 293.31474231 0 -196.68324192 0 30777
0.16650000 0.16650700 8808.07868253 0 272.66817822 0 2471.83008181 0 -134.42577393 0 -47.12248575 0 29211
0.16750000 0.16749900 8584.15198540 0 286.65363169 0 2435.20283131 0 -33.67348641 0 -39.93521826 0 30922
0.16850000 0.16850800 8300.11363683 0 275.62891787 0 2427.99474786 0 32.75381911 0 82.89794230 0 30867
0.16950000 0.16949900 8190.98480341 0 184.69191414 0 2334.92078543 0 -11.65384332 0 -66.17684953 0 30852
0.17050000 0.17049200 7962.54059776 0 82.91100764 0 2419.77908284 0 222.94458192 0 -49.83974498 0 31257
0.17150000 0.17149500 7978.76155362 0 104.30694668 0 2262.15346672 0 49.05117401 0 -70.61364081 0 32608
0.17250000 0.17250900 7970.33551443 0 20.54015905 0 2185.28938783 0 302.57784925 0 -6.62463837 0 32361
0.17350000 0.17350400 7864.57266776 0 -75.72219003 0 2120.06232233 0 239.57964273 0 176.16511679 0 32508
0.17450000 0.17449800 8039.52647222 0 27.98651893 0 2125.12237477 0 65.96082847 0 54.85827621 0 32791
0.17550000 0.17549800 7993.97492792 0 59.68558838 0 2182.41058338 0 6.29505955 0 95.11481334 0 33633
0.17650000 0.17650100 7833.41514572 0 96.22592113 0 2112.16775473 0 -230.01315409 0 79.70424093 0 33984
0.17750000 0.17750300 7894.23542595 0 135.29384419 0 2235.40272996 0 -205.32629867 0 144.24803327 0 34069
0.17850000 0.17849800 7787.11068333 0 29.31397996 0 2318.05763473 0 79.13600922 0 132.11497974 0 34536
