### header ###
fiducial parameters:
Omega_m = 0.31
Omega_nu = 0
Omega_de = 0.69
Omega_k = 0
H_0 = 100
w_de = -1
zeff = 0
beta = 0
fgrowth = 0
b_1 = 2
gamma = 0.55
Lx = 3500 Ly = 3500 Lz = 3500
nx = 700 ny = 700 nz = 700
xoffset = -685.467585 yoffset = -31.7331281 zoffset = 572.489161
bins = 400 dk = 0.001
kx_ny = 0.628318531 ky_ny = 0.628318531 kz_ny = 0.628318531
############################
A(data) = 8.01999672 (not used)
A(ran) = 8.01623525 (used)
Ngal = 476264
weighted Ngal = 0
Nran = 23820508
weighted Nran = 0
SN(data) = 3490.44395
SN(ran) = 69.8243163
SN(data+ran) = 3560.26827
############################
13 columns: k_central k_mean P_0(k) sigma^{lin}_{P_0(k)} P^img_1(k) sigma^{lin}_{P_1(k)} P_2(k) sigma^{lin}_{P_2(k)} P^img_3(k) sigma^{lin}_{P_3(k)} P_4(k) sigma^{lin}_{P_4(k)} N_modes
### header ###
0.00050000 0 0 0 0 0 0 0 0 0 0 0 0
0.00150000 0.00179520 20594.19199294 0 -15858.22649826 0 -17291.53894603 0 11200.21017030 0 -23480.08273367 0 3
0.00250000 0.00253879 32785.81812750 0 -10150.37662030 0 -2805.09598653 0 25667.97411783 0 2148.49605246 0 6
0.00350000 0.00331552 37577.58813927 0 -13224.56331689 0 7467.50802744 0 -56701.59684278 0 12541.40087558 0 7
0.00450000 0.00420575 44384.18909828 0 -13753.04538049 0 3207.45319812 0 2693.09942099 0 7689.96210537 0 24
0.00550000 0.00557378 54290.37666703 0 -9801.46552061 0 -610.64535714 0 2031.14048171 0 -2266.02878041 0 45
0.00650000 0.00659388 78889.53927012 0 661.64337803 0 -18048.99668688 0 18355.47863786 0 12422.48410703 0 40
0.00750000 0.00754703 50811.12003926 0 9174.36225986 0 -12850.87235427 0 -15183.25757731 0 -3575.57478136 0 57
0.00850000 0.00846663 72698.00595478 0 -3831.95446254 0 -87.79157770 0 -25216.66615823 0 3502.06561689 0 75
0.00950000 0.00948925 59631.00182005 0 1059.90604389 0 17047.72635353 0 -26265.10459530 0 -11622.84080863 0 112
0.01050000 0.01054430 63594.11904239 0 2751.72738090 0 33141.01830768 0 -35873.88951942 0 15251.79526794 0 105
0.01150000 0.01145670 70657.59793720 0 6011.46409681 0 53781.60334161 0 -11733.89622656 0 3770.18196237 0 144
0.01250000 0.01249090 70707.31267563 0 -393.65547151 0 72207.50196531 0 1904.26271161 0 14238.78827028 0 169
0.01350000 0.01339930 77767.02698000 0 3107.49224965 0 82391.16199401 0 20615.00796360 0 -248.67998650 0 180
0.01450000 0.01448870 73643.02887805 0 3188.41987175 0 70810.72818944 0 29661.20806368 0 19502.57148907 0 267
0.01550000 0.01550050 78347.65969349 0 770.36917881 0 61355.51641056 0 40027.67217514 0 23901.16324652 0 238
0.01650000 0.01653350 74988.98068300 0 -634.04671565 0 52825.50809352 0 30041.43169795 0 13658.48772654 0 315
0.01750000 0.01747870 70873.61899441 0 2070.43616249 0 37107.01433447 0 23506.76703648 0 6032.71188814 0 297
0.01850000 0.01844180 67400.45214530 0 165.81360032 0 25934.59569947 0 18468.19490451 0 7497.37008748 0 388
0.01950000 0.01947590 68890.34417289 0 3724.30932065 0 22507.26827510 0 -178.72060936 0 1669.82837822 0 399
0.02050000 0.02045430 63637.07966269 0 4168.78565584 0 23281.88811942 0 -2757.89466583 0 9489.76850464 0 462
0.02150000 0.02154770 65338.34237107 0 -1188.65835858 0 25973.79172933 0 2405.07503548 0 2330.20397506 0 571
0.02250000 0.02255340 62466.95637585 0 918.20907426 0 33196.60137827 0 -1185.60239693 0 2675.62729243 0 510
0.02350000 0.02348930 67649.35800722 0 6783.13870272 0 27964.04211548 0 -1030.52562999 0 -1991.36869096 0 555
0.02450000 0.02439640 63222.97471447 0 4155.85318046 0 43504.27144494 0 5155.58446066 0 20437.07570376 0 592
0.02550000 0.02547300 60670.80384377 0 -749.83665967 0 36313.01792173 0 9766.77592695 0 16891.82802008 0 837
0.02650000 0.02652900 61895.18152222 0 -2008.79653022 0 35988.26663480 0 15713.73265937 0 11624.28021086 0 723
0.02750000 0.02749970 64645.21483743 0 -1866.24034818 0 34883.91295739 0 1390.18574261 0 -270.24333908 0 826
0.02850000 0.02848090 63935.36809330 0 2705.67758198 0 33153.97292772 0 -2030.83045661 0 7047.22472197 0 831
0.02950000 0.02946900 65313.54036348 0 3206.73349700 0 38912.79978915 0 -4666.11019740 0 9235.59221611 0 996
0.03050000 0.03053250 59377.11341196 0 885.58446918 0 33149.76544429 0 -215.44086739 0 13289.44714033 0 1041
0.03150000 0.03150510 64113.52179963 0 902.75100158 0 41684.20269125 0 5816.42509513 0 11997.97117349 0 1036
0.03250000 0.03246190 64287.68946903 0 -1103.44685401 0 42335.47683709 0 13729.01843563 0 13606.33707664 0 1059
0.03350000 0.03345080 60526.97434438 0 3662.17143377 0 34664.79164923 0 11730.02091287 0 17340.03572874 0 1302
0.03450000 0.03451200 58169.89783698 0 2746.56767754 0 28298.42632500 0 8810.82461909 0 9143.52583524 0 1339
0.03550000 0.03553350 56511.26357915 0 651.32618576 0 28742.98016647 0 7536.86507010 0 14565.86474543 0 1365
0.03650000 0.03647120 53593.59526619 0 4351.54544930 0 27373.55503290 0 207.31488821 0 740.87471996 0 1308
0.03750000 0.03744890 51451.65403002 0 3722.98064167 0 24495.41491954 0 -3042.75236644 0 11998.08189673 0 1579
0.03850000 0.03847530 50101.38401839 0 1169.40358572 0 25740.27639890 0 1008.92463150 0 806.76723219 0 1662
0.03950000 0.03950240 45888.80731789 0 213.03263674 0 20445.37994737 0 3565.74255692 0 2927.69983925 0 1683
0.04050000 0.04050350 47988.67371974 0 74.25001372 0 20786.40755179 0 7992.94520171 0 -3940.67361993 0 1822
0.04150000 0.04152450 45899.76891946 0 1631.91673805 0 19508.77199097 0 4056.57871613 0 -4569.41558476 0 1887
0.04250000 0.04250150 44035.96448273 0 2847.42548431 0 15038.09939894 0 3200.01259584 0 775.30743568 0 1920
0.04350000 0.04349210 41929.23323949 0 998.62736942 0 14843.78009837 0 1713.59727823 0 -42.12687424 0 2005
0.04450000 0.04448520 41205.87825909 0 677.02837336 0 17726.12769516 0 262.14171901 0 1605.79712380 0 2151
0.04550000 0.04548030 40879.02323044 0 756.41804954 0 16735.70824014 0 1000.21181910 0 2626.65439975 0 2274
0.04650000 0.04648670 40100.63879569 0 2898.07029803 0 16659.30919889 0 1562.70363560 0 5560.53259625 0 2311
0.04750000 0.04749250 38648.83556547 0 874.59518680 0 17745.61498684 0 756.62399478 0 6896.84040629 0 2568
0.04850000 0.04851840 36492.27886054 0 1747.26821801 0 14757.08379504 0 4183.21289508 0 4677.97972960 0 2493
0.04950000 0.04949480 37268.00593734 0 1025.44786182 0 17633.56305968 0 872.97752014 0 6228.64774813 0 2644
0.05050000 0.05050630 34540.56016476 0 920.36153420 0 14906.44945685 0 299.28715431 0 4684.93314959 0 2829
0.05150000 0.05149060 35297.57501261 0 -576.26246688 0 15005.76821047 0 -911.00209803 0 4570.11314122 0 2784
0.05250000 0.05249300 36411.45088937 0 -879.36957326 0 15612.42088728 0 774.66081191 0 1936.30601964 0 3055
0.05350000 0.05348950 36815.14785225 0 642.23912878 0 16382.05818543 0 -1301.05352782 0 3324.72019027 0 3009
0.05450000 0.05448610 36825.99873058 0 1141.87778622 0 17721.58804199 0 453.51910287 0 3375.02176192 0 3336
0.05550000 0.05550870 35959.70003677 0 849.58723396 0 18004.26449461 0 -1113.98660000 0 3360.57237803 0 3349
0.05650000 0.05647670 36459.17260933 0 203.46614810 0 19620.15957864 0 1889.09362661 0 1198.23591955 0 3324
0.05750000 0.05747970 35532.41902201 0 61.85100295 0 20648.11421480 0 1393.71781422 0 4248.87178126 0 3639
0.05850000 0.05849280 35221.17597136 0 250.22014688 0 17881.25096587 0 1084.02488904 0 1033.04347665 0 3846
0.05950000 0.05951020 34613.96967831 0 780.46713905 0 18363.33998848 0 2876.19138419 0 2000.81338403 0 3787
0.06050000 0.06049470 34200.08617659 0 1058.02374867 0 15614.52462900 0 1287.89960593 0 -134.16003813 0 3930
0.06150000 0.06148310 33283.62985135 0 -246.95159659 0 13879.93422291 0 2442.59914429 0 616.53583395 0 4083
0.06250000 0.06249100 32943.48803292 0 367.93224649 0 13629.03534252 0 2237.88293072 0 -1055.93440098 0 4303
0.06350000 0.06350600 32440.47231641 0 447.77810246 0 12107.47646594 0 2050.07415715 0 -2889.88784999 0 4470
0.06450000 0.06451750 31793.62710050 0 943.37536134 0 12193.61915303 0 86.92693986 0 -1651.78048877 0 4479
0.06550000 0.06550280 31610.38012475 0 1280.30399110 0 11804.31621241 0 -1095.85123918 0 -506.34073565 0 4636
0.06650000 0.06648880 31090.42375127 0 -325.12996044 0 11694.03585721 0 299.26943859 0 591.44594591 0 4653
0.06750000 0.06749660 31359.48124436 0 -341.87906619 0 11166.32885636 0 888.80762293 0 -203.37978397 0 5220
0.06850000 0.06852730 31504.19652974 0 -147.34717699 0 10734.20923566 0 712.06785248 0 -2588.27772193 0 5029
0.06950000 0.06949320 31467.54713459 0 345.05460895 0 10948.34799765 0 273.65140066 0 -2026.32402041 0 5040
0.07050000 0.07048030 30798.77871555 0 1271.19146778 0 11244.61019282 0 -249.62999197 0 -1034.98556242 0 5475
0.07150000 0.07148790 29625.99807076 0 1661.63485786 0 11449.33747872 0 204.06958980 0 1293.62399786 0 5509
0.07250000 0.07249820 28236.08913627 0 1230.38995082 0 11777.63190959 0 2883.27767207 0 3094.59299124 0 5916
0.07350000 0.07351270 27645.82350019 0 -10.34383228 0 10986.39250573 0 3415.52432611 0 3951.28090711 0 5721
0.07450000 0.07449140 27384.95952746 0 597.75495659 0 11497.94498468 0 1993.74924079 0 4433.32564041 0 6028
0.07550000 0.07549160 26965.42914008 0 833.33084666 0 10604.26443159 0 1612.20799987 0 4767.66556064 0 6183
0.07650000 0.07648840 26761.36619368 0 23.37279191 0 10978.46472116 0 -203.38421290 0 5005.33301287 0 6330
0.07750000 0.07749960 26962.10744264 0 52.73615443 0 10583.69205207 0 -1026.83854582 0 5117.77247140 0 6583
0.07850000 0.07848650 26731.02802367 0 -461.18447335 0 10892.48811894 0 -161.04032109 0 3421.33729664 0 6549
0.07950000 0.07947320 27564.88480576 0 73.78785489 0 11459.63474080 0 -484.40203126 0 3001.53010114 0 6828
0.08050000 0.08048110 26694.93224476 0 1285.85122584 0 10639.87302820 0 520.57753091 0 1807.06984435 0 7147
0.08150000 0.08149960 25791.31981631 0 743.70702065 0 11092.91934281 0 1258.23684774 0 1595.09018570 0 7386
0.08250000 0.08250610 24793.59262691 0 115.78772956 0 9136.72742780 0 1330.29553766 0 1361.51949365 0 7227
0.08350000 0.08350160 24830.46346855 0 752.67338929 0 10267.27822573 0 1261.53640054 0 196.19273793 0 7798
0.08450000 0.08449610 23730.09582807 0 1851.43664990 0 9509.01220518 0 -378.01138377 0 918.11938843 0 7371
0.08550000 0.08548940 22180.85613945 0 1634.89519342 0 9190.16246737 0 1121.10610486 0 4691.49903821 0 8256
0.08650000 0.08650700 21232.17934899 0 490.70772024 0 8190.14330673 0 1156.54861661 0 4219.15366144 0 8037
0.08750000 0.08749060 20476.05028712 0 20.11708552 0 8504.11014929 0 2122.12177474 0 4115.38383324 0 8155
0.08850000 0.08849210 20742.33969901 0 3.33355591 0 7358.08024126 0 1302.74759351 0 1523.93942641 0 8718
0.08950000 0.08949900 20184.29452815 0 420.54571956 0 6693.27571450 0 996.72071508 0 3159.24429585 0 8571
0.09050000 0.09049190 19648.06183718 0 436.92168797 0 5777.15155900 0 481.45347116 0 3446.15037656 0 8932
0.09150000 0.09150830 19721.02845774 0 -42.33204442 0 5612.17391920 0 238.04280404 0 2853.10558694 0 9285
0.09250000 0.09250820 19713.49927686 0 -17.44577643 0 5661.71150044 0 440.56337560 0 2733.05944126 0 9204
0.09350000 0.09350330 19466.25426366 0 324.21649364 0 5138.28948929 0 582.13190627 0 2383.96011205 0 9349
0.09450000 0.09448040 18947.40512266 0 307.48399638 0 5305.52588335 0 -385.66457469 0 2793.34824990 0 9564
0.09550000 0.09549270 19013.28545533 0 363.18443361 0 5103.82134213 0 -10.85153159 0 1745.60736928 0 10155
0.09650000 0.09649430 18840.11429517 0 208.83622564 0 5790.11725136 0 -333.90367063 0 1674.73341812 0 9913
0.09750000 0.09749140 18467.53056502 0 314.89248891 0 5243.39906879 0 -156.82951596 0 1507.07627572 0 10476
0.09850000 0.09850240 18537.06476488 0 -290.82346922 0 5183.70816570 0 563.19269467 0 1240.79793615 0 10575
0.09950000 0.09950330 18309.63921311 0 278.86646565 0 5153.39214034 0 793.66313577 0 1034.07320286 0 10882
0.10050000 0.10051200 18140.34336663 0 300.44864119 0 4884.41215352 0 415.36608601 0 799.83484962 0 10875
0.10150000 0.10150300 17712.50873564 0 743.57304552 0 4582.96811034 0 405.85274453 0 1046.62921920 0 11118
0.10250000 0.10250800 17214.03267230 0 722.49355353 0 4813.49391306 0 -30.71739713 0 1394.80290205 0 11575
0.10350000 0.10349800 16543.71412778 0 558.28876201 0 5260.61653389 0 -213.13782383 0 2575.57776536 0 11364
0.10450000 0.10450100 16112.11490635 0 517.57582365 0 5357.59902697 0 165.31866740 0 1882.95955866 0 12093
0.10550000 0.10551000 15783.59902898 0 475.10238564 0 5745.44042072 0 135.41010360 0 2638.62358288 0 12067
0.10650000 0.10649700 16209.66208800 0 -231.10931424 0 5708.29277095 0 -181.72453109 0 2079.83656626 0 12054
0.10750000 0.10749900 15514.32008939 0 119.71286871 0 6242.74281763 0 41.85150552 0 2097.64086457 0 12807
0.10850000 0.10850100 15781.16311752 0 505.78490495 0 5423.37970872 0 -435.37709866 0 1712.88864944 0 12736
0.10950000 0.10950300 15365.17587408 0 256.72735218 0 5833.69792185 0 2.71077085 0 1774.22932894 0 12933
0.11050000 0.11050200 15194.21917888 0 135.50532560 0 5931.73228579 0 507.99494098 0 1546.85913879 0 13428
0.11150000 0.11150900 14900.69184794 0 256.43725726 0 5246.31109022 0 789.72249537 0 1213.96969312 0 13453
0.11250000 0.11250000 14952.06743510 0 -38.69057823 0 5005.82019516 0 657.54440338 0 1427.34446470 0 13668
0.11350000 0.11349100 14713.68028175 0 64.66592008 0 4969.86835647 0 841.99494083 0 1313.45453161 0 13791
0.11450000 0.11448600 14969.56170831 0 87.27582881 0 4879.19708853 0 -6.69993018 0 1849.66507793 0 14205
0.11550000 0.11549300 14608.05030298 0 218.07718793 0 4627.96603840 0 -187.37030951 0 1590.10763953 0 14776
0.11650000 0.11649800 14644.81042138 0 223.45723056 0 4734.50394780 0 -142.41002735 0 1813.83503482 0 14553
0.11750000 0.11747300 14397.56540818 0 64.14397069 0 4877.04905752 0 -26.75837667 0 1129.62072265 0 14568
0.11850000 0.11849100 14414.39534191 0 347.23917864 0 4698.21993937 0 200.67813671 0 1383.11052705 0 16015
0.11950000 0.11950300 13839.96313032 0 443.08232950 0 4706.00378372 0 542.30032497 0 1785.14664121 0 15270
0.12050000 0.12050700 13490.29911254 0 469.53854242 0 4199.61100814 0 677.30628871 0 1338.09045433 0 15999
0.12150000 0.12150000 13444.12751805 0 -65.47674643 0 4289.15289895 0 816.14992024 0 1788.12509659 0 15670
0.12250000 0.12250700 13371.05017425 0 57.96838153 0 4062.31418039 0 471.40201469 0 2002.68460692 0 16887
0.12350000 0.12352200 13347.68756888 0 -53.78071756 0 3646.40444323 0 618.72704703 0 2993.39194240 0 16407
0.12450000 0.12449800 13468.26518615 0 -276.00537692 0 3287.48396190 0 1142.90751243 0 2800.91064775 0 16306
0.12550000 0.12549900 13692.36904048 0 -185.55223378 0 2938.45106665 0 81.42975203 0 2274.67626609 0 17523
0.12650000 0.12650100 13498.04973992 0 188.21623513 0 3176.07422958 0 -239.69590214 0 1594.66943736 0 17154
0.12750000 0.12750600 13282.47157570 0 626.60057721 0 3405.04990683 0 -709.58543726 0 1556.96817135 0 18007
0.12850000 0.12850300 12922.39957259 0 470.17741556 0 3655.45053260 0 -787.59107284 0 1979.21127831 0 17496
0.12950000 0.12949900 12692.53810936 0 39.37905539 0 3834.15785518 0 -80.42217047 0 1971.56030186 0 18405
0.13050000 0.13049000 12654.56003523 0 39.10401884 0 3568.59921672 0 663.22229154 0 2008.42007118 0 18100
0.13150000 0.13148800 12881.32124752 0 -82.81390336 0 3331.67361026 0 1004.87769678 0 1330.86022623 0 19059
0.13250000 0.13249300 12657.77100943 0 -92.18441185 0 3033.94986821 0 746.77959079 0 1094.06416596 0 18957
0.13350000 0.13349100 12783.33117287 0 187.69915756 0 2742.75879780 0 275.35875315 0 461.49560567 0 19468
0.13450000 0.13450700 12380.63071922 0 374.04527702 0 2691.32784902 0 -499.00642769 0 389.67386351 0 19953
0.13550000 0.13551000 11993.87441330 0 470.11983947 0 2745.94762735 0 -624.90097535 0 482.08791537 0 19956
0.13650000 0.13649900 11739.76455871 0 455.70810149 0 2730.33564935 0 -557.04976886 0 367.35870007 0 19723
0.13750000 0.13749600 11463.28860799 0 143.72431231 0 3201.39663644 0 -83.33629564 0 393.02102730 0 20946
0.13850000 0.13851100 11557.73553870 0 20.24408508 0 2918.90841334 0 -7.92679913 0 131.62115405 0 20955
0.13950000 0.13949800 11617.41536947 0 -34.43692320 0 3373.83702316 0 -72.22721070 0 -141.66485989 0 20506
0.14050000 0.14048300 11549.54201833 0 7.81557763 0 3469.80086237 0 -119.10167638 0 183.35548453 0 21447
0.14150000 0.14148400 11529.39038716 0 207.50090326 0 3664.00943969 0 138.33430459 0 462.05032915 0 21771
0.14250000 0.14249400 11366.07359609 0 119.29101313 0 3571.96520347 0 392.40872774 0 509.80637332 0 22470
0.14350000 0.14350900 11373.38133047 0 117.33564057 0 3428.16892105 0 646.74667221 0 848.58518857 0 22519
0.14450000 0.14449900 11161.56775668 0 170.74632103 0 3322.41714671 0 390.92282174 0 1185.53596298 0 22218
0.14550000 0.14550500 11090.81560109 0 289.13715415 0 3371.71113680 0 6.91544191 0 1082.39836453 0 23559
0.14650000 0.14650700 10812.94453744 0 367.93113926 0 3257.23437050 0 -307.49285424 0 1247.18666757 0 23044
0.14750000 0.14750500 10520.43586039 0 212.17120987 0 3384.42216569 0 -155.10887669 0 1063.40822023 0 23649
0.14850000 0.14849900 10303.72831904 0 142.96253636 0 3493.28526331 0 -106.04076202 0 1059.86286183 0 23640
0.14950000 0.14949500 10344.91736736 0 87.28501884 0 3353.53037945 0 409.01167880 0 655.65657200 0 24457
0.15050000 0.15050000 10253.96929130 0 -86.91786055 0 3337.82982285 0 242.54481131 0 475.34044063 0 24591
0.15150000 0.15149900 10246.46225507 0 171.18257063 0 3048.90857904 0 56.16702500 0 315.18036936 0 25020
0.15250000 0.15250500 10062.82774796 0 259.95161316 0 3084.90470702 0 10.75580027 0 643.66745868 0 25297
0.15350000 0.15350100 9841.45875786 0 245.86207983 0 3049.10788088 0 110.78193151 0 719.58374657 0 25452
0.15450000 0.15450400 9713.99415454 0 97.54939612 0 3016.12342525 0 129.22399573 0 1148.70941064 0 26061
0.15550000 0.15549900 9714.34846894 0 66.43693844 0 2932.73774704 0 260.44433162 0 688.65763612 0 26128
0.15650000 0.15649500 9566.88724700 0 26.59627783 0 2819.27963462 0 261.87044705 0 703.34286052 0 26331
0.15750000 0.15749700 9537.16912719 0 131.55914903 0 2646.06418516 0 283.79254296 0 538.36964966 0 27345
0.15850000 0.15849900 9385.04645651 0 177.58458884 0 2299.11288697 0 -107.25938209 0 192.53444181 0 26980
0.15950000 0.15949700 9204.46791104 0 273.71451291 0 2421.47314854 0 -192.22441671 0 187.73016007 0 27777
0.16050000 0.16050000 8992.37752914 0 129.83740252 0 2529.71619597 0 155.81750548 0 110.26485394 0 28224
0.16150000 0.16150500 8975.28185962 0 -30.32654406 0 2350.41096785 0 203.17383872 0 126.19350042 0 28075
0.16250000 0.16249700 9021.16557367 0 14.60074257 0 2436.45400402 0 181.10226643 0 -27.69675619 0 28590
0.16350000 0.16349900 8976.61053860 0 171.99749373 0 2373.37496953 0 203.93340021 0 -129.58052459 0 29163
0.16450000 0.16449100 8767.04464675 0 159.57766698 0 2414.02147394 0 149.23611560 0 286.92268919 0 28996
0.16550000 0.16550500 8690.18056786 0 202.12528956 0 2165.10453969 0 113.48579323 0 577.17482645 0 30777
0.16650000 0.16650700 8585.77961715 0 49.59238925 0 2387.35931577 0 193.75682647 0 556.18169859 0 29211
0.16750000 0.16749900 8485.76330706 0 102.31891076 0 2218.05239697 0 98.30497156 0 468.92624286 0 30922
0.16850000 0.16850800 8455.07082266 0 128.24963114 0 2181.20369997 0 -199.37160238 0 587.44219325 0 30867
0.16950000 0.16949900 8336.79624895 0 166.58091243 0 2270.11446827 0 -49.52794832 0 342.40057269 0 30852
0.17050000 0.17049200 8334.54856701 0 95.64672782 0 2284.66350308 0 -96.62397121 0 536.06660609 0 31257
0.17150000 0.17149500 8274.42584325 0 -42.84236787 0 2231.30596978 0 2.98206495 0 346.32571184 0 32608
0.17250000 0.17250900 8376.65661830 0 -4.34598714 0 2421.45100389 0 64.79757003 0 495.77552331 0 32361
0.17350000 0.17350400 8351.06847564 0 64.00202349 0 2256.91625708 0 285.57740172 0 563.17387172 0 32508
0.17450000 0.17449800 8280.68170677 0 47.07177450 0 2257.64703052 0 322.14043274 0 778.55827025 0 32791
0.17550000 0.17549800 8157.42458689 0 159.88769208 0 2007.16889847 0 143.43200293 0 793.35089621 0 33633
0.17650000 0.17650100 8148.50029309 0 37.55832229 0 2145.51759708 0 260.84182808 0 898.22020626 0 33984
0.17750000 0.17750300 8026.42791196 0 126.10492182 0 1885.60584429 0 159.42708337 0 949.31898530 0 34069
0.17850000 0.17849800 7958.01201691 0 96.76768999 0 1803.03951812 0 162.16084036 0 1027.67561358 0 34536
