### header ###
fiducial parameters:
Omega_m = 0.31
Omega_nu = 0
Omega_de = 0.69
Omega_k = 0
H_0 = 100
w_de = -1
zeff = 0
beta = 0
fgrowth = 0
b_1 = 2
gamma = 0.55
Lx = 3500 Ly = 3500 Lz = 3500
nx = 700 ny = 700 nz = 700
xoffset = -685.467585 yoffset = -31.7331281 zoffset = 572.489161
bins = 400 dk = 0.001
kx_ny = 0.628318531 ky_ny = 0.628318531 kz_ny = 0.628318531
############################
A(data) = 8.00948701 (not used)
A(ran) = 7.99494023 (used)
Ngal = 475114
weighted Ngal = 0
Nran = 23820508
weighted Nran = 0
SN(data) = 3503.08082
SN(ran) = 69.6388289
SN(data+ran) = 3572.71965
############################
13 columns: k_central k_mean P_0(k) sigma^{lin}_{P_0(k)} P^img_1(k) sigma^{lin}_{P_1(k)} P_2(k) sigma^{lin}_{P_2(k)} P^img_3(k) sigma^{lin}_{P_3(k)} P_4(k) sigma^{lin}_{P_4(k)} N_modes
### header ###
0.00050000 0 0 0 0 0 0 0 0 0 0 0 0
0.00150000 0.00179520 58358.68097514 0 -25824.86896051 0 31343.20492688 0 -10648.65338179 0 -64254.25104808 0 3
0.00250000 0.00253879 114607.41973284 0 -40549.95373683 0 1046.16861049 0 -9599.52846057 0 54236.45444516 0 6
0.00350000 0.00331552 112838.06222682 0 -12049.23603740 0 13180.27401762 0 -66561.05920080 0 95264.06827467 0 7
0.00450000 0.00420575 115994.78203262 0 24144.86511578 0 31363.57800455 0 -72786.47383008 0 33332.23735730 0 24
0.00550000 0.00557378 93289.76203626 0 27360.60041286 0 72762.11471548 0 12151.76576522 0 44357.72624196 0 45
0.00650000 0.00659388 68838.30424625 0 22078.10496513 0 110295.63500197 0 38098.76246848 0 34521.40504282 0 40
0.00750000 0.00754703 61535.99530510 0 12688.10917943 0 80457.49118769 0 83667.80104560 0 -2757.51820678 0 57
0.00850000 0.00846663 72974.81407525 0 -5857.96845785 0 94841.76980609 0 64623.07018779 0 5328.62275292 0 75
0.00950000 0.00948925 60664.27117213 0 -3082.91168855 0 55712.39534349 0 48953.18393470 0 -1871.95366779 0 112
0.01050000 0.01054430 73811.54966179 0 -7264.19799912 0 49620.84512126 0 22729.60055746 0 -28.37416103 0 105
0.01150000 0.01145670 75115.98024867 0 -6258.44337422 0 36518.29882387 0 577.28444246 0 16713.89576024 0 144
0.01250000 0.01249090 75751.08880027 0 5375.49190388 0 31385.61193093 0 -1185.03770837 0 2352.96867489 0 169
0.01350000 0.01339930 72204.18026787 0 -1159.22811921 0 31235.69265289 0 -3419.39963979 0 -1162.51659968 0 180
0.01450000 0.01448870 72522.73105290 0 4197.05330111 0 25511.07927515 0 5204.70129355 0 1818.58506216 0 267
0.01550000 0.01550050 72758.57157154 0 3885.95419068 0 15526.83181644 0 10959.77463686 0 9523.29550419 0 238
0.01650000 0.01653350 66159.46597962 0 -2441.75764761 0 23648.04990117 0 18500.85826272 0 107.26702199 0 315
0.01750000 0.01747870 76514.08270353 0 -7321.05438706 0 19500.91064034 0 20920.60412859 0 10757.11787571 0 297
0.01850000 0.01844180 77573.03984918 0 -6084.00996902 0 6481.16318794 0 25120.11548581 0 13883.36664360 0 388
0.01950000 0.01947590 83156.70253198 0 -3383.37029483 0 512.81361674 0 10952.56655341 0 14513.27120254 0 399
0.02050000 0.02045430 85040.65859987 0 -4423.72593479 0 1175.91411271 0 -3304.52426980 0 17694.23939969 0 462
0.02150000 0.02154770 83005.01168196 0 4981.81539495 0 3242.66319104 0 -11095.79814726 0 5279.04088238 0 571
0.02250000 0.02255340 81358.44625818 0 9776.92924881 0 13970.83800967 0 -28302.85525493 0 7658.02952059 0 510
0.02350000 0.02348930 72013.40411124 0 5990.26059479 0 20103.90944997 0 -14153.08847619 0 -1605.14385663 0 555
0.02450000 0.02439640 70549.08915398 0 8980.31976741 0 25016.14635576 0 -3949.44290119 0 4482.85214933 0 592
0.02550000 0.02547300 65044.15070064 0 2988.50904715 0 29737.49638168 0 5000.09580323 0 -4103.20427594 0 837
0.02650000 0.02652900 63583.71105706 0 -501.80551141 0 28404.49919676 0 2951.76000108 0 -139.37621035 0 723
0.02750000 0.02749970 61743.37994895 0 4867.37184563 0 28011.87455869 0 10888.98926430 0 -9440.99491382 0 826
0.02850000 0.02848090 64119.83302478 0 235.04331125 0 28092.25963688 0 -4472.21164517 0 2074.72115219 0 831
0.02950000 0.02946900 63049.58210781 0 -846.31868368 0 28290.67569763 0 3307.75738865 0 3076.15757042 0 996
0.03050000 0.03053250 62825.81042323 0 1736.50591828 0 25839.04153628 0 4047.99766440 0 2988.78585527 0 1041
0.03150000 0.03150510 63477.19529231 0 2774.43671911 0 30466.16607799 0 -7094.04958363 0 -6340.58895205 0 1036
0.03250000 0.03246190 59146.80905573 0 6546.82207412 0 31763.39965375 0 -5621.66290157 0 -10617.96089739 0 1059
0.03350000 0.03345080 53893.10165253 0 6724.94256348 0 36050.05020729 0 -4016.19794752 0 -6058.32217545 0 1302
0.03450000 0.03451200 47712.64066201 0 3268.63886506 0 29442.41892526 0 7025.51189300 0 -2399.26206495 0 1339
0.03550000 0.03553350 47339.94620862 0 -2632.48951493 0 26898.77374467 0 10637.20459792 0 -11516.43576712 0 1365
0.03650000 0.03647120 48900.70111506 0 -2790.13727570 0 21868.17368657 0 7641.18851454 0 -17224.66210413 0 1308
0.03750000 0.03744890 51316.35022074 0 -374.11835437 0 23431.47522772 0 3185.29747615 0 -18442.95000392 0 1579
0.03850000 0.03847530 48108.25482778 0 3523.77844586 0 17719.37357702 0 -4281.76765829 0 -10175.32256811 0 1662
0.03950000 0.03950240 46576.06651938 0 3142.34792818 0 17240.38480537 0 -5136.40719407 0 -9613.94462748 0 1683
0.04050000 0.04050350 46473.42606831 0 -461.16786486 0 20863.02803953 0 -1438.73788693 0 -8669.97357507 0 1822
0.04150000 0.04152450 45415.90832488 0 -132.33642623 0 22171.99827959 0 267.98015589 0 -15486.41783085 0 1887
0.04250000 0.04250150 45528.95676128 0 1680.04813403 0 22386.13704159 0 4337.42823516 0 -10023.08917418 0 1920
0.04350000 0.04349210 43914.83324922 0 229.78395696 0 17752.14765849 0 2956.73147492 0 -10659.34924756 0 2005
0.04450000 0.04448520 43088.28420151 0 1402.02205784 0 18125.94934436 0 5796.25131931 0 -5692.39291251 0 2151
0.04550000 0.04548030 42600.99118624 0 760.71743327 0 13878.82699043 0 5542.60650237 0 -4146.29776414 0 2274
0.04650000 0.04648670 40078.82631580 0 551.37298792 0 13706.32016975 0 4242.56055611 0 -1286.13910628 0 2311
0.04750000 0.04749250 40299.82991918 0 1492.05113094 0 13119.04406137 0 4566.94645632 0 1907.48475813 0 2568
0.04850000 0.04851840 39375.62296657 0 432.39089266 0 12920.51727737 0 2435.37998851 0 2254.61321352 0 2493
0.04950000 0.04949480 39296.78801386 0 659.49534701 0 12601.63432260 0 1754.06662545 0 4519.99979909 0 2644
0.05050000 0.05050630 38808.94138235 0 1119.13523104 0 12494.78638810 0 -2815.44861024 0 143.78299563 0 2829
0.05150000 0.05149060 37962.24070347 0 627.39114120 0 13335.17584183 0 -3225.63395547 0 375.37395600 0 2784
0.05250000 0.05249300 37467.52923057 0 1000.46426810 0 15421.75545391 0 -4163.59273550 0 -1440.46516961 0 3055
0.05350000 0.05348950 36711.06799896 0 1051.47446854 0 14483.70809527 0 -252.64720048 0 -3433.91545763 0 3009
0.05450000 0.05448610 35971.54742432 0 503.36228028 0 14362.24469201 0 1825.98137514 0 -4527.01965303 0 3336
0.05550000 0.05550870 35541.27688187 0 851.36323486 0 13788.36609666 0 3510.21484796 0 -5106.26832591 0 3349
0.05650000 0.05647670 36732.10541611 0 -455.37482451 0 15152.80868406 0 1163.26951777 0 -4120.35530709 0 3324
0.05750000 0.05747970 34543.77113896 0 734.21914551 0 12188.30443712 0 2983.72580283 0 36.93229305 0 3639
0.05850000 0.05849280 34825.67252884 0 1132.42202083 0 13275.93890405 0 709.32634486 0 1738.37714118 0 3846
0.05950000 0.05951020 34627.81008433 0 -697.42802461 0 13701.89123983 0 -887.93069481 0 1134.45932859 0 3787
0.06050000 0.06049470 35084.65420635 0 -79.27596341 0 16009.36373203 0 -661.33888909 0 1623.21389074 0 3930
0.06150000 0.06148310 35310.64035590 0 1191.37107816 0 16027.30089824 0 -281.10196803 0 3716.12687261 0 4083
0.06250000 0.06249100 34800.09545851 0 434.71608087 0 16232.80324687 0 155.81750548 0 2695.91179149 0 4303
0.06350000 0.06350600 34798.10244004 0 364.38688808 0 16445.61332989 0 -112.27226643 0 -2749.22503550 0 4470
0.06450000 0.06451750 33761.51139052 0 1942.50652153 0 16949.73627888 0 42.87049157 0 -840.93753381 0 4479
0.06550000 0.06550280 31910.21868084 0 1878.41990548 0 15353.10704003 0 1982.03472114 0 62.13522952 0 4636
0.06650000 0.06648880 30542.45439599 0 585.23769338 0 12564.43131121 0 2510.46142311 0 1992.76380389 0 4653
0.06750000 0.06749660 30545.99753994 0 -188.67462937 0 13380.79382009 0 5505.19311681 0 554.75669039 0 5220
0.06850000 0.06852730 30390.98499248 0 -197.72404045 0 10835.31063358 0 2117.87000201 0 1031.36601944 0 5029
0.06950000 0.06949320 29686.23151777 0 1288.69681332 0 10820.85017737 0 1037.42590281 0 3294.83598558 0 5040
0.07050000 0.07048030 29061.86312125 0 1425.69468830 0 12290.16982545 0 -1619.33857705 0 3676.12256304 0 5475
0.07150000 0.07148790 27952.52689767 0 880.18671083 0 11656.05778309 0 -585.96625235 0 5467.76865892 0 5509
0.07250000 0.07249820 28061.92146687 0 226.29838911 0 13251.35834296 0 -212.47791327 0 3600.97469449 0 5916
0.07350000 0.07351270 27228.50757777 0 70.72524984 0 12288.28753023 0 574.62265558 0 2223.37818521 0 5721
0.07450000 0.07449140 27402.67524717 0 326.91592643 0 12803.59352729 0 1926.54022915 0 887.52101879 0 6028
0.07550000 0.07549160 26638.90628118 0 178.17031482 0 10657.66625419 0 292.40681167 0 -678.13782031 0 6183
0.07650000 0.07648840 27193.29758485 0 117.35335629 0 10642.35322896 0 901.17762422 0 -1528.36835634 0 6330
0.07750000 0.07749960 26440.71166693 0 225.18119153 0 10144.70758999 0 1726.93942964 0 -501.07805967 0 6583
0.07850000 0.07848650 25958.62264432 0 563.16058493 0 8446.37904768 0 924.29220951 0 -565.95523971 0 6549
0.07950000 0.07947320 25689.01153499 0 251.62965383 0 9356.65701567 0 1964.26363980 0 767.35972093 0 6828
0.08050000 0.08048110 25362.26722959 0 702.00310922 0 8758.09820830 0 1600.67063741 0 1025.24855998 0 7147
0.08150000 0.08149960 24487.88573866 0 1257.08532596 0 8365.11925584 0 377.79215174 0 1550.10332996 0 7386
0.08250000 0.08250610 23632.21647668 0 869.84183775 0 8554.98748183 0 560.83871841 0 3846.17132760 0 7227
0.08350000 0.08350160 22737.12973834 0 640.16306788 0 9166.60056016 0 -439.30334504 0 3011.01908351 0 7798
0.08450000 0.08449610 22803.89585699 0 445.05541778 0 8154.30219129 0 -1435.57120204 0 2492.45782295 0 7371
0.08550000 0.08548940 22340.51906333 0 195.87496220 0 9797.50162833 0 328.22688969 0 2850.35965039 0 8256
0.08650000 0.08650700 22206.54393303 0 54.44937525 0 8901.85020142 0 -234.16416866 0 2493.27717499 0 8037
0.08750000 0.08749060 22387.68716706 0 -87.20142279 0 9407.89973493 0 861.30286085 0 1063.56434001 0 8155
0.08850000 0.08849210 22450.02435579 0 371.13104113 0 9410.21385082 0 982.56474780 0 1096.50561358 0 8718
0.08950000 0.08949900 21874.15274197 0 642.93004185 0 8947.80034942 0 159.86001127 0 1589.37686609 0 8571
0.09050000 0.09049190 21046.93935477 0 968.11647115 0 10028.51461334 0 421.75371020 0 2288.50559979 0 8932
0.09150000 0.09150830 20487.34405844 0 653.55836644 0 9508.14856384 0 946.51990159 0 3603.62098013 0 9285
0.09250000 0.09250820 20131.14736902 0 306.40333747 0 8856.65297151 0 1326.09912655 0 3022.16891460 0 9204
0.09350000 0.09350330 20049.32288861 0 -95.71072586 0 8492.12989383 0 1568.78234193 0 3628.37869842 0 9349
0.09450000 0.09448040 19714.71723259 0 192.79907037 0 7965.45261918 0 1093.17948720 0 4060.04435380 0 9564
0.09550000 0.09549270 19304.70904456 0 685.20196354 0 7322.01767932 0 710.54430059 0 3807.09709332 0 10155
0.09650000 0.09649430 19014.94630405 0 510.64122661 0 7408.55897011 0 54.76859038 0 4419.62917461 0 9913
0.09750000 0.09749140 18371.86567859 0 269.29665531 0 7160.66068974 0 351.15767439 0 3991.88312222 0 10476
0.09850000 0.09850240 18279.85465934 0 359.64461136 0 7056.79121062 0 609.89576075 0 3341.90443839 0 10575
0.09950000 0.09950330 17784.36812371 0 165.46371486 0 6911.57767062 0 58.89336354 0 2755.56947762 0 10882
0.10050000 0.10051200 17785.25390970 0 383.33385031 0 7056.75799364 0 -292.75669713 0 1757.26652732 0 10875
0.10150000 0.10150300 17541.10914744 0 338.73231148 0 6877.27560833 0 -686.91595942 0 1963.17855197 0 11118
0.10250000 0.10250800 17185.13390452 0 177.26349142 0 6321.33417919 0 -69.32914041 0 342.48140066 0 11575
0.10350000 0.10349800 17324.20230425 0 454.79684916 0 6742.09359462 0 20.95836076 0 820.85787276 0 11364
0.10450000 0.10450100 16518.69067369 0 221.65576331 0 6103.48618838 0 821.42809748 0 185.56441333 0 12093
0.10550000 0.10551000 16609.70518370 0 312.39900136 0 5835.69094032 0 729.77028540 0 549.74092725 0 12067
0.10650000 0.10649700 16195.71095873 0 277.46249486 0 5830.04405466 0 280.71886559 0 -114.94291117 0 12054
0.10750000 0.10749900 16028.85102371 0 311.30616290 0 5342.49637592 0 1227.74366519 0 1054.92681942 0 12807
0.10850000 0.10850100 15548.75501958 0 259.45668024 0 5043.28894235 0 558.34855256 0 818.99218602 0 12736
0.10950000 0.10950300 15514.76298238 0 -16.53352759 0 5025.44035474 0 714.34100077 0 944.66528718 0 12933
0.11050000 0.11050200 15465.60186019 0 43.18073811 0 4792.71115938 0 85.44291616 0 12.94941605 0 13428
0.11150000 0.11150900 15270.28605039 0 316.93311838 0 4749.82804535 0 -435.29848515 0 -145.73615373 0 13453
0.11250000 0.11250000 14970.00460131 0 312.82085694 0 4596.34347872 0 -288.01884935 0 563.99100929 0 13668
0.11350000 0.11349100 14670.60893821 0 612.97386705 0 4810.75904883 0 -26.19623473 0 203.21037740 0 13791
0.11450000 0.11448600 14632.29869434 0 169.57044013 0 4915.07142095 0 289.97975807 0 -80.24512400 0 14205
0.11550000 0.11549300 14482.93303253 0 -252.81771428 0 4769.51463888 0 644.19228688 0 51.01784034 0 14776
0.11650000 0.11649800 14679.68824456 0 13.43394098 0 4896.89066359 0 117.98447880 0 247.83848981 0 14553
0.11750000 0.11747300 14640.71366120 0 269.53692476 0 4820.62449024 0 96.53871431 0 -29.33258146 0 14568
0.11850000 0.11849100 14403.21229384 0 100.39719806 0 5021.84184917 0 84.97865358 0 1333.30721001 0 16015
0.11950000 0.11950300 14564.64678970 0 148.69246445 0 5178.70347488 0 264.23106670 0 1076.90206249 0 15270
0.12050000 0.12050700 14256.61471324 0 180.29066502 0 4993.99495225 0 593.87299951 0 1160.81146166 0 15999
0.12150000 0.12150000 14095.95528012 0 102.08085577 0 5036.61233048 0 385.00909306 0 799.71748298 0 15670
0.12250000 0.12250700 13907.72575821 0 251.12032689 0 4534.79242505 0 207.03808009 0 619.07693249 0 16887
0.12350000 0.12352200 13829.00152874 0 223.49376923 0 4700.81086338 0 -106.52661563 0 490.51616902 0 16407
0.12450000 0.12449800 13505.57892079 0 254.30804920 0 4462.52336096 0 -256.44279343 0 63.86948776 0 16306
0.12550000 0.12549900 13446.67415276 0 147.26302732 0 4401.86916560 0 165.86564025 0 103.36181303 0 17523
0.12650000 0.12650100 13354.99530326 0 -5.56229310 0 4052.13871388 0 162.25716959 0 -423.58839442 0 17154
0.12750000 0.12750600 13328.20027720 0 40.60509391 0 4171.26585660 0 354.44394040 0 403.96823485 0 18007
0.12850000 0.12850300 13169.20169280 0 211.67959865 0 4217.96892269 0 457.34348387 0 -229.83710412 0 17496
0.12950000 0.12949900 13161.11889568 0 168.08231968 0 3932.74583536 0 148.43005036 0 10.99812917 0 18405
0.13050000 0.13049000 12965.58163939 0 322.19247267 0 4594.52761745 0 -17.60997901 0 340.31343946 0 18100
0.13150000 0.13148800 12641.49469194 0 369.68610274 0 4006.16642123 0 -187.92171129 0 394.49364650 0 19059
0.13250000 0.13249300 12438.64970127 0 68.20374931 0 4469.60964884 0 51.18968282 0 727.25243874 0 18957
0.13350000 0.13349100 12556.01634434 0 -32.45652719 0 4329.10184689 0 -82.51583637 0 379.47182342 0 19468
0.13450000 0.13450700 12502.64773872 0 -28.79468792 0 3964.16909320 0 617.18799388 0 38.48263997 0 19953
0.13550000 0.13551000 12501.98339923 0 153.46352922 0 3860.99717054 0 438.47624238 0 -285.65490800 0 19956
0.13650000 0.13649900 12295.70598786 0 93.01760429 0 3235.20044411 0 553.39147274 0 10.17637444 0 19723
0.13750000 0.13749600 12127.96026686 0 168.09782093 0 3229.04423151 0 392.72761069 0 -95.93759779 0 20946
0.13850000 0.13851100 11979.36966779 0 240.32702465 0 3159.21107888 0 -3.82608613 0 -57.51618778 0 20955
0.13950000 0.13949800 11799.11221974 0 374.61660898 0 3356.18773740 0 -54.72430108 0 196.88032930 0 20506
0.14050000 0.14048300 11438.81877014 0 334.07418443 0 3475.39238640 0 -249.27124864 0 566.70926503 0 21447
0.14150000 0.14148400 11315.91596466 0 333.22493711 0 3883.62900247 0 -317.54098901 0 739.91142770 0 21771
0.14250000 0.14249400 11038.78674677 0 402.57644362 0 3987.74207273 0 -208.97573693 0 594.96473074 0 22470
0.14350000 0.14350900 10774.32426848 0 321.98542019 0 4198.80272843 0 87.05504665 0 787.92988598 0 22519
0.14450000 0.14449900 10623.85137419 0 78.90969090 0 4056.78909030 0 183.96446240 0 671.98160771 0 22218
0.14550000 0.14550500 10494.16123359 0 65.58126918 0 4011.96831944 0 413.91893316 0 371.39234800 0 23559
0.14650000 0.14650700 10445.09976232 0 95.60564950 0 3467.76355460 0 433.21467362 0 321.13285118 0 23044
0.14750000 0.14750500 10378.23399274 0 4.57414347 0 3580.41338731 0 310.71932969 0 29.40521591 0 23649
0.14850000 0.14849900 10242.73088161 0 27.40810069 0 3081.60515423 0 417.51079533 0 369.12916480 0 23640
0.14950000 0.14949500 10276.92222065 0 -58.83456950 0 2784.33537750 0 170.12627084 0 -281.36991829 0 24457
0.15050000 0.15050000 10247.76878940 0 10.35626650 0 2627.58447504 0 73.15108549 0 201.88723458 0 24591
0.15150000 0.15149900 10288.43743846 0 136.27817387 0 2836.35315949 0 -3.57296171 0 15.37237289 0 25020
0.15250000 0.15250500 10149.50190664 0 285.71580578 0 2845.37710422 0 -2.35662254 0 414.89108328 0 25297
0.15350000 0.15350100 9996.62631787 0 188.22287852 0 3096.10989974 0 33.42103740 0 583.03319351 0 25452
0.15450000 0.15450400 9721.46797380 0 181.37132392 0 3141.59501009 0 142.00588750 0 613.39129370 0 26061
0.15550000 0.15549900 9769.04575354 0 270.80802765 0 3251.84214831 0 34.17218392 0 420.71734060 0 26128
0.15650000 0.15649500 9529.01989612 0 149.91817081 0 3357.44998243 0 -254.46527621 0 379.24262629 0 26331
0.15750000 0.15749700 9369.20195969 0 139.96747250 0 3579.93727734 0 -299.89613218 0 383.96386560 0 27345
0.15850000 0.15849900 9322.55425523 0 232.45903064 0 3527.80877209 0 -113.16912474 0 -129.91269433 0 26980
0.15950000 0.15949700 9199.44107557 0 54.77556594 0 3459.84684236 0 -178.53680877 0 -393.14171564 0 27777
0.16050000 0.16050000 9096.54596103 0 -10.37157953 0 3203.15713609 0 116.65358536 0 -591.24996576 0 28224
0.16150000 0.16150500 9190.91538546 0 112.16154318 0 3380.42505643 0 238.77357748 0 -444.28146228 0 28075
0.16250000 0.16249700 9080.12570333 0 64.89522793 0 2975.15582342 0 414.57662925 0 -339.76646662 0 28590
0.16350000 0.16349900 8905.41549001 0 141.36701435 0 2946.48957446 0 234.71778490 0 -319.79088541 0 29163
0.16450000 0.16449100 8881.64320863 0 96.59972282 0 2947.85147042 0 348.23790234 0 46.92860934 0 28996
0.16550000 0.16550500 8876.23991412 0 16.66816706 0 3124.39968965 0 -40.22309871 0 34.51498309 0 30777
0.16650000 0.16650700 8804.75698509 0 133.00630188 0 3131.48597753 0 12.73350571 0 164.62775433 0 29211
0.16750000 0.16749900 8730.57240880 0 168.69904817 0 3281.07308583 0 -205.28865277 0 -95.07295995 0 30922
0.16850000 0.16850800 8604.70222026 0 234.86615405 0 3317.97714445 0 -10.06089009 0 439.82928047 0 30867
0.16950000 0.16949900 8427.13534715 0 112.83474053 0 2987.50146559 0 404.81748216 0 317.67496414 0 30852
0.17050000 0.17049200 8378.50569654 0 6.09318893 0 2785.14365721 0 697.36601959 0 637.61864763 0 31257
0.17150000 0.17149500 8304.12181841 0 -3.17339473 0 2310.94920220 0 637.86334601 0 363.07592483 0 32608
0.17250000 0.17250900 8177.29940994 0 145.67193424 0 2159.76767913 0 682.23347326 0 394.21351668 0 32361
0.17350000 0.17350400 8125.08232609 0 134.20986359 0 1682.06329715 0 185.86558057 0 647.48076735 0 32508
0.17450000 0.17449800 7881.04828709 0 72.61728871 0 1631.42955575 0 10.90440194 0 466.27442107 0 32791
0.17550000 0.17549800 7784.73013349 0 65.80670171 0 1535.79788630 0 -39.27331469 0 243.06299612 0 33633
0.17650000 0.17650100 7900.65737435 0 65.48715442 0 1558.20827173 0 -86.58569081 0 166.12362542 0 33984
0.17750000 0.17750300 7745.84412873 0 108.18148530 0 1378.20548715 0 -20.62895909 0 367.09850043 0 34069
0.17850000 0.17849800 7748.56792064 0 -19.22111299 0 1400.21726889 0 248.77742296 0 159.76700374 0 34536
