### header ###
fiducial parameters:
Omega_m = 0.31
Omega_nu = 0
Omega_de = 0.69
Omega_k = 0
H_0 = 100
w_de = -1
zeff = 0
beta = 0
fgrowth = 0
b_1 = 2
gamma = 0.55
Lx = 3500 Ly = 3500 Lz = 3500
nx = 700 ny = 700 nz = 700
xoffset = -685.467585 yoffset = -31.7331281 zoffset = 572.489161
bins = 400 dk = 0.001
kx_ny = 0.628318531 ky_ny = 0.628318531 kz_ny = 0.628318531
############################
A(data) = 8.03014394 (not used)
A(ran) = 8.03014992 (used)
Ngal = 477537
weighted Ngal = 0
Nran = 23820508
weighted Nran = 0
SN(data) = 3485.48216
SN(ran) = 69.9455181
SN(data+ran) = 3555.42768
############################
13 columns: k_central k_mean P_0(k) sigma^{lin}_{P_0(k)} P^img_1(k) sigma^{lin}_{P_1(k)} P_2(k) sigma^{lin}_{P_2(k)} P^img_3(k) sigma^{lin}_{P_3(k)} P_4(k) sigma^{lin}_{P_4(k)} N_modes
### header ###
0.00050000 0 0 0 0 0 0 0 0 0 0 0 0
0.00150000 0.00179520 4564.37767697 0 -13965.30184726 0 -8172.56045492 0 4269.99777701 0 -4357.80131282 0 3
0.00250000 0.00253879 9896.85359892 0 -10953.30839917 0 -8033.58063379 0 3676.02291212 0 1835.12711544 0 6
0.00350000 0.00331552 29326.04879142 0 -25232.49958272 0 -17429.27866678 0 -11475.24671880 0 -17415.88115375 0 7
0.00450000 0.00420575 39169.67772494 0 -16977.19564443 0 -6693.09855730 0 -35399.88329394 0 639.97705282 0 24
0.00550000 0.00557378 63988.62597568 0 -9493.68810763 0 -7492.62006013 0 -45472.93079770 0 -6597.47796016 0 45
0.00650000 0.00659388 62235.76623364 0 -6573.12991789 0 36607.43103866 0 -47863.55644929 0 9942.59337275 0 40
0.00750000 0.00754703 88523.67981807 0 -8927.02866806 0 25567.54813173 0 -24234.77239331 0 -11265.42616348 0 57
0.00850000 0.00846663 78012.05752824 0 -491.39641885 0 42737.73439775 0 12846.00053135 0 -17912.58564511 0 75
0.00950000 0.00948925 85134.44119108 0 11413.90603930 0 27380.41987429 0 21453.40439886 0 -12337.67009892 0 112
0.01050000 0.01054430 69607.83082114 0 8150.49331155 0 22355.46670184 0 23813.58115721 0 7495.01168229 0 105
0.01150000 0.01145670 77802.67986592 0 -14017.23105066 0 -5500.17735366 0 32299.41089822 0 88.32614954 0 144
0.01250000 0.01249090 82998.81118006 0 -17399.27266652 0 3999.87734074 0 11930.20854560 0 -7555.72123927 0 169
0.01350000 0.01339930 90282.18644577 0 -10020.84149224 0 -16134.92389548 0 5202.22109279 0 -16726.85038028 0 180
0.01450000 0.01448870 94103.79935692 0 -1284.72184871 0 -15805.07933913 0 -11691.26777601 0 -8161.29990058 0 267
0.01550000 0.01550050 92136.57940639 0 12098.17571309 0 -3636.67186971 0 -15501.03329961 0 2581.11392777 0 238
0.01650000 0.01653350 87055.26810062 0 4529.04588847 0 -6862.37225913 0 -8171.86289845 0 -18997.89492383 0 315
0.01750000 0.01747870 75829.59158324 0 4156.38465205 0 -1736.36197806 0 -2714.02611490 0 -6460.35828961 0 297
0.01850000 0.01844180 80681.26287227 0 7095.23432239 0 -2889.33423375 0 -16518.91212019 0 -20478.59692183 0 388
0.01950000 0.01947590 77240.42721163 0 2898.49104638 0 10253.00599904 0 -7935.26946173 0 2878.52764473 0 399
0.02050000 0.02045430 71138.46900407 0 6279.77974414 0 8302.07343832 0 1659.16572942 0 -4744.51332944 0 462
0.02150000 0.02154770 68263.42914166 0 3994.06437021 0 12637.39793176 0 -5303.83181765 0 442.46338654 0 571
0.02250000 0.02255340 69011.80757616 0 2661.82010338 0 18739.13469282 0 -6529.57139205 0 -18094.72538838 0 510
0.02350000 0.02348930 63512.95890147 0 3650.84444548 0 24061.04761690 0 -3075.36036303 0 -2767.87083049 0 555
0.02450000 0.02439640 60416.02964970 0 2984.46764859 0 17722.14165823 0 -1990.78185774 0 3606.38906133 0 592
0.02550000 0.02547300 63881.44587144 0 -4953.16021832 0 17301.39331512 0 5460.87060056 0 -10961.64585976 0 837
0.02650000 0.02652900 62986.91274934 0 170.99212664 0 18442.83928067 0 4073.44186683 0 -8803.62760796 0 723
0.02750000 0.02749970 64872.75111245 0 3007.79703699 0 8988.65722800 0 5351.57568227 0 -17810.72025678 0 826
0.02850000 0.02848090 59387.18922755 0 2929.38283262 0 10324.02389043 0 1456.17679852 0 -11590.17745041 0 831
0.02950000 0.02946900 55525.93739354 0 3828.56633114 0 7902.44001864 0 -664.65172868 0 -15503.24776457 0 996
0.03050000 0.03053250 52307.87690825 0 3313.30462338 0 8370.55576732 0 408.71604773 0 -8762.12853454 0 1041
0.03150000 0.03150510 49294.54370885 0 465.43735331 0 8381.88275561 0 1017.36285024 0 -8610.02800850 0 1036
0.03250000 0.03246190 49912.04726399 0 1349.81604632 0 10065.90585426 0 2244.40453004 0 -12502.09412248 0 1059
0.03350000 0.03345080 51721.92947885 0 -229.68762774 0 11038.49886633 0 -4491.65464756 0 -17376.24223089 0 1302
0.03450000 0.03451200 47851.37689199 0 2408.68461337 0 10852.80490679 0 -8096.01747345 0 -10163.36445731 0 1339
0.03550000 0.03553350 49974.16300622 0 2161.84927619 0 16927.59162924 0 -6520.44779640 0 -11785.38253697 0 1365
0.03650000 0.03647120 48448.06447647 0 -805.43966045 0 17208.71795639 0 -2719.85015775 0 -9149.69312016 0 1308
0.03750000 0.03744890 51250.02699508 0 -641.35998619 0 18403.42180432 0 -2502.92116990 0 -10318.24413687 0 1579
0.03850000 0.03847530 51222.89979927 0 -1078.85854228 0 20949.72434286 0 3758.45637039 0 -7002.12714299 0 1662
0.03950000 0.03950240 53735.76391686 0 -1655.73330873 0 21565.23487953 0 1843.91854135 0 -6586.79316671 0 1683
0.04050000 0.04050350 53000.11865591 0 1159.83709708 0 18858.93724736 0 5014.72234431 0 -4187.78576523 0 1822
0.04150000 0.04152450 54778.88763803 0 -1340.42671487 0 18678.34762957 0 5183.23205573 0 -6100.83990275 0 1887
0.04250000 0.04250150 49772.75741777 0 1509.13572813 0 21747.70679254 0 3515.67350409 0 4048.48484669 0 1920
0.04350000 0.04349210 53626.70151740 0 4458.40445613 0 19728.88980836 0 3299.53065131 0 1504.35248381 0 2005
0.04450000 0.04448520 46077.14756305 0 2594.84361055 0 21077.16680153 0 3354.46045473 0 8400.77214175 0 2151
0.04550000 0.04548030 44898.27713961 0 2942.76927333 0 15425.40932110 0 204.52909128 0 6212.70360039 0 2274
0.04650000 0.04648670 44185.77303753 0 1208.55532628 0 18718.98306165 0 1565.67101866 0 6562.42297979 0 2311
0.04750000 0.04749250 41942.29858278 0 789.01940274 0 19080.38374373 0 -975.98446516 0 6216.61213105 0 2568
0.04850000 0.04851840 42285.09775916 0 700.00898352 0 21482.41388989 0 1273.82668109 0 3847.14569219 0 2493
0.04950000 0.04949480 40369.58556554 0 932.16573969 0 17125.12190401 0 871.68648707 0 3485.40176804 0 2644
0.05050000 0.05050630 39778.10197372 0 1079.92812886 0 15395.62476733 0 3426.70737417 0 2312.87578672 0 2829
0.05150000 0.05149060 39530.19262103 0 289.77159836 0 12943.99060599 0 2085.18449915 0 -488.27291602 0 2784
0.05250000 0.05249300 37842.21670243 0 -460.62532094 0 13439.47714162 0 1746.88068664 0 -2624.98247871 0 3055
0.05350000 0.05348950 37918.39429718 0 1374.04229302 0 11573.56896319 0 378.98796282 0 -3760.23901469 0 3009
0.05450000 0.05448610 36779.38424309 0 1732.54202600 0 9204.33504314 0 1047.86156895 0 -3700.39309904 0 3336
0.05550000 0.05550870 35617.23303013 0 1557.78752338 0 9807.20098487 0 -1468.82139347 0 -875.40900267 0 3349
0.05650000 0.05647670 35511.38160486 0 873.64961026 0 9478.49687798 0 791.52506985 0 -1860.81490902 0 3324
0.05750000 0.05747970 34109.73600607 0 220.24736360 0 10283.26666277 0 1039.85517088 0 1319.45573166 0 3639
0.05850000 0.05849280 34480.65888749 0 83.84983007 0 10484.72761285 0 2321.75579122 0 257.29314797 0 3846
0.05950000 0.05951020 34175.61633874 0 201.57388779 0 11835.09727540 0 1101.11612963 0 1616.13867518 0 3787
0.06050000 0.06049470 33508.84093816 0 1027.91034686 0 12388.15990009 0 103.02200338 0 3103.76087619 0 3930
0.06150000 0.06148310 33918.62767970 0 120.44364214 0 11346.47558116 0 780.13275484 0 3004.82965393 0 4083
0.06250000 0.06249100 33796.05704395 0 -202.29248167 0 10550.81831969 0 720.91574724 0 4840.79826606 0 4303
0.06350000 0.06350600 33468.31622932 0 316.45922287 0 10392.90482312 0 -1659.73041799 0 -609.79057367 0 4470
0.06450000 0.06451750 33008.37185636 0 1887.18918674 0 10713.74757939 0 -1240.36611548 0 -1159.32777014 0 4479
0.06550000 0.06550280 31103.71054105 0 2306.84136969 0 10718.16543700 0 -1478.86399208 0 -2230.80771516 0 4636
0.06650000 0.06648880 29475.08228348 0 451.57148094 0 10541.82759194 0 554.56181747 0 -2383.19612164 0 4653
0.06750000 0.06749660 30618.63199075 0 -878.54911399 0 11246.82465779 0 1629.62476681 0 -3614.49400310 0 5220
0.06850000 0.06852730 30358.65380401 0 -16.35847413 0 11183.15879008 0 1453.97340589 0 -3181.43323479 0 5029
0.06950000 0.06949320 30061.91549887 0 955.17845960 0 10504.22597685 0 58.75628816 0 -1492.62689183 0 5040
0.07050000 0.07048030 29548.71324352 0 676.28652760 0 12331.35887377 0 -516.15192268 0 1002.05425395 0 5475
0.07150000 0.07148790 29170.37190447 0 719.28479380 0 13787.48031067 0 -507.55536969 0 906.59199106 0 5509
0.07250000 0.07249820 28850.49244046 0 1489.10589253 0 15282.02271470 0 -159.51455473 0 1349.30671937 0 5916
0.07350000 0.07351270 28111.30403556 0 -29.62832326 0 14600.74256860 0 -96.27995408 0 3240.31585818 0 5721
0.07450000 0.07449140 27970.13189413 0 135.88399910 0 15160.55931144 0 1502.62520114 0 2512.95269619 0 6028
0.07550000 0.07549160 28138.98484761 0 -358.54291504 0 12351.06761195 0 3538.30533602 0 497.79068643 0 6183
0.07650000 0.07648840 28430.85132983 0 -144.57577409 0 11717.17701608 0 3024.10657144 0 1046.97689020 0 6330
0.07750000 0.07749960 27787.10636487 0 814.49128598 0 9660.61447659 0 2050.69420734 0 859.20576253 0 6583
0.07850000 0.07848650 26891.24456380 0 1065.17979220 0 9609.24996176 0 -436.24627616 0 528.55956987 0 6549
0.07950000 0.07947320 25990.73238630 0 1148.62083204 0 10235.84389557 0 -501.34047377 0 1280.22648483 0 6828
0.08050000 0.08048110 24843.52881184 0 623.12829614 0 9917.02737474 0 -574.00592709 0 1287.09132622 0 7147
0.08150000 0.08149960 25024.45059937 0 -222.28467136 0 10577.77943062 0 -433.19252897 0 679.21072858 0 7386
0.08250000 0.08250610 24909.85203750 0 452.20703238 0 11649.96800444 0 -627.99679737 0 1087.85591343 0 7227
0.08350000 0.08350160 25132.62721285 0 636.76386416 0 11055.35094470 0 1024.24983628 0 1393.96140537 0 7798
0.08450000 0.08449610 24088.72842895 0 540.97164599 0 10468.69488651 0 1934.39050744 0 1490.71137963 0 7371
0.08550000 0.08548940 23515.84634283 0 356.65508366 0 9282.45029474 0 1631.86137642 0 884.41523168 0 8256
0.08650000 0.08650700 23277.79135923 0 720.68765735 0 9802.73883797 0 1317.99418479 0 1215.09907025 0 8037
0.08750000 0.08749060 21805.39360485 0 1064.02937765 0 7824.55728587 0 895.51966624 0 1113.31118819 0 8155
0.08850000 0.08849210 21068.86255791 0 989.66100078 0 7803.34271151 0 569.90584521 0 1108.27328040 0 8718
0.08950000 0.08949900 20341.96443357 0 89.14494796 0 6675.51570549 0 1121.84795063 0 1486.92464455 0 8571
0.09050000 0.09049190 20898.90237195 0 -768.72050965 0 6289.52338998 0 1435.42726181 0 1034.60910338 0 8932
0.09150000 0.09150830 21223.65365888 0 -357.98154818 0 6100.69596253 0 1022.50705235 0 1376.30104728 0 9285
0.09250000 0.09250820 21157.99477270 0 149.87609598 0 5694.13126751 0 462.20755616 0 2057.70298895 0 9204
0.09350000 0.09350330 21229.85416078 0 544.32766764 0 5427.17751613 0 -197.51809521 0 2337.58921571 0 9349
0.09450000 0.09448040 20806.66990621 0 781.17244614 0 6551.56102914 0 -383.76124205 0 3416.28831652 0 9564
0.09550000 0.09549270 19907.70785418 0 1127.64984883 0 6960.48412934 0 -390.35259702 0 3123.49175902 0 10155
0.09650000 0.09649430 19091.01317556 0 1037.96955396 0 7300.54844150 0 -319.69677065 0 4513.35640420 0 9913
0.09750000 0.09749140 18435.08865330 0 331.71688647 0 7259.65834594 0 662.37747316 0 3368.63303050 0 10476
0.09850000 0.09850240 18302.66364847 0 340.54263659 0 7761.35645580 0 985.43358716 0 3300.78182401 0 10575
0.09950000 0.09950330 17730.22445535 0 496.38228671 0 7015.58001764 0 989.26239708 0 2277.38898567 0 10882
0.10050000 0.10051200 17178.93340263 0 159.39608086 0 6543.04641136 0 90.98251099 0 1956.90054380 0 10875
0.10150000 0.10150300 17266.51549194 0 272.18099592 0 6004.73212332 0 361.65202385 0 1828.27334638 0 11118
0.10250000 0.10250800 17024.36374816 0 -26.14286613 0 5681.07699655 0 -539.18346553 0 392.62906700 0 11575
0.10350000 0.10349800 16944.42156297 0 112.71183772 0 5325.94325032 0 198.23226016 0 121.66159787 0 11364
0.10450000 0.10450100 16666.17404027 0 271.15348418 0 5344.26794789 0 -223.65874687 0 295.65986070 0 12093
0.10550000 0.10551000 16801.03495657 0 86.90855980 0 4940.80350382 0 331.93168958 0 -258.15236038 0 12067
0.10650000 0.10649700 16407.63525576 0 310.98395825 0 5188.38068677 0 490.46080740 0 -1029.24677647 0 12054
0.10750000 0.10749900 16481.93055529 0 303.94085243 0 5317.38434323 0 212.24096552 0 -1186.96429288 0 12807
0.10850000 0.10850100 15867.63797435 0 119.01641948 0 4797.56083765 0 -376.40478944 0 -1099.76309154 0 12736
0.10950000 0.10950300 15959.53827035 0 279.80872049 0 5217.20194827 0 -289.53797231 0 -574.67026657 0 12933
0.11050000 0.11050200 15863.87338392 0 167.96606027 0 5347.51213906 0 94.73835429 0 -405.43642512 0 13428
0.11150000 0.11150900 15612.64233378 0 278.46675472 0 5393.42907009 0 297.01068433 0 -430.52409869 0 13453
0.11250000 0.11250000 15252.12743769 0 436.55408679 0 5304.42972319 0 487.86545446 0 208.93034040 0 13668
0.11350000 0.11349100 15125.34931851 0 105.91276595 0 5082.72856335 0 419.22589845 0 -187.04589039 0 13791
0.11450000 0.11448600 14762.61995745 0 324.71585549 0 5358.42945133 0 197.27450406 0 1179.26902713 0 14205
0.11550000 0.11549300 14748.55810493 0 269.67311435 0 5113.00029940 0 579.66720677 0 1178.84827879 0 14776
0.11650000 0.11649800 14688.54610442 0 -67.03030433 0 5405.88543551 0 338.56733384 0 1956.32478291 0 14553
0.11750000 0.11747300 14601.73907784 0 154.71138023 0 5468.53264933 0 339.32025193 0 1851.46986687 0 14568
0.11850000 0.11849100 14823.51774396 0 17.23086261 0 5103.77705283 0 447.73381316 0 2068.37671007 0 16015
0.11950000 0.11950300 14301.56835200 0 161.53857571 0 5153.24820012 0 305.13666351 0 1992.08839207 0 15270
0.12050000 0.12050700 14442.74049344 0 308.19151793 0 5071.61194923 0 181.96258607 0 1640.57529605 0 15999
0.12150000 0.12150000 14077.90739067 0 179.75919343 0 4890.53514915 0 83.50049822 0 2020.10137386 0 15670
0.12250000 0.12250700 13802.53867243 0 255.33223925 0 4223.69331462 0 672.78988742 0 1150.86851397 0 16887
0.12350000 0.12352200 13703.77353505 0 92.87299973 0 3838.02209654 0 698.36142159 0 1352.51769357 0 16407
0.12450000 0.12449800 13441.69160659 0 31.93967106 0 3459.73611911 0 523.68774695 0 874.73691256 0 16306
0.12550000 0.12549900 13453.09610115 0 92.82217776 0 3174.81198455 0 353.94568578 0 633.90056096 0 17523
0.12650000 0.12650100 13228.21718408 0 131.64329870 0 3347.39631150 0 -450.67905156 0 285.90403530 0 17154
0.12750000 0.12750600 13264.75585599 0 295.01434417 0 3559.01058343 0 -271.08483577 0 840.59539898 0 18007
0.12850000 0.12850300 13043.08791312 0 278.70813141 0 3965.20989173 0 -188.57497845 0 1348.99669428 0 17496
0.12950000 0.12949900 12993.70534443 0 163.55041713 0 4247.38808973 0 -55.52438727 0 990.51356979 0 18405
0.13050000 0.13049000 13016.95722655 0 -79.37506071 0 4484.66801060 0 123.16743405 0 1191.31571654 0 18100
0.13150000 0.13148800 12975.54673172 0 76.72788930 0 4180.33409063 0 222.27359904 0 664.44799790 0 19059
0.13250000 0.13249300 12991.04798647 0 349.79245674 0 4309.38203639 0 105.29515167 0 802.33719503 0 18957
0.13350000 0.13349100 12543.94751029 0 110.73210605 0 3640.82399152 0 170.65774243 0 507.16119492 0 19468
0.13450000 0.13450700 12627.10066968 0 178.31979120 0 4008.46946480 0 46.19971820 0 611.87881413 0 19953
0.13550000 0.13551000 12225.28600201 0 306.13206552 0 3442.95047468 0 358.67689018 0 27.88731090 0 19956
0.13650000 0.13649900 12165.05255500 0 289.55015187 0 3759.06534826 0 -145.55788930 0 -127.99275321 0 19723
0.13750000 0.13749600 11659.15803403 0 313.74096713 0 3645.49651259 0 -15.50059041 0 30.99099427 0 20946
0.13850000 0.13851100 11644.87473502 0 276.88784120 0 3904.94322774 0 -181.38128902 0 39.63781562 0 20955
0.13950000 0.13949800 11540.79488172 0 147.99269353 0 4063.98610144 0 -92.65376770 0 267.89822068 0 20506
0.14050000 0.14048300 11438.04370741 0 97.68724656 0 4428.94099978 0 -130.40430555 0 215.20613411 0 21447
0.14150000 0.14148400 11378.80676963 0 261.32125974 0 4427.26907874 0 -76.72179952 0 361.65866725 0 21771
0.14250000 0.14249400 11148.50241340 0 154.80770945 0 4252.75816727 0 102.32289679 0 491.32998490 0 22470
0.14350000 0.14350900 11037.33627222 0 4.09227589 0 4124.60707982 0 353.84271316 0 326.97018082 0 22519
0.14450000 0.14449900 11188.91639899 0 -143.39324980 0 3876.76416108 0 402.26309682 0 403.84533204 0 22218
0.14550000 0.14550500 11191.68448019 0 -101.41064795 0 3467.47567416 0 317.30514849 0 238.23214080 0 23559
0.14650000 0.14650700 11349.02221586 0 -96.74886703 0 3268.59457576 0 504.85150797 0 552.93750742 0 23044
0.14750000 0.14750500 11119.82509212 0 172.70833699 0 2943.02393680 0 185.58434352 0 -124.43742971 0 23649
0.14850000 0.14849900 10930.89801374 0 444.32242988 0 3093.45254178 0 83.62041150 0 268.67992682 0 23640
0.14950000 0.14949500 10459.23912111 0 515.76771300 0 3217.66188160 0 -100.80764914 0 256.53801542 0 24457
0.15050000 0.15050000 10143.78858703 0 409.26412781 0 3204.45259809 0 145.58999904 0 371.42667220 0 24591
0.15150000 0.15149900 9892.40252435 0 266.47210525 0 3196.86805559 0 113.46364858 0 441.13581480 0 25020
0.15250000 0.15250500 9618.37355741 0 60.98237906 0 3141.70573334 0 402.09811918 0 332.92487711 0 25297
0.15350000 0.15350100 9576.46480797 0 49.08339447 0 2789.32899599 0 204.96976981 0 255.04878773 0 25452
0.15450000 0.15450400 9664.11333124 0 -27.25928864 0 2832.62178603 0 184.03421804 0 366.98224102 0 26061
0.15550000 0.15549900 9491.88331868 0 121.12126842 0 2649.36373796 0 315.69523246 0 456.38240607 0 26128
0.15650000 0.15649500 9469.57258417 0 74.61141441 0 2533.84617312 0 203.36649718 0 195.07000419 0 26331
0.15750000 0.15749700 9442.30144814 0 121.28070990 0 2322.53085396 0 222.04108022 0 389.83109052 0 27345
0.15850000 0.15849900 9289.24870218 0 148.66699811 0 2321.54541705 0 9.66313897 0 363.83880801 0 26980
0.15950000 0.15949700 9169.94440226 0 173.25309537 0 2230.50876239 0 121.38589699 0 636.00540991 0 27777
0.16050000 0.16050000 8998.45623546 0 176.96896758 0 2182.26664316 0 -15.91724199 0 426.58124382 0 28224
0.16150000 0.16150500 8904.74007820 0 40.95221130 0 2274.80913399 0 -65.65921834 0 311.38588364 0 28075
0.16250000 0.16249700 8870.02833989 0 175.85619893 0 2474.28813792 0 -122.22739367 0 564.77825158 0 28590
0.16350000 0.16349900 8716.12302491 0 209.63343302 0 2062.32014840 0 -88.02343218 0 330.46017761 0 29163
0.16450000 0.16449100 8583.44335661 0 7.22005264 0 2469.74848475 0 284.97506725 0 369.98394828 0 28996
0.16550000 0.16550500 8623.87948685 0 53.15535265 0 2306.02201765 0 157.53371582 0 206.10911203 0 30777
0.16650000 0.16650700 8585.22600091 0 27.01901919 0 2110.67299088 0 19.54852164 0 350.04490575 0 29211
0.16750000 0.16749900 8523.99604466 0 119.61653948 0 2273.07077899 0 111.16281948 0 -46.26482347 0 30922
0.16850000 0.16850800 8435.07420404 0 153.39377357 0 2237.19644658 0 -308.83371277 0 16.94918266 0 30867
0.16950000 0.16949900 8277.80290232 0 171.35640613 0 2293.73173711 0 -126.47584471 0 -82.51030021 0 30852
0.17050000 0.17049200 8251.97116852 0 89.18635846 0 2212.26157109 0 -98.50593426 0 -185.07833827 0 31257
0.17150000 0.17149500 8275.35591853 0 -31.46699352 0 2349.22622910 0 -21.47787424 0 -20.14465561 0 32608
0.17250000 0.17250900 8246.29106588 0 -32.50668482 0 2215.33967739 0 70.34303319 0 -365.19627503 0 32361
0.17350000 0.17350400 8340.59405636 0 14.55767123 0 2154.02114254 0 432.91350639 0 -33.67559015 0 32508
0.17450000 0.17449800 8197.27388391 0 88.68566793 0 2011.35423726 0 267.20730762 0 149.97353244 0 32791
0.17550000 0.17549800 8260.85117302 0 57.34921712 0 1997.01557662 0 472.05306739 0 650.55665918 0 33633
0.17650000 0.17650100 8224.98791293 0 31.16062229 0 1957.84169141 0 326.32466429 0 522.35906797 0 33984
0.17750000 0.17750300 8084.46903866 0 193.55752462 0 1993.37278175 0 131.34766763 0 571.51686847 0 34069
0.17850000 0.17849800 8109.13817836 0 163.42640709 0 2067.40234549 0 -357.63609164 0 584.07399204 0 34536
