### header ###
fiducial parameters:
Omega_m = 0.31
Omega_nu = 0
Omega_de = 0.69
Omega_k = 0
H_0 = 100
w_de = -1
zeff = 0
beta = 0
fgrowth = 0
b_1 = 2
gamma = 0.55
Lx = 3500 Ly = 3500 Lz = 3500
nx = 700 ny = 700 nz = 700
xoffset = -685.467585 yoffset = -31.7331281 zoffset = 572.489161
bins = 400 dk = 0.001
kx_ny = 0.628318531 ky_ny = 0.628318531 kz_ny = 0.628318531
############################
A(data) = 8.02881196 (not used)
A(ran) = 8.02111348 (used)
Ngal = 476738
weighted Ngal = 0
Nran = 23820508
weighted Nran = 0
SN(data) = 3491.78349
SN(ran) = 69.8668074
SN(data+ran) = 3561.6503
############################
13 columns: k_central k_mean P_0(k) sigma^{lin}_{P_0(k)} P^img_1(k) sigma^{lin}_{P_1(k)} P_2(k) sigma^{lin}_{P_2(k)} P^img_3(k) sigma^{lin}_{P_3(k)} P_4(k) sigma^{lin}_{P_4(k)} N_modes
### header ###
0.00050000 0 0 0 0 0 0 0 0 0 0 0 0
0.00150000 0.00179520 12803.03991105 0 -21455.84031032 0 2105.36934729 0 -64111.30733467 0 -33361.13612508 0 3
0.00250000 0.00253879 14839.79406144 0 -9933.92374242 0 -10137.88703790 0 31804.14580908 0 48226.50725685 0 6
0.00350000 0.00331552 26437.94358572 0 -12792.18903273 0 -258.45352761 0 -34233.19242779 0 -31855.18922649 0 7
0.00450000 0.00420575 26351.46872889 0 -7770.54648540 0 -26297.76795352 0 21335.92703254 0 23834.06495812 0 24
0.00550000 0.00557378 51457.19019243 0 -35205.89616311 0 -39389.57409584 0 5155.65089461 0 -19703.75563102 0 45
0.00650000 0.00659388 71590.44130317 0 -32694.02855475 0 -67016.24247409 0 -27884.21065353 0 -17373.14197995 0 40
0.00750000 0.00754703 79908.96821617 0 9992.67349790 0 -27567.32071722 0 -36815.70146850 0 -31396.01991626 0 57
0.00850000 0.00846663 80339.57092837 0 14084.99367855 0 -41441.82950097 0 -42261.40298405 0 23739.61802742 0 75
0.00950000 0.00948925 58773.11809310 0 2620.57569343 0 -22597.72916887 0 -31366.34608575 0 2537.86542703 0 112
0.01050000 0.01054430 69248.31243428 0 -9183.07617949 0 -11928.43697362 0 -18046.00715917 0 -7102.20988702 0 105
0.01150000 0.01145670 78580.73213093 0 -13400.61328151 0 -1624.77508854 0 -21356.41083345 0 -45468.61259102 0 144
0.01250000 0.01249090 81922.02759145 0 3833.24992454 0 7055.26322979 0 -20490.99792563 0 -18202.34838561 0 169
0.01350000 0.01339930 80347.43227899 0 12696.63486954 0 17610.75407055 0 -43232.77804039 0 -38966.16839477 0 180
0.01450000 0.01448870 67233.37076378 0 5329.71891308 0 22602.37954530 0 -11192.90243592 0 -33198.04078050 0 267
0.01550000 0.01550050 65975.22249464 0 -4725.07032706 0 21044.50344331 0 -6032.45722467 0 -32459.51671510 0 238
0.01650000 0.01653350 66441.58881600 0 -1189.55521689 0 20216.29354688 0 8622.40686765 0 -48547.16178360 0 315
0.01750000 0.01747870 81244.29058930 0 -4314.74104160 0 12943.65843625 0 -5851.42471388 0 -48817.21578592 0 297
0.01850000 0.01844180 67607.61534265 0 1291.53132847 0 1642.03684293 0 7038.80975511 0 -39624.63955174 0 388
0.01950000 0.01947590 71120.86400761 0 -372.72767037 0 4849.19108828 0 860.05722431 0 -26830.23605405 0 399
0.02050000 0.02045430 69207.01266271 0 -729.81568193 0 9002.56406797 0 -6761.00512541 0 -23774.16368085 0 462
0.02150000 0.02154770 68311.59375462 0 4870.71568772 0 10683.29868614 0 -1391.59192786 0 -15436.03875292 0 571
0.02250000 0.02255340 70099.22059659 0 1183.32149802 0 20759.05890949 0 -12606.50614552 0 -8083.17357666 0 510
0.02350000 0.02348930 68893.66587034 0 454.83670953 0 25289.96494853 0 -4404.30507706 0 3666.96575041 0 555
0.02450000 0.02439640 67592.55698090 0 5366.15793406 0 32881.59373718 0 -6645.00037829 0 6727.63313841 0 592
0.02550000 0.02547300 67062.19262209 0 3611.37160750 0 37259.14807748 0 1951.17615187 0 554.99031644 0 837
0.02650000 0.02652900 68395.41125350 0 3924.29765152 0 42433.46691173 0 6150.13389284 0 -4138.15960540 0 723
0.02750000 0.02749970 58605.59381860 0 4499.43849190 0 33463.66585290 0 5119.55511570 0 -3363.80549688 0 826
0.02850000 0.02848090 59409.66604693 0 4748.94225937 0 29395.58299128 0 12904.57312964 0 -3914.84188613 0 831
0.02950000 0.02946900 55193.43547924 0 -1641.02926137 0 23554.59947970 0 2923.24876467 0 -14749.44389092 0 996
0.03050000 0.03053250 58120.18309855 0 -1608.50984338 0 24049.75384559 0 6374.75814644 0 -17831.53622744 0 1041
0.03150000 0.03150510 57292.52681836 0 86.57018955 0 18171.45659937 0 -2218.45100066 0 -12268.13589906 0 1036
0.03250000 0.03246190 57214.13475864 0 2486.33482733 0 23031.32140877 0 -766.90575561 0 -9974.57024683 0 1059
0.03350000 0.03345080 55037.98003878 0 566.67715529 0 19753.58109271 0 2065.94079861 0 -2651.30139480 0 1302
0.03450000 0.03451200 56587.66262040 0 -799.34656010 0 23635.87034387 0 7885.77616979 0 -5731.26784495 0 1339
0.03550000 0.03553350 54887.50714450 0 1687.32265144 0 22127.04464083 0 3020.87345260 0 3204.30865787 0 1365
0.03650000 0.03647120 55820.46123372 0 4271.40396226 0 23087.56881885 0 531.02980553 0 699.87833009 0 1308
0.03750000 0.03744890 53294.97466583 0 3217.14148233 0 24916.93832539 0 -4740.52729250 0 14062.07396618 0 1579
0.03850000 0.03847530 52166.48332031 0 630.94867916 0 24064.25859110 0 4423.01730601 0 12023.65896706 0 1662
0.03950000 0.03950240 49422.20761401 0 327.08644024 0 21215.23869202 0 7781.60773789 0 5306.66633281 0 1683
0.04050000 0.04050350 51260.10281066 0 586.87196853 0 17847.48037518 0 5230.96484802 0 -839.39626620 0 1822
0.04150000 0.04152450 45776.20177448 0 2726.33854010 0 14634.51315930 0 2656.49431514 0 -1593.98295322 0 1887
0.04250000 0.04250150 44380.09233810 0 4358.52101394 0 10524.98658589 0 1993.92639799 0 2542.65974368 0 1920
0.04350000 0.04349210 42510.08739948 0 -511.69752640 0 12398.23571568 0 2615.58207493 0 2287.79697100 0 2005
0.04450000 0.04448520 41710.33337783 0 807.93757692 0 12901.25143219 0 -2002.99463202 0 934.04914214 0 2151
0.04550000 0.04548030 40945.67862585 0 2969.84110751 0 15095.67548800 0 -3093.64077130 0 3712.91589841 0 2274
0.04650000 0.04648670 37563.41556350 0 3249.81591287 0 16262.69852388 0 -2040.08692016 0 7751.32492952 0 2311
0.04750000 0.04749250 38704.75080580 0 -764.96809877 0 19894.53178765 0 2001.12340912 0 8683.47073902 0 2568
0.04850000 0.04851840 39098.15050661 0 -697.01724136 0 20521.44681888 0 3040.85899889 0 5469.92776226 0 2493
0.04950000 0.04949480 39025.40533255 0 51.86896995 0 19842.49186100 0 4962.18416305 0 6151.20790835 0 2644
0.05050000 0.05050630 38424.84243439 0 374.19143171 0 16713.23142075 0 598.10705652 0 3945.00289893 0 2829
0.05150000 0.05149060 37629.84951241 0 1727.34910566 0 14685.99946971 0 1221.42136772 0 4248.07457387 0 2784
0.05250000 0.05249300 38177.70814444 0 309.29653595 0 16647.68325783 0 -751.85625172 0 4230.77960250 0 3055
0.05350000 0.05348950 37636.27146081 0 -606.48991364 0 16208.22268578 0 504.93565763 0 4396.83125781 0 3009
0.05450000 0.05448610 37736.58672366 0 958.67067084 0 17001.66548228 0 -403.03262340 0 2474.49851210 0 3336
0.05550000 0.05550870 37253.50119182 0 655.92895119 0 18012.23656848 0 1233.55663572 0 3051.76523884 0 3349
0.05650000 0.05647670 36158.78043701 0 1288.66359634 0 19323.31055025 0 793.56016315 0 4237.54479297 0 3324
0.05750000 0.05747970 37292.91866818 0 -377.50427130 0 18522.67074262 0 2116.33094886 0 4017.81450694 0 3639
0.05850000 0.05849280 34491.17759607 0 1039.08232261 0 16839.34520044 0 2489.10290853 0 4364.76580513 0 3846
0.05950000 0.05951020 35174.22931413 0 1051.61397984 0 15607.65978761 0 1936.90392518 0 1457.01829521 0 3787
0.06050000 0.06049470 33943.76185703 0 47.41003402 0 13661.58797749 0 2997.71014908 0 2215.87114898 0 3930
0.06150000 0.06148310 33427.68079724 0 661.88586194 0 12651.68123078 0 1870.03815560 0 1194.28309959 0 4083
0.06250000 0.06249100 32647.96768351 0 524.33104902 0 12086.77121853 0 -378.55614215 0 96.92757436 0 4303
0.06350000 0.06350600 33111.12303067 0 -5.20720364 0 12275.44363344 0 756.27632379 0 -1129.32176988 0 4470
0.06450000 0.06451750 32671.33028888 0 263.89889696 0 12402.55392236 0 1100.03989966 0 -358.08119910 0 4479
0.06550000 0.06550280 33077.79533297 0 -542.35790106 0 12080.68143988 0 -452.88798036 0 -2359.44598490 0 4636
0.06650000 0.06648880 33214.31709798 0 207.68359662 0 12305.44963370 0 614.59042648 0 -1012.15775034 0 4653
0.06750000 0.06749660 33206.01285437 0 1193.10943316 0 11964.20058279 0 172.27540909 0 -2548.69416070 0 5220
0.06850000 0.06852730 31164.38688106 0 1745.00946374 0 10693.48522498 0 280.39998264 0 -1298.66190565 0 5029
0.06950000 0.06949320 29793.96523825 0 2029.73429645 0 10381.44496694 0 -76.19243167 0 -1369.71301402 0 5040
0.07050000 0.07048030 29142.58036917 0 642.42071491 0 10904.59016997 0 -0.03793135 0 -1.84822568 0 5475
0.07150000 0.07148790 29067.95289990 0 305.36032448 0 11075.31434635 0 858.58460511 0 -1198.53487232 0 5509
0.07250000 0.07249820 28301.19440620 0 191.37184770 0 11045.71802211 0 538.22903113 0 -424.86171178 0 5916
0.07350000 0.07351270 28469.71518994 0 -84.96171292 0 11200.32089355 0 1809.00750120 0 1210.51512777 0 5721
0.07450000 0.07449140 28469.27229695 0 19.84813875 0 10836.66145721 0 747.46164600 0 881.63829261 0 6028
0.07550000 0.07549160 28279.38192631 0 304.98275820 0 10893.40712190 0 672.32263531 0 -763.87747477 0 6183
0.07650000 0.07648840 27852.65452780 0 994.28591085 0 11864.43893617 0 475.93834617 0 673.45865584 0 6330
0.07750000 0.07749960 26458.20594014 0 1163.76777239 0 10691.69150836 0 -121.36596680 0 1781.31561682 0 6583
0.07850000 0.07848650 26383.02485462 0 669.22902776 0 10634.06005767 0 1560.44488134 0 877.53488904 0 6549
0.07950000 0.07947320 25400.68819671 0 4.02994977 0 9754.21991061 0 959.63617757 0 217.41063398 0 6828
0.08050000 0.08048110 25660.44493696 0 556.24038191 0 10525.72843165 0 1322.53383796 0 633.67690000 0 7147
0.08150000 0.08149960 24981.26853258 0 735.02853246 0 9101.19633746 0 -280.35790780 0 1237.39873243 0 7386
0.08250000 0.08250610 24549.33714141 0 605.02172337 0 8924.98028797 0 1121.41612996 0 2087.28824086 0 7227
0.08350000 0.08350160 24048.31444336 0 -271.53105046 0 7527.52002796 0 985.34500856 0 2024.39743589 0 7798
0.08450000 0.08449610 24358.22881504 0 23.17127559 0 7846.30333181 0 1686.17112966 0 782.98055678 0 7371
0.08550000 0.08548940 23902.49192550 0 757.56846409 0 7362.71954536 0 516.07220194 0 443.03361127 0 8256
0.08650000 0.08650700 22811.20359138 0 1207.80240819 0 6757.89380214 0 -52.05775309 0 1906.51039355 0 8037
0.08750000 0.08749060 22034.70145184 0 644.63407264 0 6705.67671829 0 974.38119253 0 3232.49879685 0 8155
0.08850000 0.08849210 21449.86125492 0 454.72598628 0 6811.62779448 0 707.71753606 0 2012.26216789 0 8718
0.08950000 0.08949900 21342.23825769 0 403.99480843 0 7042.36397138 0 527.42908550 0 1983.42983406 0 8571
0.09050000 0.09049190 20583.23039137 0 605.24095540 0 6803.16853832 0 64.05517065 0 1790.76030989 0 8932
0.09150000 0.09150830 20340.41430809 0 786.50487777 0 7234.20307119 0 -669.82804053 0 2549.55780204 0 9285
0.09250000 0.09250820 19649.16906967 0 515.45215175 0 6508.75542139 0 276.51248939 0 1889.55866425 0 9204
0.09350000 0.09350330 19118.02964812 0 429.34932503 0 6866.62403186 0 490.61914164 0 1799.46315720 0 9349
0.09450000 0.09448040 18830.92426557 0 263.90221866 0 6511.30205610 0 655.65103583 0 1116.57752401 0 9564
0.09550000 0.09549270 18698.94215373 0 102.70400621 0 6583.74827739 0 297.12583651 0 67.31497380 0 10155
0.09650000 0.09649430 18493.77197484 0 466.35414180 0 6910.35971489 0 86.81854180 0 242.51602327 0 9913
0.09750000 0.09749140 18002.82509238 0 647.00133569 0 7023.79568266 0 -748.17581095 0 471.38540620 0 10476
0.09850000 0.09850240 17693.68578345 0 267.48190127 0 7006.29033712 0 -329.77258624 0 526.64737937 0 10575
0.09950000 0.09950330 17496.37695518 0 192.93747443 0 7114.52231222 0 483.55942734 0 677.02172997 0 10882
0.10050000 0.10051200 17477.11110999 0 -21.56401692 0 6902.29906242 0 476.36684514 0 -151.14166270 0 10875
0.10150000 0.10150300 17398.71905028 0 71.90943498 0 6113.08589400 0 1289.42758676 0 -364.20862365 0 11118
0.10250000 0.10250800 17038.97921692 0 32.19367020 0 5922.07721855 0 518.35310085 0 -931.54901120 0 11575
0.10350000 0.10349800 17008.08743067 0 121.89190223 0 5305.79161915 0 -380.69531531 0 -665.02375879 0 11364
0.10450000 0.10450100 17139.29447978 0 349.26984301 0 5844.15019648 0 -781.87000260 0 -1136.35269614 0 12093
0.10550000 0.10551000 16866.36167300 0 402.58862317 0 6633.26371398 0 -887.10137768 0 -1376.73286795 0 12067
0.10650000 0.10649700 16471.74401646 0 613.43447577 0 6822.60046838 0 -884.88801995 0 -1947.93196069 0 12054
0.10750000 0.10749900 15983.01159896 0 702.45375284 0 7307.90046518 0 -500.29524630 0 -1050.47685208 0 12807
0.10850000 0.10850100 15865.31278614 0 377.00048052 0 7899.18475514 0 -106.75514842 0 -1311.27328362 0 12736
0.10950000 0.10950300 15554.29118199 0 94.44737360 0 8082.02205487 0 637.00966977 0 -1084.68479960 0 12933
0.11050000 0.11050200 15532.81087184 0 83.69581403 0 7260.73236145 0 1191.04998074 0 -1026.48644589 0 13428
0.11150000 0.11150900 15220.57131195 0 95.75091840 0 6602.82589305 0 1111.45103762 0 -480.23440820 0 13453
0.11250000 0.11250000 15256.77781411 0 50.29537115 0 6089.65685468 0 780.66976259 0 -833.28766460 0 13668
0.11350000 0.11349100 15135.64658059 0 92.71654778 0 5873.03789193 0 785.81950087 0 -328.20253058 0 13791
0.11450000 0.11448600 14892.27688108 0 145.67414871 0 5943.42466080 0 552.43150218 0 689.27325738 0 14205
0.11550000 0.11549300 14858.17412064 0 279.97591260 0 5485.08577493 0 677.27417897 0 619.67373080 0 14776
0.11650000 0.11649800 14696.40745504 0 -31.03007958 0 5921.54574696 0 993.84523233 0 666.68571475 0 14553
0.11750000 0.11747300 14826.28582516 0 -62.84485482 0 5262.81992653 0 913.41918654 0 1919.81932798 0 14568
0.11850000 0.11849100 14594.32062021 0 155.29710621 0 5402.80732921 0 353.82942637 0 1879.56035494 0 16015
0.11950000 0.11950300 14593.21338773 0 140.53658999 0 5138.66594833 0 60.75694653 0 2001.30056632 0 15270
0.12050000 0.12050700 14489.13353443 0 10.03327571 0 5381.06128326 0 163.01119491 0 2558.92498884 0 15999
0.12150000 0.12150000 14310.86910485 0 374.65425489 0 5094.93026530 0 440.63313125 0 3197.76491390 0 15670
0.12250000 0.12250700 14270.23367277 0 144.08084117 0 4514.51899831 0 297.41593142 0 1622.16201988 0 16887
0.12350000 0.12352200 14125.40766414 0 47.11805682 0 4684.01414663 0 -249.20924362 0 1460.73859635 0 16407
0.12450000 0.12449800 13940.72128616 0 285.22751626 0 4666.55309039 0 -614.55167334 0 978.73261618 0 16306
0.12550000 0.12549900 13900.41802382 0 147.73027943 0 4823.13790798 0 -577.80927066 0 776.65272315 0 17523
0.12650000 0.12650100 13759.57805213 0 -48.02000840 0 4620.32613427 0 -166.07601442 0 51.57942866 0 17154
0.12750000 0.12750600 14050.22657862 0 -10.86661210 0 5082.31888733 0 7.24112327 0 -78.92452782 0 18007
0.12850000 0.12850300 13843.50627426 0 84.76706145 0 4662.93244018 0 466.58112446 0 -253.30268211 0 17496
0.12950000 0.12949900 13791.46634761 0 212.48012773 0 4765.30715545 0 741.61102956 0 114.49226755 0 18405
0.13050000 0.13049000 13344.36587143 0 428.53550915 0 4716.34533510 0 227.11774115 0 209.98996188 0 18100
0.13150000 0.13148800 13173.85206923 0 560.21977545 0 4713.01256533 0 316.40829018 0 393.42405992 0 19059
0.13250000 0.13249300 12518.25971671 0 527.08252174 0 5044.77263387 0 -44.90957091 0 1410.50345865 0 18957
0.13350000 0.13349100 12344.09204732 0 225.62740622 0 4832.50509477 0 62.32667002 0 1451.55963907 0 19468
0.13450000 0.13450700 12154.64456967 0 62.78683584 0 4868.19119766 0 275.70088798 0 1693.55637031 0 19953
0.13550000 0.13551000 12332.79827600 0 6.89533457 0 4628.34249744 0 453.67632989 0 1252.52352813 0 19956
0.13650000 0.13649900 12126.18869489 0 131.62890468 0 4520.96309135 0 157.99875346 0 1077.90300065 0 19723
0.13750000 0.13749600 12118.10589777 0 167.33493775 0 4592.08063366 0 -87.44423887 0 1062.45932200 0 20946
0.13850000 0.13851100 11808.96658883 0 386.08532303 0 4579.71284684 0 -252.85868188 0 819.66316891 0 20955
0.13950000 0.13949800 11754.82292047 0 338.03586225 0 4767.66556064 0 15.20662018 0 774.58330564 0 20506
0.14050000 0.14048300 11287.01719688 0 36.63046147 0 4231.22249550 0 464.83169714 0 1052.50640922 0 21447
0.14150000 0.14148400 11382.12846707 0 41.84320128 0 4084.14880493 0 704.26407795 0 571.53790588 0 21771
0.14250000 0.14249400 11322.44863630 0 -103.80193794 0 3759.50824125 0 776.76012470 0 801.60420713 0 22470
0.14350000 0.14350900 11173.41514424 0 154.12786871 0 3867.36375731 0 335.44272378 0 630.67408551 0 22519
0.14450000 0.14449900 11167.32536559 0 36.38842045 0 3177.76829528 0 249.98984252 0 838.02108346 0 22218
0.14550000 0.14550500 11118.49641314 0 182.86940947 0 3425.24582730 0 -62.34759671 0 707.05098211 0 23559
0.14650000 0.14650700 10942.00355553 0 168.21629481 0 3132.67071629 0 15.30461026 0 1003.92326238 0 23044
0.14750000 0.14750500 10857.99782713 0 60.23001459 0 3179.11911890 0 151.99091002 0 655.52370410 0 23649
0.14850000 0.14849900 10751.99138932 0 216.47834423 0 2925.16427686 0 123.34680571 0 354.72849914 0 23640
0.14950000 0.14949500 10676.17918128 0 224.82576991 0 2947.35321580 0 71.95881755 0 217.01756645 0 24457
0.15050000 0.15050000 10375.68735803 0 194.92274227 0 2534.12298124 0 -188.34245963 0 -178.72614553 0 24591
0.15150000 0.15149900 10073.53468606 0 317.94402163 0 3006.49050266 0 -39.39621749 0 40.26605933 0 25020
0.15250000 0.15250500 9974.57024683 0 237.05183097 0 2726.80357774 0 -115.14110579 0 -361.61105625 0 25297
0.15350000 0.15350100 9687.65309380 0 217.67747700 0 3064.23267659 0 -12.85496911 0 38.83839377 0 25452
0.15450000 0.15450400 9743.08115184 0 130.90588187 0 2960.93895835 0 -298.13563253 0 -92.89304064 0 26061
0.15550000 0.15549900 9589.03189664 0 99.85033594 0 3191.81907547 0 102.89976492 0 81.40495002 0 26128
0.15650000 0.15649500 9630.45346379 0 78.00508196 0 3351.10554031 0 183.76073162 0 157.59350638 0 26331
0.15750000 0.15749700 9566.72116213 0 -30.81760167 0 3263.40165542 0 83.27661581 0 651.27082414 0 27345
0.15850000 0.15849900 9620.26692495 0 56.60714991 0 3388.31962403 0 559.99832896 0 237.48254441 0 26980
0.15950000 0.15949700 9417.08976453 0 280.63139423 0 3235.26687806 0 89.74030687 0 188.79199602 0 27777
0.16050000 0.16050000 9200.72546525 0 290.85557896 0 3261.50828788 0 36.21834954 0 551.97975132 0 28224
0.16150000 0.16150500 9030.23380769 0 156.02677241 0 2906.50740954 0 -103.20934712 0 180.37924362 0 28075
0.16250000 0.16249700 8913.02217716 0 105.80768958 0 3041.81121883 0 -15.38211653 0 536.19615230 0 28590
0.16350000 0.16349900 8756.68095072 0 166.02065280 0 2963.34165284 0 180.24526849 0 427.11271541 0 29163
0.16450000 0.16449100 8640.57655268 0 39.64733782 0 2709.75219752 0 431.59811420 0 319.93704010 0 28996
0.16550000 0.16550500 8650.20947527 0 98.99389161 0 2801.54177026 0 403.53309248 0 196.78621454 0 30777
0.16650000 0.16650700 8577.17642076 0 157.50271331 0 2431.18357740 0 47.41977767 0 65.30479323 0 29211
0.16750000 0.16749900 8354.42339006 0 186.99274323 0 2670.33472116 0 -45.53914330 0 187.84088332 0 30922
0.16850000 0.16850800 8250.42104304 0 125.52362477 0 2686.81034049 0 -190.68647079 0 510.53050337 0 30867
0.16950000 0.16949900 8146.13081557 0 27.97577878 0 2556.04618438 0 255.03771541 0 471.48727159 0 30852
0.17050000 0.17049200 8189.19108679 0 -10.08011165 0 2526.00696715 0 241.02236665 0 343.60081270 0 31257
0.17150000 0.17149500 8125.42556816 0 66.50614047 0 2232.84502293 0 361.57008865 0 250.30540378 0 32608
0.17250000 0.17250900 8226.42731516 0 30.46760548 0 2255.72044600 0 206.39477801 0 114.38929493 0 32361
0.17350000 0.17350400 8008.86720480 0 19.76210678 0 1986.05397505 0 -60.27275377 0 420.84910126 0 32508
0.17450000 0.17449800 8086.60599735 0 39.16724181 0 2059.65171811 0 32.88657628 0 94.88904863 0 32791
0.17550000 0.17549800 8033.27060870 0 38.83186109 0 2102.56804911 0 -114.99495110 0 258.08149750 0 33633
0.17650000 0.17650100 8003.62999516 0 239.34490944 0 2220.86476747 0 -170.10855512 0 127.39484767 0 33984
0.17750000 0.17750300 7909.57059582 0 154.79442266 0 2168.37087551 0 -135.30602375 0 373.38204477 0 34069
0.17850000 0.17849800 7765.43107133 0 46.43124051 0 2364.22922923 0 -201.41001738 0 227.75550705 0 34536
