### header ###
fiducial parameters:
Omega_m = 0.31
Omega_nu = 0
Omega_de = 0.69
Omega_k = 0
H_0 = 100
w_de = -1
zeff = 0
beta = 0
fgrowth = 0
b_1 = 2
gamma = 0.55
Lx = 3500 Ly = 3500 Lz = 3500
nx = 700 ny = 700 nz = 700
xoffset = -685.467585 yoffset = -31.7331281 zoffset = 572.489161
bins = 400 dk = 0.001
kx_ny = 0.628318531 ky_ny = 0.628318531 kz_ny = 0.628318531
############################
A(data) = 8.02927428 (not used)
A(ran) = 8.03627021 (used)
Ngal = 477617
weighted Ngal = 0
Nran = 23820508
weighted Nran = 0
SN(data) = 3478.87734
SN(ran) = 69.998828
SN(data+ran) = 3548.87617
############################
13 columns: k_central k_mean P_0(k) sigma^{lin}_{P_0(k)} P^img_1(k) sigma^{lin}_{P_1(k)} P_2(k) sigma^{lin}_{P_2(k)} P^img_3(k) sigma^{lin}_{P_3(k)} P_4(k) sigma^{lin}_{P_4(k)} N_modes
### header ###
0.00050000 0 0 0 0 0 0 0 0 0 0 0 0
0.00150000 0.00179520 25872.25851074 0 -12584.80438887 0 28888.58123783 0 16614.79845312 0 -32295.75703103 0 3
0.00250000 0.00253879 49899.42481370 0 -18802.57911403 0 -4334.99232370 0 -29067.28856041 0 -28254.24774897 0 6
0.00350000 0.00331552 52010.36354037 0 -18562.30966547 0 -32523.62547580 0 -13173.40917623 0 32945.03815839 0 7
0.00450000 0.00420575 49403.27393857 0 -9519.63056468 0 -38650.82858394 0 -11139.09093730 0 11249.70346224 0 24
0.00550000 0.00557378 49224.78806250 0 -8119.74546553 0 -23135.51198531 0 -26434.95405802 0 -11368.17733780 0 45
0.00650000 0.00659388 58734.14350974 0 -3153.74135042 0 -27645.71277694 0 -45182.94661070 0 -24060.71544716 0 40
0.00750000 0.00754703 54118.75563234 0 10633.87182815 0 -10843.19412885 0 -32324.54507556 0 9654.31432377 0 57
0.00850000 0.00846663 47288.12772847 0 2225.65908412 0 -14290.16385744 0 -25686.13273054 0 14058.86299198 0 75
0.00950000 0.00948925 44728.09550715 0 -10338.76115476 0 -7742.05739364 0 3826.06398573 0 -10986.74682012 0 112
0.01050000 0.01054430 61360.49895673 0 -14447.16942337 0 -12553.02681664 0 -2889.52246327 0 -41528.96869730 0 105
0.01150000 0.01145670 67400.23069880 0 -5907.50603909 0 -9547.05671325 0 -16513.48668103 0 -35111.44923241 0 144
0.01250000 0.01249090 66698.68819829 0 -728.66748185 0 -9637.77227049 0 -24835.44601472 0 -23722.12375421 0 169
0.01350000 0.01339930 62326.89146690 0 -517.85041730 0 -15437.58887840 0 -18390.13501454 0 -18668.38253723 0 180
0.01450000 0.01448870 79250.71850570 0 -1807.60131594 0 5199.26478207 0 -17052.81962294 0 -8610.60376939 0 267
0.01550000 0.01550050 75938.98615244 0 2373.86215182 0 20773.45293175 0 -10529.74768556 0 3682.09054612 0 238
0.01650000 0.01653350 87594.60104254 0 1486.45960690 0 29359.04431938 0 5477.05833944 0 15746.50674084 0 315
0.01750000 0.01747870 79761.70629608 0 4540.83791440 0 39984.60083159 0 3546.57636266 0 23059.33439056 0 297
0.01850000 0.01844180 81005.79271271 0 3782.77119569 0 43248.72218813 0 19064.88248899 0 12606.39542227 0 388
0.01950000 0.01947590 80079.92491137 0 8675.08898914 0 53077.18203665 0 17797.54419024 0 27848.22559787 0 399
0.02050000 0.02045430 69053.43951747 0 8402.48835210 0 47521.08944265 0 5118.85755923 0 21436.68518839 0 462
0.02150000 0.02154770 67064.18564056 0 1340.36028092 0 40306.36259082 0 11394.97236386 0 20739.57161781 0 571
0.02250000 0.02255340 62757.93707209 0 2781.84410441 0 38743.94683566 0 11840.96560756 0 26800.34077704 0 510
0.02350000 0.02348930 61770.95003775 0 4101.83130767 0 27965.70296420 0 11291.33540356 0 14721.76307887 0 555
0.02450000 0.02439640 59613.95043983 0 -1386.62045401 0 23721.68086121 0 16892.71380606 0 17059.46301783 0 592
0.02550000 0.02547300 58369.86402321 0 981.09323583 0 17632.89872019 0 8568.34070556 0 9133.33929640 0 837
0.02650000 0.02652900 58780.64727398 0 37.10081383 0 16702.15909594 0 -2227.67424724 0 10905.85241500 0 723
0.02750000 0.02749970 57691.79485132 0 1307.20974041 0 16380.95095295 0 -3905.45255468 0 9850.56020886 0 826
0.02850000 0.02848090 61801.06676126 0 -410.43225808 0 27083.68156915 0 -4173.77927434 0 11943.93822837 0 831
0.02950000 0.02946900 60470.83765755 0 718.83415018 0 21776.60556032 0 1456.58647454 0 11126.35776376 0 996
0.03050000 0.03053250 60073.56264305 0 34.30316952 0 26396.09019791 0 6955.40193225 0 7994.70570135 0 1041
0.03150000 0.03150510 59611.07163538 0 -1818.23074777 0 23033.53587373 0 4741.99991171 0 803.27169925 0 1036
0.03250000 0.03246190 58286.26797083 0 5621.75148017 0 20974.08345747 0 2442.05660038 0 647.81404433 0 1059
0.03350000 0.03345080 55404.69543678 0 5645.25802576 0 27024.11246162 0 -2610.75454131 0 -355.01084343 0 1302
0.03450000 0.03451200 49934.96697636 0 3710.88966297 0 23172.38282696 0 -2379.37616958 0 6521.25607611 0 1339
0.03550000 0.03553350 49311.59508908 0 -63.73506974 0 29348.41488755 0 2114.84725734 0 5633.84245887 0 1365
0.03650000 0.03647120 50265.03297921 0 -133.48130462 0 25137.83120552 0 3081.95946862 0 2684.42979066 0 1308
0.03750000 0.03744890 50424.80662634 0 -760.29225600 0 25185.88509523 0 7421.58002409 0 4522.75680797 0 1579
0.03850000 0.03847530 50484.59718036 0 61.25974080 0 22609.68727968 0 3482.72226543 0 9518.23545175 0 1662
0.03950000 0.03950240 50742.91451838 0 1400.26155819 0 23658.34716325 0 6425.09293506 0 6564.15026246 0 1683
0.04050000 0.04050350 46927.16993938 0 2673.78928651 0 20386.47517934 0 7051.95260467 0 4498.38662105 0 1822
0.04150000 0.04152450 46294.94019223 0 1030.12149013 0 17215.91496752 0 4988.65809169 0 5031.91766476 0 1887
0.04250000 0.04250150 46044.70565133 0 521.36698767 0 13403.04919297 0 329.72829694 0 -442.40027429 0 1920
0.04350000 0.04349210 44337.13171780 0 1074.15501870 0 12545.38691252 0 -2369.37786027 0 -1711.05064352 0 2005
0.04450000 0.04448520 43275.73866069 0 1316.73193976 0 12507.40883839 0 -2915.16596755 0 -6644.93394434 0 2151
0.04550000 0.04548030 43003.58091664 0 1256.66457762 0 10494.74806681 0 -669.96865906 0 -7885.47721702 0 2274
0.04650000 0.04648670 41492.20857890 0 155.81086208 0 10481.01838403 0 730.68707390 0 -9728.42139378 0 2311
0.04750000 0.04749250 40824.43666909 0 941.73333557 0 9506.95275276 0 3808.25968742 0 -12180.77525624 0 2568
0.04850000 0.04851840 39869.11648373 0 1058.14775871 0 7055.03071097 0 2026.78905805 0 -12666.73959253 0 2493
0.04950000 0.04949480 38310.24387252 0 1519.92017251 0 4564.52161719 0 1593.47362628 0 -7755.39954505 0 2644
0.05050000 0.05050630 37698.05503329 0 -450.02024823 0 5420.70020611 0 1020.37230813 0 -6600.63357274 0 2829
0.05150000 0.05149060 37171.78743466 0 424.38560181 0 7634.99908497 0 16.41549661 0 -5026.39257467 0 2784
0.05250000 0.05249300 36818.02665671 0 2134.91030991 0 6319.99442788 0 1632.07175059 0 -3335.17246490 0 3055
0.05350000 0.05348950 36724.46551199 0 1057.83219745 0 9717.47086454 0 -541.26395536 0 -908.43885484 0 3009
0.05450000 0.05448610 34735.65452806 0 519.98183983 0 7939.59874073 0 562.32240994 0 1169.82433406 0 3336
0.05550000 0.05550870 35058.85568952 0 399.40311532 0 11516.43576712 0 1389.54354777 0 2289.04814371 0 3349
0.05650000 0.05647670 34553.73623129 0 962.41533110 0 11375.81724193 0 465.00553264 0 -2002.60710065 0 3324
0.05750000 0.05747970 33487.02845827 0 1524.39339173 0 11458.63823157 0 434.82016072 0 3099.79698390 0 3639
0.05850000 0.05849280 32574.33672346 0 1110.78669813 0 11809.96309806 0 -2420.28840978 0 186.51441880 0 3846
0.05950000 0.05951020 31831.38372813 0 101.00318640 0 10480.25439362 0 1594.50335248 0 3316.89205662 0 3787
0.06050000 0.06049470 32030.90702137 0 -1110.15557562 0 11019.21087649 0 278.70591694 0 -904.88020964 0 3930
0.06150000 0.06148310 33095.84322242 0 -755.71827861 0 9601.66541926 0 2652.02109591 0 78.33957690 0 4083
0.06250000 0.06249100 34139.18839008 0 -130.49288415 0 10034.61546432 0 -567.85303618 0 -2643.09680211 0 4303
0.06350000 0.06350600 33404.53963837 0 495.68694471 0 9111.73719068 0 615.30348419 0 9.15950320 0 4470
0.06450000 0.06451750 33758.41113957 0 -236.38195532 0 9921.21271353 0 96.54270034 0 697.79673302 0 4479
0.06550000 0.06550280 32945.48105139 0 868.43675973 0 9638.00478931 0 132.55233657 0 1323.39747930 0 4636
0.06650000 0.06648880 33716.88992150 0 742.43702499 0 11041.07871801 0 1527.18361759 0 -1046.53510444 0 4653
0.06750000 0.06749660 31652.34423582 0 1315.07109104 0 10798.11869451 0 -558.07506614 0 275.07087270 0 5220
0.06850000 0.06852730 30958.88453242 0 212.94848707 0 9697.81748798 0 1096.15683535 0 -561.36243938 0 5029
0.06950000 0.06949320 30551.09080935 0 -246.89402050 0 11487.53699935 0 -36.24669470 0 -209.89252542 0 5040
0.07050000 0.07048030 30793.57472288 0 1025.33492411 0 9299.84491703 0 233.66369958 0 -646.57172948 0 5475
0.07150000 0.07148790 29969.12941689 0 1173.28997173 0 10670.93089932 0 289.21798212 0 381.28547022 0 5509
0.07250000 0.07249820 29260.16845875 0 621.98231053 0 9846.21985753 0 -868.63606158 0 -862.47320559 0 5916
0.07350000 0.07351270 28790.36971669 0 966.08802124 0 11709.75855846 0 485.91229636 0 -648.64114699 0 5721
0.07450000 0.07449140 27723.66194366 0 1030.97295191 0 9951.93841490 0 -386.60682953 0 -1685.04175253 0 6028
0.07550000 0.07549160 27358.71811764 0 1236.12541508 0 11229.44110782 0 -1241.76122841 0 -773.79495611 0 6183
0.07650000 0.07648840 26277.50559910 0 831.60799292 0 11576.55849089 0 -1607.20330905 0 -337.80666512 0 6330
0.07750000 0.07749960 25678.49282641 0 505.31211668 0 11875.06836800 0 574.03692960 0 -1504.07567569 0 6583
0.07850000 0.07848650 25182.45267454 0 188.72334760 0 11957.00357166 0 1219.48371088 0 -1817.90965035 0 6549
0.07950000 0.07947320 25295.94400393 0 222.88368413 0 11073.87494412 0 1793.94913944 0 -2232.92252920 0 6828
0.08050000 0.08048110 24612.56011612 0 393.69533188 0 10618.23770551 0 1865.33241755 0 312.55955007 0 7147
0.08150000 0.08149960 25018.36082072 0 300.75423735 0 10430.50643821 0 1304.96205848 0 898.36414649 0 7386
0.08250000 0.08250610 24316.37542722 0 -295.51702771 0 8844.75022233 0 1980.22993219 0 2223.98716307 0 7227
0.08350000 0.08350160 24600.49128207 0 252.30285118 0 8291.42186184 0 1971.44957861 0 1631.69529155 0 7798
0.08450000 0.08449610 23679.60602690 0 768.66182633 0 7118.02116686 0 630.12268373 0 347.94780743 0 7371
0.08550000 0.08548940 23059.99873005 0 1149.70591987 0 6734.66406467 0 20.58732715 0 1791.51322798 0 8256
0.08650000 0.08650700 22623.41696245 0 501.28068321 0 6145.39493782 0 564.81146856 0 65.18897671 0 8037
0.08750000 0.08749060 20923.70437954 0 500.17898689 0 5036.80056000 0 788.18012052 0 907.23861483 0 8155
0.08850000 0.08849210 21794.87489627 0 -40.54164949 0 5428.82729253 0 201.32254602 0 -1730.32756103 0 8718
0.08950000 0.08949900 20840.66194340 0 192.15798276 0 5989.27515788 0 357.60619637 0 -1157.26831772 0 8571
0.09050000 0.09049190 20722.29879109 0 631.08708322 0 5502.17037213 0 -182.91702047 0 -712.12210687 0 8932
0.09150000 0.09150830 20860.59212807 0 451.88039880 0 6432.33423549 0 -717.73577556 0 -416.69255053 0 9285
0.09250000 0.09250820 20360.23376952 0 29.12730056 0 7170.58149278 0 -642.24134325 0 -270.98297038 0 9204
0.09350000 0.09350330 20605.70721075 0 805.00562531 0 8316.81070265 0 -1454.90348117 0 -794.40830323 0 9349
0.09450000 0.09448040 19485.18793910 0 678.05809957 0 7633.40467020 0 -183.44184867 0 -199.19112349 0 9564
0.09550000 0.09549270 19401.03827048 0 412.37212938 0 8155.16583263 0 -169.72213098 0 -1272.90767813 0 10155
0.09650000 0.09649430 18712.67183651 0 193.16002816 0 7484.70334788 0 856.25941690 0 -1542.86202953 0 9913
0.09750000 0.09749140 18643.35908314 0 -41.86678533 0 6827.69373779 0 1902.52435661 0 -3254.59915719 0 10476
0.09850000 0.09850240 18574.93211576 0 -92.79626852 0 5471.69933423 0 644.37719470 0 -2668.27526875 0 10575
0.09950000 0.09950330 18387.92054957 0 165.90660785 0 5442.08086534 0 638.35606447 0 -3073.69951431 0 10882
0.10050000 0.10051200 18369.65121362 0 482.80872372 0 5327.80340089 0 135.42781932 0 -2210.24640797 0 10875
0.10150000 0.10150300 17823.34270707 0 517.17721995 0 5654.22660886 0 -502.17089813 0 -1482.36284672 0 11118
0.10250000 0.10250800 17220.56534394 0 857.32457455 0 5903.07710916 0 676.45261247 0 -655.44951952 0 11575
0.10350000 0.10349800 16959.81209447 0 455.62948798 0 6135.04231411 0 496.43100494 0 -230.41286501 0 11364
0.10450000 0.10450100 16213.20523194 0 274.86382023 0 5428.28474862 0 956.86477467 0 52.91187223 0 12093
0.10550000 0.10551000 15942.59761338 0 478.21260168 0 5128.06973348 0 977.33418156 0 125.15823805 0 12067
0.10650000 0.10649700 15639.10519010 0 152.10827666 0 4434.27786035 0 710.65280937 0 107.92206073 0 12054
0.10750000 0.10749900 15599.79843699 0 104.86000930 0 4381.04212262 0 341.67754988 0 615.86595830 0 12807
0.10850000 0.10850100 15506.23729227 0 -38.19697399 0 3594.24272100 0 -193.53316551 0 -428.65730473 0 12736
0.10950000 0.10950300 15334.50553434 0 83.40616201 0 4220.78129319 0 -361.66863234 0 -68.88458656 0 12933
0.11050000 0.11050200 15356.65018397 0 343.49119669 0 4325.37047343 0 -658.78118206 0 -582.05882893 0 13428
0.11150000 0.11150900 15360.08260467 0 -75.94917269 0 4255.02799386 0 -151.55798212 0 -53.98721641 0 13453
0.11250000 0.11250000 15177.61069166 0 198.75265942 0 4276.65224423 0 537.62891113 0 245.72035407 0 13668
0.11350000 0.11349100 15289.55189557 0 107.85618040 0 3981.15403947 0 706.91479251 0 -505.66532384 0 13791
0.11450000 0.11448600 14959.15372298 0 -36.37601945 0 3616.01091160 0 1009.00324500 0 -635.21927485 0 14205
0.11550000 0.11549300 14921.50781860 0 202.30909016 0 3310.55868683 0 -29.08256837 0 -1113.44405609 0 14776
0.11650000 0.11649800 14802.03743381 0 254.60035858 0 2917.69045761 0 76.25144716 0 -946.21209096 0 14553
0.11750000 0.11747300 14718.10921168 0 91.40259499 0 3341.40618377 0 -484.86596167 0 -687.46403950 0 14568
0.11850000 0.11849100 14267.02269857 0 346.57041022 0 3647.87706243 0 -276.32979603 0 -599.96499262 0 16015
0.11950000 0.11950300 14387.82176234 0 279.61384758 0 3981.12082249 0 -274.96568562 0 -1155.77355387 0 15270
0.12050000 0.12050700 13987.88938989 0 192.85111030 0 3860.80894101 0 289.13161799 0 -1192.95442061 0 15999
0.12150000 0.12150000 14039.81859329 0 123.38555885 0 3677.36266342 0 -100.71187353 0 -1107.12286585 0 15670
0.12250000 0.12250700 13823.90825933 0 247.86506339 0 3873.20994481 0 -135.92164501 0 -1231.49718330 0 16887
0.12350000 0.12352200 13740.53365344 0 224.03299145 0 3815.50098786 0 -65.29084210 0 -1377.18683327 0 16407
0.12450000 0.12449800 13338.82970902 0 216.24028924 0 3567.46983959 0 -201.69346890 0 -1746.65924014 0 16306
0.12550000 0.12549900 13329.86112592 0 134.57967924 0 4072.20176645 0 356.66504876 0 -721.59890969 0 17523
0.12650000 0.12650100 13296.42270497 0 24.99411243 0 3674.95996893 0 400.51477673 0 -943.53701728 0 17154
0.12750000 0.12750600 13158.12936798 0 127.41256339 0 3730.10014653 0 818.23594624 0 -419.56249712 0 18007
0.12850000 0.12850300 13124.02660754 0 191.98746896 0 3831.43406327 0 463.76543226 0 324.06701726 0 17496
0.12950000 0.12949900 12982.41157311 0 73.57681638 0 3611.08372705 0 561.48534218 0 80.68336661 0 18405
0.13050000 0.13049000 13031.35124881 0 291.88087624 0 4017.11695048 0 -144.53591372 0 712.88720452 0 18100
0.13150000 0.13148800 12640.16601297 0 301.54369411 0 3887.41573755 0 -236.46056883 0 324.07366065 0 19059
0.13250000 0.13249300 12566.20288318 0 218.46804100 0 4169.21747651 0 10.98774333 0 774.68738549 0 18957
0.13350000 0.13349100 12469.43076426 0 -91.66888441 0 3570.99083889 0 -54.96877801 0 563.12293902 0 19468
0.13450000 0.13450700 12614.69966588 0 -20.50982088 0 3811.17170885 0 430.84630334 0 342.01082686 0 19953
0.13550000 0.13551000 12565.64926694 0 140.37825575 0 3722.37166381 0 7.20014460 0 -500.81896727 0 19956
0.13650000 0.13649900 12341.87758235 0 510.27251820 0 3680.98331363 0 -419.96663698 0 -320.90365406 0 19723
0.13750000 0.13749600 12089.65002298 0 365.05676374 0 3965.30954265 0 -566.32284089 0 48.05311465 0 20946
0.13850000 0.13851100 11536.69812154 0 263.13822825 0 4156.55073692 0 -465.38088445 0 156.31133116 0 20955
0.13950000 0.13949800 11609.66474210 0 241.93251175 0 4133.52030130 0 323.13694197 0 167.60399524 0 20506
0.14050000 0.14048300 11284.58128542 0 50.60362467 0 4323.79820331 0 478.64331512 0 -219.65610145 0 21447
0.14150000 0.14148400 11117.94279690 0 295.48270351 0 3992.02706244 0 763.63609809 0 -252.82657214 0 21771
0.14250000 0.14249400 10981.04457284 0 74.94446994 0 3544.43940397 0 625.54427742 0 -102.03855949 0 22470
0.14350000 0.14350900 10885.65649453 0 -72.63090767 0 2984.34585302 0 821.95846184 0 391.80639327 0 22519
0.14450000 0.14449900 11026.49646622 0 -166.66838380 0 2876.62320486 0 456.58392238 0 310.60971367 0 22218
0.14550000 0.14550500 11063.86556248 0 -35.22128669 0 2598.97358771 0 545.32085518 0 278.89303923 0 23559
0.14650000 0.14650700 10982.87150644 0 168.93599592 0 2310.84955128 0 300.66565875 0 799.11625574 0 23044
0.14750000 0.14750500 10706.38448339 0 379.47182342 0 2241.71395511 0 -208.47194615 0 767.03751628 0 23649
0.14850000 0.14849900 10555.40226216 0 435.85320863 0 2486.43447825 0 -136.46197446 0 898.62656058 0 23640
0.14950000 0.14949500 10276.09179629 0 234.81632859 0 2693.79697745 0 -208.11209559 0 1521.23777916 0 24457
0.15050000 0.15050000 10043.49546882 0 155.09337543 0 3143.64339019 0 -225.90532158 0 1369.46942287 0 24591
0.15150000 0.15149900 10039.94125256 0 143.51504537 0 2998.81738156 0 -162.03240140 0 1189.05696227 0 25020
0.15250000 0.15250500 9932.44005089 0 90.98561124 0 3258.99487015 0 -35.74533983 0 1013.73334217 0 25297
0.15350000 0.15350100 9759.08066121 0 311.03378371 0 3446.96972859 0 -163.77186363 0 1029.70738518 0 25452
0.15450000 0.15450400 9630.24308962 0 238.87322840 0 3319.87051200 0 21.34655646 0 961.40885677 0 26061
0.15550000 0.15549900 9319.96333122 0 284.85548614 0 3310.00507059 0 429.04151440 0 1053.25489837 0 26128
0.15650000 0.15649500 9293.69977675 0 145.82251786 0 3136.54602998 0 221.21397755 0 934.12221949 0 26331
0.15750000 0.15749700 9089.58146872 0 -25.38629417 0 2760.13127544 0 221.39777814 0 908.16536842 0 27345
0.15850000 0.15849900 9114.36133167 0 61.78744780 0 2986.34994381 0 159.15359694 0 752.53941416 0 26980
0.15950000 0.15949700 9020.61195743 0 139.94643508 0 2966.18724032 0 -128.56851410 0 997.70947369 0 27777
0.16050000 0.16050000 8906.63344574 0 168.58168153 0 2968.96639385 0 335.69738725 0 1019.65925041 0 28224
0.16150000 0.16150500 8870.81447495 0 184.66091163 0 2955.11491550 0 246.08352633 0 1045.38247543 0 28075
0.16250000 0.16249700 8666.19791231 0 95.72013733 0 2889.55568025 0 57.35087797 0 847.36834007 0 28590
0.16350000 0.16349900 8562.51666270 0 126.13149540 0 2869.53691697 0 62.75417248 0 751.34249585 0 29163
0.16450000 0.16449100 8479.40779262 0 103.34199357 0 2707.44915395 0 -114.78346970 0 822.34599321 0 28996
0.16550000 0.16550500 8466.56389583 0 -7.61605434 0 2622.12581890 0 -16.80502099 0 557.86690643 0 30777
0.16650000 0.16650700 8453.90822856 0 34.68782208 0 2668.19776247 0 77.20842819 0 504.81054036 0 29211
0.16750000 0.16749900 8371.46369796 0 156.60585500 0 2497.97184071 0 49.95489716 0 61.41563913 0 30922
0.16850000 0.16850800 8293.35951869 0 97.98110606 0 2484.67397860 0 -131.30005663 0 36.08935696 0 30867
0.16950000 0.16949900 8201.27099317 0 57.38154831 0 2274.74270004 0 318.84863057 0 -20.46608519 0 30852
0.17050000 0.17049200 8214.38062576 0 18.42368416 0 2305.52376304 0 76.68337855 0 -3.82077141 0 31257
0.17150000 0.17149500 8276.66245286 0 -112.61440127 0 2104.25104248 0 315.07296781 0 -36.39218504 0 32608
0.17250000 0.17250900 8292.28550318 0 -27.26582131 0 2175.54574199 0 144.67874671 0 -34.80629596 0 32361
0.17350000 0.17350400 8351.82139373 0 158.34863893 0 1999.79473015 0 -0.28508468 0 362.41712150 0 32508
0.17450000 0.17449800 8198.31468244 0 126.93423895 0 2193.93687352 0 154.77338524 0 -4.04059028 0 32791
0.17550000 0.17549800 8112.67024997 0 119.15814523 0 1958.50603090 0 51.36750436 0 453.52353180 0 33633
0.17650000 0.17650100 7950.43854673 0 129.09998569 0 2150.45585395 0 -15.43814249 0 -16.51127222 0 33984
0.17750000 0.17750300 7879.42065534 0 132.70624188 0 2081.74100613 0 4.25093123 0 238.56873947 0 34069
0.17850000 0.17849800 7886.05297791 0 46.62201667 0 2103.40954580 0 19.45119590 0 173.08258157 0 34536
