### header ###
fiducial parameters:
Omega_m = 0.31
Omega_nu = 0
Omega_de = 0.69
Omega_k = 0
H_0 = 100
w_de = -1
zeff = 0
beta = 0
fgrowth = 0
b_1 = 2
gamma = 0.55
Lx = 3500 Ly = 3500 Lz = 3500
nx = 700 ny = 700 nz = 700
xoffset = -685.467585 yoffset = -31.7331281 zoffset = 572.489161
bins = 400 dk = 0.001
kx_ny = 0.628318531 ky_ny = 0.628318531 kz_ny = 0.628318531
############################
A(data) = 7.99779877 (not used)
A(ran) = 7.99202409 (used)
Ngal = 475223
weighted Ngal = 0
Nran = 23820508
weighted Nran = 0
SN(data) = 3494.19529
SN(ran) = 69.6134282
SN(data+ran) = 3563.80872
############################
13 columns: k_central k_mean P_0(k) sigma^{lin}_{P_0(k)} P^img_1(k) sigma^{lin}_{P_1(k)} P_2(k) sigma^{lin}_{P_2(k)} P^img_3(k) sigma^{lin}_{P_3(k)} P_4(k) sigma^{lin}_{P_4(k)} N_modes
### header ###
0.00050000 0 0 0 0 0 0 0 0 0 0 0 0
0.00150000 0.00179520 37722.85704089 0 -24292.23775912 0 21733.09132378 0 17631.12714822 0 -45087.50317076 0 3
0.00250000 0.00253879 74128.10742836 0 -29432.67527942 0 14968.67592233 0 -49184.15263041 0 16798.37759861 0 6
0.00350000 0.00331552 76509.32160385 0 -12491.57541390 0 -12855.30128419 0 -1121.44934693 0 48332.69085186 0 7
0.00450000 0.00420575 77121.39971983 0 11911.49631665 0 7040.75848428 0 -21174.60325993 0 34210.16199217 0 24
0.00550000 0.00557378 61309.23409282 0 6169.39973803 0 13401.16689775 0 22429.98344787 0 8153.80393667 0 45
0.00650000 0.00659388 66522.85968017 0 2138.56417710 0 32346.02538570 0 27387.50616217 0 -1134.74720904 0 40
0.00750000 0.00754703 65261.38971358 0 -8957.12324692 0 1222.58396183 0 26889.25154533 0 -22526.97701328 0 57
0.00850000 0.00846663 73352.93396780 0 -16043.68793897 0 15318.33994010 0 15828.33122125 0 -783.01709545 0 75
0.00950000 0.00948925 82514.17552275 0 -2566.54274831 0 -3985.09578710 0 -10104.02786861 0 -26824.25699865 0 112
0.01050000 0.01054430 78047.26752116 0 9639.46633619 0 13559.27969616 0 -10032.99890489 0 21484.62835485 0 105
0.01150000 0.01145670 72354.65316215 0 11782.06083952 0 8018.06830672 0 -1236.32471693 0 18717.65438267 0 144
0.01250000 0.01249090 70737.65084564 0 -3903.90242921 0 190.09410142 0 17388.08961845 0 19361.51007088 0 169
0.01350000 0.01339930 71394.35043063 0 -8678.92001352 0 6555.50277678 0 -426.95881010 0 -30419.21942076 0 180
0.01450000 0.01448870 82771.82852128 0 1260.40702341 0 -4197.83943617 0 -12833.59952755 0 -12661.86776961 0 267
0.01550000 0.01550050 76523.16200988 0 225.11143589 0 4342.13397321 0 -14203.24610761 0 -3236.67306331 0 238
0.01650000 0.01653350 77886.82953454 0 7246.85873845 0 1397.93636998 0 -28490.86333035 0 -6556.59893693 0 315
0.01750000 0.01747870 71812.55213903 0 6413.47806633 0 29158.96740991 0 -14239.00971678 0 -12956.83450278 0 297
0.01850000 0.01844180 65337.34586184 0 9728.42139378 0 33423.03042081 0 -7612.42261467 0 -21337.03426502 0 388
0.01950000 0.01947590 61524.59081054 0 1803.32739856 0 31876.33736690 0 15345.46713591 0 821.38048649 0 399
0.02050000 0.02045430 64309.94484192 0 -3639.31815534 0 34356.87029602 0 16997.79016859 0 -16572.05927932 0 462
0.02150000 0.02154770 66497.39333309 0 -5882.11719828 0 19923.43055542 0 19686.15063456 0 -8070.11930569 0 571
0.02250000 0.02255340 74075.73533196 0 -702.08504443 0 21831.96718441 0 12911.10580128 0 -10852.61667727 0 510
0.02350000 0.02348930 66996.75518241 0 4238.31985571 0 12299.02768530 0 -7089.57636440 0 -4678.77693699 0 555
0.02450000 0.02439640 64908.73616811 0 5294.03281019 0 18180.86807547 0 -8399.89742809 0 -4547.22664582 0 592
0.02550000 0.02547300 60083.85990514 0 3595.30566419 0 21057.34734010 0 -7590.95337684 0 -7426.64007653 0 837
0.02650000 0.02652900 60635.59385085 0 -612.19437539 0 19456.39989457 0 1801.82156239 0 -19796.98460600 0 723
0.02750000 0.02749970 56470.73887032 0 478.66656700 0 20462.54205084 0 -4180.36730760 0 -22571.04486606 0 826
0.02850000 0.02848090 61682.81433220 0 201.97027702 0 15353.21776328 0 2476.53581986 0 -19445.65973950 0 831
0.02950000 0.02946900 58898.89970304 0 1236.57938040 0 17109.39920277 0 2914.59020666 0 -16545.04280676 0 996
0.03050000 0.03053250 58467.07903512 0 1014.73317310 0 13700.11966786 0 8181.13043433 0 -18013.67597070 0 1041
0.03150000 0.03150510 55527.26607252 0 536.96457164 0 10187.81215051 0 5313.52010187 0 -12114.78420032 0 1036
0.03250000 0.03246190 56081.43592969 0 2255.64293973 0 5909.35511734 0 5574.76053364 0 -10391.23290208 0 1059
0.03350000 0.03345080 52605.83316912 0 -1229.26057369 0 4083.61733334 0 3186.44899793 0 -5032.34948543 0 1302
0.03450000 0.03451200 53654.38232944 0 450.16640292 0 2186.88380261 0 -2469.75955707 0 -8255.06034714 0 1339
0.03550000 0.03553350 52482.37674739 0 2399.98176607 0 2954.63880553 0 -3990.27763512 0 -5785.90976793 0 1365
0.03650000 0.03647120 48956.94852513 0 3104.93454262 0 7947.59295925 0 -7377.64503921 0 -10158.50370671 0 1308
0.03750000 0.03744890 50119.09973810 0 718.06462360 0 7751.16991697 0 -3442.61830494 0 -10431.10434375 0 1579
0.03850000 0.03847530 50108.24885978 0 -1364.46473205 0 11844.95164449 0 -3275.10510276 0 -13415.33947352 0 1662
0.03950000 0.03950240 48573.84608641 0 3134.89625358 0 13555.51510572 0 -1782.77716370 0 -14553.02084864 0 1683
0.04050000 0.04050350 46797.95590875 0 4017.82557927 0 15274.93642681 0 -149.51624542 0 -8736.20822213 0 1822
0.04150000 0.04152450 43162.80094754 0 2646.55136745 0 13089.14878436 0 1670.10518635 0 -7379.05122446 0 1887
0.04250000 0.04250150 42732.53040508 0 2272.47287345 0 17617.84035844 0 3324.73126259 0 -1222.60610647 0 1920
0.04350000 0.04349210 41546.24152401 0 59.86285630 0 16008.14577630 0 2892.02480868 0 -1680.35815913 0 2005
0.04450000 0.04448520 41177.97600055 0 590.11283800 0 15336.94144580 0 770.72902937 0 -1861.29101899 0 2151
0.04550000 0.04548030 40277.24237655 0 1928.11249927 0 16076.57274368 0 -2445.41151480 0 -1022.38082785 0 2274
0.04650000 0.04648670 38801.96581771 0 572.08487873 0 16890.27789460 0 -1138.85504155 0 -2817.49699033 0 2311
0.04750000 0.04749250 38975.91204061 0 -325.04248907 0 16566.96600990 0 885.56343176 0 -1600.49348021 0 2568
0.04850000 0.04851840 38022.36342723 0 515.59055581 0 15683.83738236 0 1846.98557532 0 446.36859551 0 2493
0.04950000 0.04949480 39158.93756987 0 671.47781693 0 16360.24570554 0 1528.09154822 0 -2025.82576579 0 2644
0.05050000 0.05050630 37950.06114617 0 1270.95894896 0 16547.70016472 0 2403.35882514 0 2219.11534015 0 2829
0.05150000 0.05149060 37799.92042162 0 345.98689870 0 15539.23282023 0 2067.53521339 0 2889.64425885 0 2784
0.05250000 0.05249300 37464.98259586 0 1006.66366277 0 17325.64170647 0 368.03964804 0 4020.50508187 0 3055
0.05350000 0.05348950 37373.85736260 0 12.34597434 0 18292.92000263 0 102.06225427 0 4873.46162428 0 3009
0.05450000 0.05448610 37019.54296841 0 -253.86183451 0 17922.99363044 0 -1408.93118852 0 2762.05785996 0 3336
0.05550000 0.05550870 36894.97931420 0 1439.69010687 0 17939.82356416 0 1178.77077252 0 3999.46766472 0 3349
0.05650000 0.05647670 37504.62151871 0 -80.61527182 0 17570.78297796 0 1405.60949108 0 2737.89804721 0 3324
0.05750000 0.05747970 36046.17489360 0 -662.90008689 0 14261.26508966 0 2166.08997660 0 660.87274422 0 3639
0.05850000 0.05849280 36480.21002649 0 123.30030195 0 14281.74889058 0 3076.66689736 0 -1563.23510720 0 3846
0.05950000 0.05951020 35755.30492061 0 971.50570977 0 12126.18869489 0 1382.42404291 0 -2064.73391521 0 3787
0.06050000 0.06049470 34263.64132105 0 1943.92377911 0 10577.15938043 0 -926.70154739 0 -2597.53418548 0 3930
0.06150000 0.06148310 32712.74078370 0 625.08477594 0 11298.75386119 0 1014.06883361 0 -144.38865180 0 4083
0.06250000 0.06249100 32595.15269412 0 269.72293981 0 9752.01651797 0 2238.10437722 0 508.30053715 0 4303
0.06350000 0.06350600 32586.51628077 0 44.54440564 0 9035.29386014 0 2039.66617182 0 -2594.69967033 0 4470
0.06450000 0.06451750 33393.24586705 0 300.22940916 0 9198.11239659 0 393.99317742 0 -92.66993329 0 4479
0.06550000 0.06550280 32522.96113631 0 475.32383214 0 10236.80718783 0 -1718.55767975 0 377.47991218 0 4636
0.06650000 0.06648880 31784.76924065 0 608.56154561 0 10697.02836892 0 -283.15145535 0 1969.76658524 0 4653
0.06750000 0.06749660 31724.20362389 0 683.12922434 0 11126.68993351 0 246.87187585 0 1856.79565511 0 5220
0.06850000 0.06852730 31131.83424609 0 193.50105576 0 10468.58416326 0 2182.58774058 0 -365.10769643 0 5029
0.06950000 0.06949320 31060.19630451 0 712.03795721 0 11050.51233875 0 144.10077135 0 966.19542279 0 5040
0.07050000 0.07048030 30042.42820718 0 871.53701068 0 9654.98973559 0 341.90121084 0 707.96777060 0 5475
0.07150000 0.07148790 29841.24406523 0 776.76012470 0 11149.60964588 0 -991.74481231 0 -750.32494920 0 5509
0.07250000 0.07249820 29028.09253055 0 944.73615006 0 11206.85356519 0 -403.24410480 0 -547.38916545 0 5916
0.07350000 0.07351270 28223.46668598 0 504.14952257 0 12157.85554387 0 -551.06628453 0 635.40086097 0 5721
0.07450000 0.07449140 28229.88863437 0 418.10427194 0 10493.87335315 0 949.32009253 0 -1214.95513003 0 6028
0.07550000 0.07549160 28294.88318106 0 -999.22416772 0 10144.26469700 0 3208.29469480 0 -2743.74423471 0 6183
0.07650000 0.07648840 28698.35869745 0 -697.99935657 0 9358.34000904 0 2077.45601642 0 -1555.94951747 0 6330
0.07750000 0.07749960 28600.36862280 0 716.36502174 0 7967.39027603 0 1691.40833930 0 -2412.52671009 0 6583
0.07850000 0.07848650 28579.88482189 0 730.52652519 0 7937.60572226 0 586.89854210 0 -447.20455603 0 6549
0.07950000 0.07947320 26719.51280586 0 947.99141356 0 6130.62445651 0 644.03838156 0 903.76522653 0 6828
0.08050000 0.08048110 26557.19252402 0 955.77747237 0 8076.35302457 0 649.65094301 0 1187.69506632 0 7147
0.08150000 0.08149960 26021.07055630 0 519.66074241 0 6858.71839194 0 488.94611336 0 1628.42895573 0 7386
0.08250000 0.08250610 25356.84179043 0 1301.93931380 0 8655.38025096 0 -237.94204589 0 2071.15586360 0 7227
0.08350000 0.08350160 24086.95685698 0 733.57695067 0 7505.55253552 0 -955.05223509 0 1146.89354937 0 7798
0.08450000 0.08449610 23639.30276456 0 752.40876073 0 8841.31780164 0 -373.89358617 0 -482.08902260 0 7371
0.08550000 0.08548940 22705.46288936 0 1027.78744406 0 7468.05057136 0 -834.06937073 0 415.41591148 0 8256
0.08650000 0.08650700 21993.18023377 0 466.87786277 0 6960.49520167 0 1441.40631722 0 -981.47855274 0 8037
0.08750000 0.08749060 21892.20063143 0 -277.81570202 0 5977.59385519 0 1410.40380772 0 -962.35000438 0 8155
0.08850000 0.08849210 21267.50006516 0 -65.31608700 0 5050.03198816 0 2121.08097621 0 -2331.80946216 0 8718
0.08950000 0.08949900 21562.90969132 0 544.92557318 0 3925.93635560 0 1525.19059912 0 -2759.37835735 0 8571
0.09050000 0.09049190 20647.33915207 0 342.61205410 0 3152.40159912 0 285.18987035 0 -1931.96566831 0 8932
0.09150000 0.09150830 20458.11312092 0 78.73729480 0 3264.42030931 0 -227.86955200 0 -1363.76717559 0 9285
0.09250000 0.09250820 20193.37383450 0 442.17882780 0 4264.30660205 0 -810.53625156 0 -290.35178818 0 9204
0.09350000 0.09350330 20540.15904782 0 592.53656990 0 5297.31021834 0 -778.91922804 0 33.12208463 0 9349
0.09450000 0.09448040 19620.15957864 0 687.12522636 0 5662.02152554 0 -653.54175796 0 1040.97347568 0 9564
0.09550000 0.09549270 19938.15674743 0 502.44659902 0 6668.36298365 0 21.24712699 0 767.48262373 0 10155
0.09650000 0.09649430 19325.41429197 0 189.09205602 0 6433.20894916 0 129.87615566 0 1112.00465386 0 9913
0.09750000 0.09749140 18956.37370576 0 668.47168074 0 6938.63843248 0 216.88026962 0 453.19800545 0 10476
0.09850000 0.09850240 18341.08461559 0 685.85190901 0 6905.48789197 0 -148.34368622 0 72.34734543 0 10575
0.09950000 0.09950330 17897.19511361 0 582.50615085 0 7133.61100021 0 -376.41918346 0 23.29495346 0 10882
0.10050000 0.10051200 17475.11809152 0 436.73124398 0 7038.89833371 0 -443.09450906 0 -485.67534861 0 10875
0.10150000 0.10150300 16899.57864745 0 396.13124334 0 7086.03322046 0 -6.76485829 0 258.19664968 0 11118
0.10250000 0.10250800 16872.89434464 0 0.97134848 0 7254.25505143 0 794.74822360 0 -330.71594831 0 11575
0.10350000 0.10349800 16617.01291808 0 67.31475235 0 7185.73950545 0 1154.47809187 0 -266.03807012 0 11364
0.10450000 0.10450100 16630.41043111 0 161.81427660 0 6607.89701782 0 867.29852474 0 -635.95336998 0 12093
0.10550000 0.10551000 16148.65357825 0 566.18222237 0 6058.92008099 0 762.68719986 0 226.84979088 0 12067
0.10650000 0.10649700 16072.58670675 0 459.96541038 0 6248.83259628 0 406.27349287 0 972.15897694 0 12054
0.10750000 0.10749900 15357.53596996 0 326.51732274 0 5999.87137273 0 407.43830144 0 1050.78798440 0 12807
0.10850000 0.10850100 15547.53706385 0 217.83138232 0 5827.66350482 0 397.09564283 0 1021.52493714 0 12736
0.10950000 0.10950300 15068.65901544 0 226.96937199 0 5573.50936094 0 7.98549353 0 1266.39715113 0 12933
0.11050000 0.11050200 14829.27535286 0 243.06742505 0 5073.60496770 0 609.91790540 0 606.98373933 0 13428
0.11150000 0.11150900 14571.95452408 0 125.24792388 0 5061.76865247 0 339.21063591 0 504.46619106 0 13453
0.11250000 0.11250000 14630.63784561 0 294.30571538 0 5350.31343724 0 188.01471882 0 581.76873402 0 13668
0.11350000 0.11349100 14250.85710434 0 187.01931681 0 4970.47733434 0 -156.01680732 0 1013.02360615 0 13791
0.11450000 0.11448600 14252.29650656 0 131.74516409 0 4868.77803088 0 -47.70411497 0 405.45303360 0 14205
0.11550000 0.11549300 14402.99084734 0 -35.60793228 0 5239.24694699 0 0.90528767 0 717.22534138 0 14776
0.11650000 0.11649800 14363.68409424 0 -122.68025176 0 5011.90997381 0 35.58313027 0 263.69516618 0 14553
0.11750000 0.11747300 14312.52995357 0 309.89444149 0 5246.55468137 0 210.40517406 0 485.21252544 0 14568
0.11850000 0.11849100 13991.98615008 0 426.12395681 0 5206.08533415 0 -62.96011772 0 367.50153306 0 16015
0.11950000 0.11950300 13745.62692286 0 351.35144008 0 4639.39267761 0 855.65818966 0 1309.53492863 0 15270
0.12050000 0.12050700 13480.33402021 0 -34.09445620 0 4388.77060534 0 1021.08315138 0 1505.71437976 0 15999
0.12150000 0.12150000 13522.29813127 0 -117.19280758 0 4118.62802442 0 1170.72119237 0 901.71906091 0 15670
0.12250000 0.12250700 13708.53463472 0 -208.08220032 0 3476.84286095 0 633.43441608 0 1088.40288628 0 16887
0.12350000 0.12352200 13505.13602780 0 124.88585886 0 3229.94108982 0 132.31981775 0 1038.87748460 0 16407
0.12450000 0.12449800 13497.93901667 0 -11.34824715 0 3166.35272839 0 19.81237514 0 1648.33699575 0 16306
0.12550000 0.12549900 13554.85076624 0 -59.52847209 0 3201.76202316 0 300.17183307 0 1345.03280199 0 17523
0.12650000 0.12650100 13484.76295013 0 146.35066776 0 2924.12347833 0 240.75220193 0 896.64572167 0 17154
0.12750000 0.12750600 13415.11802702 0 280.81187312 0 2995.13029739 0 303.63636350 0 1172.79171712 0 18007
0.12850000 0.12850300 13228.66007708 0 284.05163536 0 2794.52191633 0 -161.12114906 0 1135.31189760 0 17496
0.12950000 0.12949900 13083.16972896 0 17.46559589 0 3356.64170272 0 -146.36727624 0 1481.90888140 0 18405
0.13050000 0.13049000 12932.91828117 0 387.91114939 0 3321.21026330 0 -403.05255358 0 1310.08854487 0 18100
0.13150000 0.13148800 12749.33913568 0 352.50849802 0 3868.48206211 0 -324.95723217 0 1466.28583108 0 19059
0.13250000 0.13249300 12396.90703670 0 378.96471094 0 3897.55798709 0 -718.22185062 0 1493.18050807 0 18957
0.13350000 0.13349100 12417.39083762 0 166.60194985 0 4264.52804855 0 -70.24194286 0 1036.00532354 0 19468
0.13450000 0.13450700 12248.20571439 0 46.74314790 0 4121.52897352 0 94.01267412 0 822.45671646 0 19953
0.13550000 0.13551000 12264.14986213 0 -11.79003291 0 3835.40902788 0 397.67915435 0 619.61283301 0 19956
0.13650000 0.13649900 12244.21967745 0 -60.65884573 0 3707.13614486 0 337.52321361 0 353.71095249 0 19723
0.13750000 0.13749600 12268.57879205 0 26.27584475 0 3412.56801538 0 511.07526175 0 49.19312121 0 20946
0.13850000 0.13851100 11997.63900374 0 234.17302652 0 3172.60859191 0 404.80862430 0 -201.85623207 0 20955
0.13950000 0.13949800 11936.51977074 0 168.64368655 0 3322.25106183 0 -98.44725094 0 -233.06690127 0 20506
0.14050000 0.14048300 11529.05821742 0 360.00335469 0 3185.58535660 0 -313.77529134 0 -457.62361368 0 21447
0.14150000 0.14148400 11427.08210584 0 479.37408856 0 3296.41932803 0 -258.43470466 0 -56.08066087 0 21771
0.14250000 0.14249400 11114.28892971 0 171.95541890 0 3488.86740571 0 -153.68608295 0 658.34050353 0 22470
0.14350000 0.14350900 11095.90887051 0 -12.12784954 0 3594.84062655 0 166.51337125 0 69.35981075 0 22519
0.14450000 0.14449900 10930.45512075 0 41.44481903 0 3402.28182562 0 606.13338478 0 -195.31691703 0 22218
0.14550000 0.14550500 11004.61755238 0 139.64083892 0 3138.36189125 0 59.40257976 0 -453.10056900 0 23559
0.14650000 0.14650700 10716.23885248 0 224.35630334 0 3215.81280335 0 58.77389316 0 -338.28056063 0 23044
0.14750000 0.14750500 10605.91420799 0 251.30523471 0 3198.26316852 0 -42.03497394 0 -240.66140886 0 23649
0.14850000 0.14849900 10421.54892743 0 199.46128821 0 3093.45254178 0 114.86761937 0 -181.17866547 0 23640
0.14950000 0.14949500 10301.09310573 0 136.74985491 0 3142.52508538 0 342.32638812 0 127.68383534 0 24457
0.15050000 0.15050000 10115.84203919 0 271.73588847 0 3087.28525686 0 304.62733657 0 208.03680379 0 24591
0.15150000 0.15149900 10039.31013004 0 53.18170478 0 3099.71947763 0 237.39728751 0 314.58024935 0 25020
0.15250000 0.15250500 9909.78607431 0 206.93732193 0 3117.14731689 0 -100.90807513 0 597.95758013 0 25297
0.15350000 0.15350100 9789.54062678 0 336.58095877 0 3434.04832553 0 -90.05907910 0 444.87826059 0 25452
0.15450000 0.15450400 9507.61709225 0 245.19220418 0 3547.70573979 0 -138.94881861 0 762.11697513 0 26061
0.15550000 0.15549900 9389.58610968 0 137.67771572 0 3305.28826021 0 -118.52923718 0 507.13462134 0 26128
0.15650000 0.15649500 9309.63285217 0 -59.59723123 0 3167.62604574 0 214.54179462 0 417.45543371 0 26331
0.15750000 0.15749700 9241.17266781 0 49.91260088 0 3128.55181146 0 332.81415386 0 485.80046588 0 27345
0.15850000 0.15849900 9312.29021012 0 92.58965894 0 2837.15036688 0 169.10872419 0 71.08820065 0 26980
0.15950000 0.15949700 9233.65455926 0 -23.40855552 0 2791.51024398 0 250.04741861 0 508.53527043 0 27777
0.16050000 0.16050000 9095.94805549 0 21.35430709 0 2538.02043958 0 365.43322278 0 395.39382651 0 28224
0.16150000 0.16150500 9216.07170745 0 81.42211213 0 2662.30728567 0 -55.12235115 0 202.25262130 0 28075
0.16250000 0.16249700 9019.42721867 0 250.63868076 0 2581.26894032 0 45.71508254 0 443.16869363 0 28590
0.16350000 0.16349900 8882.66186251 0 251.68612269 0 2759.99840754 0 -73.37851104 0 202.70990831 0 29163
0.16450000 0.16449100 8693.90086900 0 154.42682148 0 2510.53892938 0 -50.10802741 0 347.94891466 0 28996
0.16550000 0.16550500 8621.91968536 0 76.20870799 0 2658.33232106 0 295.68421982 0 -2.39230864 0 30777
0.16650000 0.16650700 8502.09498617 0 85.34470464 0 2440.07465423 0 22.33819388 0 -43.53128792 0 29211
0.16750000 0.16749900 8448.80388682 0 37.41161399 0 2157.61964811 0 357.12565747 0 83.52862192 0 30922
0.16850000 0.16850800 8385.71378000 0 47.74043220 0 2025.68182557 0 263.06736537 0 -59.86263486 0 30867
0.16950000 0.16949900 8404.51458754 0 -15.59636602 0 2119.37583819 0 57.95686631 0 -82.83793030 0 30852
0.17050000 0.17049200 8348.26717746 0 116.54507658 0 2006.46026969 0 19.53479195 0 -127.38266811 0 31257
0.17150000 0.17149500 8202.57752750 0 249.69310422 0 2280.65532150 0 -251.72376859 0 -97.94146714 0 32608
0.17250000 0.17250900 8091.96500256 0 226.30503250 0 2349.73555604 0 -314.26136640 0 350.11466139 0 32361
0.17350000 0.17350400 8037.20128401 0 122.97256113 0 2598.79643051 0 -201.96031192 0 86.90180568 0 32508
0.17450000 0.17449800 8002.30131618 0 -28.43505881 0 2644.22617924 0 -169.42207098 0 88.90943961 0 32791
0.17550000 0.17549800 8123.28860947 0 43.26743442 0 2717.54711419 0 207.40014511 0 1.22870696 0 33633
0.17650000 0.17650100 7976.91247537 0 -29.38938249 0 2588.29986658 0 269.22911413 0 412.19054326 0 33984
0.17750000 0.17750300 8072.03481789 0 5.17459564 0 2546.13645367 0 374.61660898 0 162.65355882 0 34069
0.17850000 0.17849800 8036.86911426 0 101.57307896 0 2462.11965295 0 295.13392527 0 205.68061306 0 34536
