### header ###
fiducial parameters:
Omega_m = 0.31
Omega_nu = 0
Omega_de = 0.69
Omega_k = 0
H_0 = 100
w_de = -1
zeff = 0
beta = 0
fgrowth = 0
b_1 = 2
gamma = 0.55
Lx = 3500 Ly = 3500 Lz = 3500
nx = 700 ny = 700 nz = 700
xoffset = -685.467585 yoffset = -31.7331281 zoffset = 572.489161
bins = 400 dk = 0.001
kx_ny = 0.628318531 ky_ny = 0.628318531 kz_ny = 0.628318531
############################
A(data) = 8.03339056 (not used)
A(ran) = 8.03144598 (used)
Ngal = 477347
weighted Ngal = 0
Nran = 23820508
weighted Nran = 0
SN(data) = 3491.23853
SN(ran) = 69.9568072
SN(data+ran) = 3561.19534
############################
13 columns: k_central k_mean P_0(k) sigma^{lin}_{P_0(k)} P^img_1(k) sigma^{lin}_{P_1(k)} P_2(k) sigma^{lin}_{P_2(k)} P^img_3(k) sigma^{lin}_{P_3(k)} P_4(k) sigma^{lin}_{P_4(k)} N_modes
### header ###
0.00050000 0 0 0 0 0 0 0 0 0 0 0 0
0.00150000 0.00179520 -1406.77208518 0 -3836.31695851 0 -1179.05865296 0 -2164.61735740 0 -8587.44046587 0 3
0.00250000 0.00253879 6693.99541561 0 -12929.70730697 0 -5721.72350096 0 -13657.04832431 0 -4250.64335323 0 6
0.00350000 0.00331552 15312.91450094 0 -16362.46017050 0 -21000.87848353 0 22428.32259915 0 16898.36069172 0 7
0.00450000 0.00420575 28321.34603737 0 -18999.99866555 0 -16480.04826007 0 -23389.40039340 0 -13803.75662816 0 24
0.00550000 0.00557378 48975.32858433 0 -16415.60732963 0 -10876.17858448 0 -19587.71766692 0 3361.73497214 0 45
0.00650000 0.00659388 52693.30453519 0 -7861.40598286 0 -4126.13506064 0 -16719.76409240 0 22716.53521418 0 40
0.00750000 0.00754703 60800.68221390 0 -8515.39284828 0 -21634.43690965 0 -4898.31899350 0 -19402.03477971 0 57
0.00850000 0.00846663 75596.85131555 0 -8429.61554791 0 2618.31693916 0 -24812.30485585 0 -18539.61139959 0 75
0.00950000 0.00948925 86221.74348827 0 -2790.11513105 0 -2597.99922312 0 -26579.89078990 0 -39558.42704932 0 112
0.01050000 0.01054430 69229.82165183 0 7126.42506140 0 17032.44654528 0 -28211.84074492 0 -17451.75548616 0 105
0.01150000 0.01145670 84283.86519851 0 5025.20783592 0 11830.33617573 0 -15284.68007265 0 -36388.30973050 0 144
0.01250000 0.01249090 71062.84502556 0 -1895.82560010 0 17712.84090538 0 -8093.33797084 0 -35177.99390457 0 169
0.01350000 0.01339930 76069.75030855 0 21.94800515 0 19233.51399597 0 -17393.51505761 0 -44695.32142569 0 180
0.01450000 0.01448870 77474.93905129 0 83.41446625 0 31260.38393724 0 1641.80432411 0 -37298.23338409 0 267
0.01550000 0.01550050 74336.37785819 0 2148.47390781 0 25339.45824046 0 1693.55637031 0 -15054.48643967 0 238
0.01650000 0.01653350 72882.47088626 0 11378.69604638 0 25515.61892833 0 7828.10042981 0 -14061.52034994 0 315
0.01750000 0.01747870 65940.12322497 0 5589.54208727 0 13000.34873932 0 9673.05976969 0 1667.23745422 0 297
0.01850000 0.01844180 60671.13601352 0 4074.47159304 0 23320.41980978 0 15316.01475189 0 14079.90040914 0 388
0.01950000 0.01947590 63566.99184659 0 -81.96166651 0 24751.40706935 0 20035.92537558 0 13848.93171342 0 399
0.02050000 0.02045430 60647.99485465 0 -5298.45066779 0 14980.63403313 0 9956.00195811 0 30484.10324420 0 462
0.02150000 0.02154770 67087.21607618 0 2677.39886440 0 27569.31373569 0 2618.28372219 0 35351.27578798 0 571
0.02250000 0.02255340 65521.81079332 0 3418.92352983 0 29369.89519770 0 -6688.54783180 0 46926.39487664 0 510
0.02350000 0.02348930 67418.50003475 0 938.71723429 0 40237.04983746 0 7797.75118748 0 43086.62335278 0 555
0.02450000 0.02439640 64708.65925864 0 -3464.12075974 0 30713.85398419 0 455.18327329 0 43358.44892708 0 592
0.02550000 0.02547300 73000.50186882 0 -1809.27323699 0 38459.38808782 0 7927.58526830 0 31478.84090591 0 837
0.02650000 0.02652900 74444.33302518 0 2516.97195010 0 39554.77318213 0 9425.87011811 0 17940.70935015 0 723
0.02750000 0.02749970 73340.09007101 0 5287.22333043 0 38313.67629321 0 -5142.53018970 0 21265.17487695 0 826
0.02850000 0.02848090 63730.97297715 0 3999.77768981 0 33481.04940286 0 3954.58045990 0 11689.93909703 0 831
0.02950000 0.02946900 64504.15341924 0 2524.71150515 0 29898.59870779 0 5323.02015656 0 5751.56341635 0 996
0.03050000 0.03053250 63443.64614811 0 -2410.55583627 0 24072.56283472 0 10414.51800117 0 142.00145857 0 1041
0.03150000 0.03150510 59687.35995338 0 414.44929752 0 18444.16795965 0 3690.59409158 0 -9553.85512069 0 1036
0.03250000 0.03246190 62926.12568608 0 1502.82450299 0 15243.60174757 0 1327.50531181 0 -12938.45444358 0 1059
0.03350000 0.03345080 55459.06055164 0 3795.81439433 0 20533.07275994 0 -6207.90928375 0 -3786.19254406 0 1302
0.03450000 0.03451200 55030.56158115 0 5738.23233726 0 21443.66075302 0 -8958.95018051 0 -10103.96143466 0 1339
0.03550000 0.03553350 51787.69908827 0 2159.59052193 0 21541.98299741 0 3596.14716087 0 -934.17868834 0 1365
0.03650000 0.03647120 52130.27681816 0 -786.34322183 0 19673.74963076 0 2264.71117376 0 -10285.93509305 0 1308
0.03750000 0.03744890 51203.74467733 0 -2983.42685006 0 16223.61321727 0 6543.25678553 0 -9320.69410466 0 1579
0.03850000 0.03847530 57896.07924422 0 -3567.35911635 0 18203.45561810 0 6248.96546417 0 -7885.55472329 0 1662
0.03950000 0.03950240 55532.02717219 0 541.69134710 0 13323.54990077 0 5014.87735686 0 -8222.93953284 0 1683
0.04050000 0.04050350 54917.40242151 0 3560.10674359 0 12529.66421128 0 -2827.52851661 0 -4782.55783752 0 1822
0.04150000 0.04152450 50153.20249854 0 4464.19528201 0 15354.76788875 0 -5217.43446709 0 -3339.84498597 0 1887
0.04250000 0.04250150 49817.48961004 0 2057.64762732 0 17995.96025099 0 -2835.06876981 0 150.33227576 0 1920
0.04350000 0.04349210 46384.62602327 0 1962.60279108 0 19592.47876659 0 -328.87904962 0 1191.07212539 0 2005
0.04450000 0.04448520 46372.77863571 0 3090.09762736 0 24704.90330511 0 1328.45753174 0 1698.36175928 0 2151
0.04550000 0.04548030 42031.09862782 0 2649.66269073 0 21528.36403789 0 3486.05503520 0 1784.90305007 0 2274
0.04650000 0.04648670 38999.38536923 0 4847.03198494 0 18014.89392643 0 6273.01455368 0 2878.05153476 0 2311
0.04750000 0.04749250 36097.66120401 0 2061.68902588 0 16394.34846598 0 4147.18355012 0 3501.47878367 0 2568
0.04850000 0.04851840 34167.20137188 0 -1080.48063787 0 13133.32736039 0 4356.41727222 0 -342.54894184 0 2493
0.04950000 0.04949480 35353.37952970 0 -419.17607298 0 14888.40156739 0 126.32304662 0 1303.47836695 0 2644
0.05050000 0.05050630 35334.99947050 0 -18.95648443 0 13101.21761842 0 -474.33618077 0 -1627.88641181 0 2829
0.05150000 0.05149060 35431.10724992 0 753.79944472 0 12901.47287869 0 -2155.87022079 0 -1727.38232263 0 2784
0.05250000 0.05249300 34831.20869125 0 1461.40293584 0 13700.11966786 0 -1234.33169846 0 -600.85963647 0 3055
0.05350000 0.05348950 34200.86123932 0 1202.86415132 0 15771.08730194 0 2475.42858738 0 150.25144779 0 3009
0.05450000 0.05448610 33915.63815200 0 -959.30179336 0 13586.07472222 0 2514.49174934 0 -2070.12613739 0 3336
0.05550000 0.05550870 33820.30543531 0 -590.87793564 0 13305.05911833 0 1419.20630595 0 -4360.85727447 0 3349
0.05650000 0.05647670 34800.20618176 0 468.75572906 0 13015.07493133 0 1460.28463103 0 -3144.51810385 0 3324
0.05750000 0.05747970 33711.35375909 0 1112.91258450 0 12651.12761454 0 -1430.79903004 0 1686.55866103 0 3639
0.05850000 0.05849280 33315.85031657 0 -488.24855690 0 12135.15727799 0 920.12790815 0 -664.19997783 0 3846
0.05950000 0.05951020 34655.15872663 0 -1025.42460994 0 11808.52369584 0 1713.22081919 0 -1633.26756167 0 3787
0.06050000 0.06049470 35226.37996403 0 344.08578053 0 12426.02725097 0 1991.02544889 0 -1244.47394799 0 3930
0.06150000 0.06148310 34762.44955413 0 412.19497219 0 10281.12970408 0 -597.49697142 0 -1920.27329330 0 4083
0.06250000 0.06249100 34083.82676599 0 -146.44699698 0 11161.67847993 0 -100.53659863 0 678.35705234 0 4303
0.06350000 0.06350600 34764.33184934 0 477.04557865 0 12155.86252540 0 964.82909791 0 -558.96528105 0 4470
0.06450000 0.06451750 34011.52448493 0 722.75596763 0 11545.88815114 0 1377.24219489 0 29.34896850 0 4479
0.06550000 0.06550280 33204.01983590 0 713.44524969 0 12498.55097854 0 1063.76696356 0 30.22390361 0 4636
0.06650000 0.06648880 33444.73217746 0 649.18811984 0 12610.60290570 0 -211.05069060 0 1663.76074422 0 4653
0.06750000 0.06749660 32687.38515986 0 1117.72904579 0 13259.77330982 0 -1175.27191788 0 1491.49751470 0 5220
0.06850000 0.06852730 31657.32678198 0 1003.74610518 0 13573.78444167 0 660.65683388 0 3753.03093123 0 5029
0.06950000 0.06949320 30189.57940402 0 1068.39630256 0 13767.66084925 0 1830.24422020 0 6029.43447999 0 5040
0.07050000 0.07048030 30592.83347392 0 868.20424091 0 13682.18250165 0 2353.87660552 0 2349.93485789 0 5475
0.07150000 0.07148790 28643.32924310 0 922.03788418 0 12918.41353566 0 1356.20477774 0 3306.40656502 0 5509
0.07250000 0.07249820 28011.54238895 0 1158.28697160 0 11640.55652834 0 -328.93551848 0 2154.36438461 0 5916
0.07350000 0.07351270 26874.19318358 0 142.07564314 0 11527.06519895 0 281.21269128 0 4071.86959671 0 5721
0.07450000 0.07449140 27547.05836281 0 403.56077329 0 12622.56101650 0 283.85676245 0 1796.68400367 0 6028
0.07550000 0.07549160 26787.93977324 0 637.63414889 0 10836.99362695 0 1096.97508015 0 3474.66161296 0 6183
0.07650000 0.07648840 26750.62603860 0 25.77382554 0 10870.18845676 0 1579.21247191 0 2564.00718593 0 6330
0.07750000 0.07749960 25916.43708676 0 2.95711901 0 9415.27390326 0 2435.49071176 0 2991.04460953 0 6583
0.07850000 0.07848650 26086.28654948 0 30.09480030 0 9039.71171774 0 2093.89841878 0 1519.64336438 0 6549
0.07950000 0.07947320 26314.59788724 0 -10.93313462 0 7391.07576922 0 1107.52036231 0 759.40093385 0 6828
0.08050000 0.08048110 26034.13589959 0 256.70299306 0 7900.66844667 0 -275.39086289 0 1502.74699671 0 7147
0.08150000 0.08149960 25185.44220224 0 1048.08965885 0 8152.18737725 0 -1283.60354390 0 1514.76046914 0 7386
0.08250000 0.08250610 24505.26928863 0 945.39384615 0 7677.45037833 0 -415.55431554 0 978.07270562 0 7227
0.08350000 0.08350160 24134.56785370 0 219.62177724 0 7956.30687888 0 300.33791794 0 -130.34008607 0 7798
0.08450000 0.08449610 23741.83249238 0 555.02242618 0 7666.48877676 0 -273.13653756 0 -861.29178853 0 7371
0.08550000 0.08548940 23276.35195701 0 940.75232759 0 8238.38542596 0 -80.01603760 0 -1151.10103280 0 8256
0.08650000 0.08650700 22185.72796237 0 1115.74709965 0 7413.34221443 0 -498.38194857 0 -616.89125557 0 8037
0.08750000 0.08749060 22007.13136305 0 446.37191720 0 7518.21927511 0 350.71035247 0 -717.38256839 0 8155
0.08850000 0.08849210 21299.72053038 0 -160.05931311 0 8056.15710410 0 708.20139666 0 -2035.68013488 0 8718
0.08950000 0.08949900 21392.72805886 0 378.68125943 0 7970.49052698 0 215.67227898 0 -938.11822151 0 8571
0.09050000 0.09049190 21040.51740638 0 615.34777349 0 7703.90216232 0 354.28782062 0 -1017.64408729 0 8932
0.09150000 0.09150830 20486.01537946 0 728.82913779 0 7945.41171126 0 294.16398962 0 -470.68784974 0 9285
0.09250000 0.09250820 20007.58022405 0 559.06493198 0 8015.25593622 0 614.97795784 0 -424.18408550 0 9204
0.09350000 0.09350330 19458.94652928 0 501.51984543 0 7611.16036964 0 572.19892368 0 117.84386028 0 9349
0.09450000 0.09448040 19313.89907416 0 -14.02066347 0 7210.12076471 0 927.42014127 0 -1068.65096603 0 9564
0.09550000 0.09549270 18848.08636904 0 471.94012968 0 6419.93323170 0 549.81179012 0 -1990.88150867 0 10155
0.09650000 0.09649430 18319.71502869 0 759.60355739 0 5667.51339865 0 259.31052556 0 -830.60594753 0 9913
0.09750000 0.09749140 17468.25325014 0 379.01121470 0 5035.75976147 0 451.23931119 0 -1625.07404131 0 10476
0.09850000 0.09850240 17434.92555243 0 171.37855078 0 4853.74181378 0 796.73238421 0 -2172.15761060 0 10575
0.09950000 0.09950330 17161.32840616 0 211.86339924 0 4409.56443135 0 56.80157994 0 -2901.48057408 0 10882
0.10050000 0.10051200 16824.95117817 0 264.89762066 0 4683.47160271 0 -243.03642254 0 -2414.24292043 0 10875
0.10150000 0.10150300 16800.59206357 0 312.58944535 0 4824.22299581 0 -534.88851073 0 -457.87938439 0 11118
0.10250000 0.10250800 16878.09833730 0 161.05250065 0 5978.65679838 0 -14.80081948 0 -903.21603922 0 11575
0.10350000 0.10349800 16464.76845182 0 434.28315297 0 5199.72981971 0 199.10365212 0 -704.60178386 0 11364
0.10450000 0.10450100 16273.10650921 0 291.98606333 0 5479.50532323 0 659.98806547 0 126.02963002 0 12093
0.10550000 0.10551000 16141.89946011 0 91.31058397 0 5853.34022608 0 -38.02889610 0 59.50765612 0 12067
0.10650000 0.10649700 15923.99610768 0 88.16250058 0 5511.07252128 0 373.26246366 0 -1023.06509752 0 12054
0.10750000 0.10749900 16086.75928251 0 123.05228187 0 6041.85762844 0 -231.97849174 0 -684.76128501 0 12807
0.10850000 0.10850100 15525.94603045 0 559.43696209 0 5993.21690551 0 -351.96484687 0 -312.20080675 0 12736
0.10950000 0.10950300 15441.13202234 0 284.49785005 0 6348.70496614 0 -107.80004371 0 -104.84794047 0 12933
0.11050000 0.11050200 15165.76330410 0 248.66448524 0 6370.05240839 0 719.82069432 0 712.94699507 0 13428
0.11150000 0.11150900 15206.06656644 0 72.29630201 0 5993.17261621 0 767.83915259 0 231.83565875 0 13453
0.11250000 0.11250000 15183.03613082 0 27.68479808 0 5982.35495486 0 792.84156927 0 1007.23942366 0 13668
0.11350000 0.11349100 14913.31429823 0 324.17109711 0 5659.50810780 0 680.38993118 0 1110.53203466 0 13791
0.11450000 0.11448600 14437.75794727 0 242.75186379 0 5137.89088560 0 799.42960253 0 1706.75458150 0 14205
0.11550000 0.11549300 14514.82132801 0 107.73981026 0 4663.43069479 0 529.42321120 0 1699.28076224 0 14776
0.11650000 0.11649800 14547.48468623 0 73.96822306 0 4588.63714064 0 154.88300126 0 1144.53514418 0 14553
0.11750000 0.11747300 14276.65562116 0 10.25839822 0 4502.28407938 0 89.37060194 0 780.30991204 0 14568
0.11850000 0.11849100 14296.80725233 0 84.86095477 0 4344.32629352 0 -195.78527637 0 601.55387123 0 16015
0.11950000 0.11950300 14190.40221083 0 -33.34829223 0 4318.93745271 0 136.15194936 0 902.01137028 0 15270
0.12050000 0.12050700 14481.49363031 0 -48.18133217 0 4678.25653772 0 -302.01648238 0 859.19801190 0 15999
0.12150000 0.12150000 14414.06317216 0 257.67735764 0 4642.01681859 0 228.04449473 0 1240.28860921 0 15670
0.12250000 0.12250700 14235.90946583 0 364.01707244 0 4673.01932809 0 494.49445533 0 1332.02282033 0 16887
0.12350000 0.12352200 13812.72521126 0 171.62546362 0 4584.81718858 0 435.25973202 0 2285.92574811 0 16407
0.12450000 0.12449800 13727.13614041 0 245.35718182 0 4340.27382264 0 612.25416594 0 999.94054714 0 16306
0.12550000 0.12549900 13401.27762100 0 228.64350751 0 4553.46036469 0 170.59130848 0 1186.55461687 0 17523
0.12650000 0.12650100 13311.70251322 0 215.72321167 0 4365.45228927 0 -331.88186411 0 1069.67515608 0 17154
0.12750000 0.12750600 13003.00609727 0 408.42152389 0 4205.30218310 0 -654.83057656 0 566.57528990 0 18007
0.12850000 0.12850300 12883.53571248 0 137.35883277 0 4718.50443844 0 -462.41903756 0 803.79099128 0 17496
0.12950000 0.12949900 12671.61141545 0 160.77569253 0 4329.93227126 0 356.24651488 0 41.86268857 0 18405
0.13050000 0.13049000 12818.09827280 0 111.53927853 0 4281.67907970 0 97.69333634 0 -52.35714875 0 18100
0.13150000 0.13148800 12595.54454395 0 -8.18241482 0 4004.22876439 0 160.27522345 0 -637.20122099 0 19059
0.13250000 0.13249300 12608.27771749 0 122.51970305 0 4018.01380879 0 399.55923510 0 -382.51006935 0 18957
0.13350000 0.13349100 12404.98983382 0 342.17580450 0 4206.73051300 0 -87.61353472 0 -354.99534217 0 19468
0.13450000 0.13450700 12156.52686489 0 280.93256146 0 3883.72865339 0 -97.50887141 0 -103.09275554 0 19953
0.13550000 0.13551000 11932.20156406 0 446.29662540 0 4195.48103098 0 104.65173887 0 -60.20942007 0 19956
0.13650000 0.13649900 11595.71361282 0 234.48969501 0 3843.11536595 0 347.28346794 0 565.73822214 0 19723
0.13750000 0.13749600 11469.48910989 0 -34.28722537 0 3978.68491103 0 1015.99431089 0 524.96770770 0 20946
0.13850000 0.13851100 11608.77895611 0 -319.81413729 0 3373.43841947 0 812.95001837 0 615.14847165 0 20955
0.13950000 0.13949800 11445.68361153 0 35.72507747 0 3229.66428170 0 739.86713840 0 199.52440046 0 20506
0.14050000 0.14048300 11487.97989234 0 307.13411091 0 2909.81803467 0 179.82452015 0 802.32612271 0 21447
0.14150000 0.14148400 11183.82312957 0 257.75597115 0 3089.88725319 0 -181.93158356 0 1313.56525486 0 21771
0.14250000 0.14249400 11085.72233168 0 407.82472558 0 3302.91878270 0 -43.47847293 0 1528.08047590 0 22470
0.14350000 0.14350900 10755.12485724 0 182.88491073 0 3598.46127676 0 -241.40546909 0 1732.34272415 0 22519
0.14450000 0.14449900 10729.21561717 0 95.13795449 0 3690.26192183 0 179.68500885 0 2010.40201732 0 22218
0.14550000 0.14550500 10846.71512814 0 -69.12928494 0 3484.57134368 0 540.27630399 0 2160.71989906 0 23559
0.14650000 0.14650700 10792.80397860 0 -70.85911425 0 3416.36582279 0 575.22941898 0 2109.43289050 0 23044
0.14750000 0.14750500 10755.50131629 0 76.64362890 0 3173.88190926 0 563.31227578 0 1679.63845801 0 23649
0.14850000 0.14849900 10618.95740662 0 233.00489625 0 3032.02328369 0 123.50624719 0 1992.13268137 0 23640
0.14950000 0.14949500 10399.18283130 0 343.02394458 0 2753.49895288 0 -109.10646732 0 1708.41543022 0 24457
0.15050000 0.15050000 10241.81187865 0 232.00395809 0 2884.32954293 0 -158.45493325 0 1877.94379552 0 24591
0.15150000 0.15149900 10066.41518120 0 -1.20897607 0 2734.38812024 0 -293.07447286 0 1580.68509111 0 25020
0.15250000 0.15250500 10215.16079281 0 22.87918767 0 3035.77680180 0 -127.48121180 0 851.66550933 0 25297
0.15350000 0.15350100 10009.87989067 0 149.79526801 0 3085.12615352 0 -435.89085453 0 390.51868189 0 25452
0.15450000 0.15450400 9833.26523749 0 425.19277429 0 3084.10749964 0 -219.79229105 0 -183.15396822 0 26061
0.15550000 0.15549900 9645.32359602 0 350.27078117 0 3327.84258587 0 -384.36689822 0 -73.63926429 0 26128
0.15650000 0.15649500 9286.10416193 0 87.18990757 0 3056.05022854 0 129.23949698 0 -485.16712890 0 26331
0.15750000 0.15749700 9369.96595010 0 -38.76044460 0 2758.86903041 0 409.26966397 0 -659.72786583 0 27345
0.15850000 0.15849900 9317.26168397 0 70.95732577 0 2775.63253019 0 201.55838653 0 -632.44676471 0 26980
0.15950000 0.15949700 9265.04460012 0 46.55868297 0 2421.62816109 0 246.79104788 0 -364.81870875 0 27777
0.16050000 0.16050000 9242.78922724 0 76.65115808 0 2654.91097269 0 135.32152500 0 -103.06806425 0 28224
0.16150000 0.16150500 9139.90518502 0 216.41523198 0 2432.46796708 0 137.60574561 0 209.91577731 0 28075
0.16250000 0.16249700 9147.56723380 0 -12.46378388 0 2792.24101742 0 136.40107667 0 335.62652437 0 28590
0.16350000 0.16349900 8972.53592306 0 153.87984863 0 2750.11082148 0 -52.67824617 0 462.53640421 0 29163
0.16450000 0.16449100 9032.52577893 0 214.98136591 0 2970.99262929 0 99.44409234 0 495.92167800 0 28996
0.16550000 0.16550500 8733.16333281 0 107.46455227 0 2827.29599779 0 34.63655722 0 124.48171901 0 30777
0.16650000 0.16650700 8709.13638795 0 141.69364794 0 2597.34595596 0 14.75265487 0 405.60804615 0 29211
0.16750000 0.16749900 8584.34021492 0 73.20943664 0 2658.33232106 0 -67.73860095 0 251.41595796 0 30922
0.16850000 0.16850800 8627.38941382 0 -5.09634752 0 2712.33204920 0 31.35195206 0 230.90226177 0 30867
0.16950000 0.16949900 8592.74410946 0 -11.55673903 0 2685.74739731 0 139.66962696 0 356.00403096 0 30852
0.17050000 0.17049200 8636.53515412 0 88.26237295 0 2654.27985018 0 201.23175295 0 266.53078857 0 31257
0.17150000 0.17149500 8501.07633229 0 80.44464729 0 2539.13874439 0 156.52613426 0 274.08875749 0 32608
0.17250000 0.17250900 8508.58336851 0 176.48732145 0 2566.17736159 0 226.18545140 0 37.36289576 0 32361
0.17350000 0.17350400 8250.85286371 0 204.51248280 0 2515.79828367 0 126.52567017 0 212.02948411 0 32508
0.17450000 0.17449800 8109.65857762 0 215.99116193 0 2434.25061138 0 -43.43983051 0 197.22578583 0 32791
0.17550000 0.17549800 7929.42327422 0 178.45598080 0 2324.62352335 0 70.12236176 0 394.14043934 0 33633
0.17650000 0.17650100 7861.11810242 0 27.17857139 0 2192.46425431 0 351.45662716 0 122.83304984 0 33984
0.17750000 0.17750300 7869.25626116 0 -132.63427177 0 2003.28251246 0 331.53751481 0 304.30513192 0 34069
