### header ###
fiducial parameters:
Omega_m = 0.31
Omega_nu = 0
Omega_de = 0.69
Omega_k = 0
H_0 = 100
w_de = -1
zeff = 0
beta = 0
fgrowth = 0
b_1 = 2
gamma = 0.55
Lx = 3500 Ly = 3500 Lz = 3500
nx = 700 ny = 700 nz = 700
xoffset = -685.467585 yoffset = -31.7331281 zoffset = 572.489161
bins = 400 dk = 0.001
kx_ny = 0.628318531 ky_ny = 0.628318531 kz_ny = 0.628318531
############################
A(data) = 8.0112766 (not used)
A(ran) = 8.00642478 (used)
Ngal = 476262
weighted Ngal = 0
Nran = 23820508
weighted Nran = 0
SN(data) = 3494.12354
SN(ran) = 69.7388635
SN(data+ran) = 3563.86241
############################
13 columns: k_central k_mean P_0(k) sigma^{lin}_{P_0(k)} P^img_1(k) sigma^{lin}_{P_1(k)} P_2(k) sigma^{lin}_{P_2(k)} P^img_3(k) sigma^{lin}_{P_3(k)} P_4(k) sigma^{lin}_{P_4(k)} N_modes
### header ###
0.00050000 0 0 0 0 0 0 0 0 0 0 0 0
0.00150000 0.00179520 37627.19215445 0 -19052.70293169 0 28545.33916846 0 8021.06890675 0 -48127.52067297 0 3
0.00250000 0.00253879 61215.23005511 0 -12640.60890596 0 42837.71749086 0 -34169.63728334 0 1327.51638413 0 6
0.00350000 0.00331552 58460.10347048 0 10923.76743655 0 29953.73888539 0 -2543.29086619 0 27107.81923725 0 7
0.00450000 0.00420575 62904.53465269 0 10319.55067120 0 45149.84035949 0 46671.28851282 0 19635.77155664 0 24
0.00550000 0.00557378 89298.74255538 0 -834.03836822 0 75321.15042756 0 43775.98629599 0 -31734.83305571 0 45
0.00650000 0.00659388 88473.19001690 0 10063.18206235 0 107173.35012636 0 28063.69303884 0 -23661.33669095 0 40
0.00750000 0.00754703 76307.69456891 0 30971.61770597 0 81555.53363995 0 44527.13281169 0 4665.14690514 0 57
0.00850000 0.00846663 72775.73367501 0 2214.16601096 0 69053.32879423 0 30190.46519001 0 -22997.55081807 0 75
0.00950000 0.00948925 60985.47931512 0 -15282.46560769 0 33082.00281640 0 39866.56984903 0 -45763.02570795 0 112
0.01050000 0.01054430 89638.33075756 0 -12783.55261937 0 30541.45788676 0 55200.18959738 0 -29426.47477752 0 105
0.01150000 0.01145670 79778.86839955 0 -12835.37109952 0 -18652.32766624 0 12351.51050494 0 -57371.14032457 0 144
0.01250000 0.01249090 84435.66677178 0 -5907.68319629 0 -32958.54639467 0 6768.37929374 0 -25920.31240045 0 169
0.01350000 0.01339930 91893.43115338 0 -12818.98405879 0 -47668.24063949 0 -22408.61386097 0 -59053.35863426 0 180
0.01450000 0.01448870 96520.00207885 0 -2603.56860251 0 -45930.21781271 0 -28319.24229566 0 -55793.77693090 0 267
0.01550000 0.01550050 91492.61299494 0 16354.82026637 0 -21668.20750035 0 -61269.15227697 0 -48146.56507166 0 238
0.01650000 0.01653350 74711.50822305 0 18015.44754267 0 -5466.82751131 0 -46788.76587915 0 -39193.37250005 0 315
0.01750000 0.01747870 73170.90494778 0 9407.23539544 0 20205.44266855 0 -24263.44971459 0 -22530.18798748 0 297
0.01850000 0.01844180 62633.37341788 0 4776.12481680 0 27549.16210452 0 -10521.89740726 0 -19973.03457061 0 388
0.01950000 0.01947590 69329.14040546 0 -748.90104822 0 37395.78056574 0 5995.18777933 0 -17369.37738951 0 399
0.02050000 0.02045430 70415.22474692 0 -357.82321393 0 35667.39066155 0 11544.89164191 0 -4896.76886802 0 462
0.02150000 0.02154770 68082.72880062 0 2252.65341203 0 36334.27678538 0 10787.35639479 0 57.66577489 0 571
0.02250000 0.02255340 70872.29031543 0 -2495.66879715 0 41103.45925452 0 18779.99157140 0 14900.58112469 0 510
0.02350000 0.02348930 70233.97078964 0 -4607.39365889 0 24625.40401291 0 18469.08069049 0 13179.94184788 0 555
0.02450000 0.02439640 72219.23862962 0 -1096.96732953 0 25680.37512163 0 15535.02533680 0 7177.44633417 0 592
0.02550000 0.02547300 73421.69310493 0 2156.08059496 0 21283.66565939 0 3181.64360896 0 5338.90894268 0 837
0.02650000 0.02652900 64847.72765836 0 7160.12921815 0 25515.50820508 0 -2286.80046177 0 10055.11033756 0 723
0.02750000 0.02749970 66602.69114211 0 3123.70213319 0 20634.27380878 0 1473.26139572 0 14009.48042329 0 826
0.02850000 0.02848090 61111.92526455 0 -584.37183758 0 26816.28492478 0 -2283.73342779 0 6729.52650595 0 831
0.02950000 0.02946900 66609.99887649 0 -967.92713439 0 26241.52054344 0 390.63494130 0 6043.55169414 0 996
0.03050000 0.03053250 65459.91649758 0 831.84826237 0 25170.16239399 0 3220.55175838 0 5935.71832273 0 1041
0.03150000 0.03150510 62959.34266054 0 365.70117304 0 24896.45452447 0 2073.02708650 0 12624.55403497 0 1036
0.03250000 0.03246190 63146.68639647 0 2658.94129892 0 26479.02191080 0 8644.58473426 0 5077.95639135 0 1059
0.03350000 0.03345080 62434.73591063 0 4217.00563043 0 27739.60609140 0 -3183.00550492 0 6327.62325968 0 1302
0.03450000 0.03451200 56835.79341959 0 5655.52207087 0 25490.70619749 0 73.05984953 0 2394.33488041 0 1339
0.03550000 0.03553350 52806.90658783 0 3934.01915271 0 21496.14357266 0 -4736.44160465 0 3987.03344395 0 1365
0.03650000 0.03647120 51618.95685803 0 1831.06357223 0 27597.65888723 0 1025.26849016 0 4673.05254506 0 1308
0.03750000 0.03744890 52477.61564772 0 84.69132675 0 25926.95579534 0 1510.40904549 0 -3008.71603995 0 1579
0.03850000 0.03847530 49608.55484071 0 2020.05708456 0 27920.63860219 0 753.60789350 0 -735.83459771 0 1662
0.03950000 0.03950240 46981.86722398 0 4757.66725132 0 24324.12605459 0 2214.77498882 0 -2451.34628090 0 1683
0.04050000 0.04050350 46055.22435991 0 1050.39491687 0 27063.64066122 0 966.43347777 0 3327.41076520 0 1822
0.04150000 0.04152450 44287.08480962 0 551.70405044 0 29557.79254987 0 6396.92494072 0 -148.73011036 0 1887
0.04250000 0.04250150 43216.50172291 0 2193.27253403 0 27648.37013490 0 6667.20038955 0 2005.37518185 0 1920
0.04350000 0.04349210 41916.05717296 0 366.54156249 0 23097.42318794 0 4456.48894393 0 418.55380833 0 2005
0.04450000 0.04448520 41631.71987161 0 -1363.29106562 0 20892.03753056 0 6116.78405049 0 1744.58871540 0 2151
0.04550000 0.04548030 42818.23019918 0 -562.86384662 0 19824.33324830 0 828.30290396 0 1315.45862240 0 2274
0.04650000 0.04648670 41731.37079498 0 1003.24342163 0 16941.43203527 0 3831.40084630 0 778.98455476 0 2311
0.04750000 0.04749250 41162.14257605 0 942.55490207 0 13497.38540043 0 78.23195390 0 6541.15304381 0 2568
0.04850000 0.04851840 39040.90658730 0 2057.24902363 0 12645.14855914 0 4474.97972638 0 4098.39888697 0 2493
0.04950000 0.04949480 38458.05940885 0 347.34990189 0 10493.27544761 0 2380.87093343 0 5581.81360455 0 2644
0.05050000 0.05050630 37509.60406488 0 -166.67724166 0 10604.17585299 0 5270.79200039 0 377.91505455 0 2829
0.05150000 0.05149060 38608.31085663 0 -161.84306464 0 8526.68661959 0 1229.90276853 0 1762.07191629 0 2784
0.05250000 0.05249300 37552.56468518 0 861.45787340 0 8618.49833699 0 -534.73239095 0 2715.07798575 0 3055
0.05350000 0.05348950 36643.19464782 0 1306.19108653 0 10129.46099871 0 -747.84917737 0 3042.47555832 0 3009
0.05450000 0.05448610 37190.72111010 0 890.17837675 0 9661.88779395 0 -1722.78730783 0 2929.62642377 0 3336
0.05550000 0.05550870 35642.69937721 0 750.65601171 0 12845.11474536 0 -917.50487440 0 1916.61942611 0 3349
0.05650000 0.05647670 35740.46800536 0 1324.31648226 0 13063.79316053 0 -1964.08648261 0 -179.54328310 0 3324
0.05750000 0.05747970 35194.71311505 0 1153.40407636 0 15860.10879348 0 -707.84597503 0 2129.97205304 0 3639
0.05850000 0.05849280 33317.95405829 0 525.25780261 0 13213.38026883 0 73.72961446 0 2854.48962755 0 3846
0.05950000 0.05951020 35061.40232423 0 -1622.67134682 0 13725.25384519 0 2918.26621850 0 991.32960013 0 3787
0.06050000 0.06049470 35805.57327529 0 -1096.77799277 0 13240.61818788 0 1916.30940101 0 354.71521236 0 3930
0.06150000 0.06148310 36211.92759613 0 477.63351910 0 13002.12031129 0 1355.15290688 0 -2266.25022691 0 4083
0.06250000 0.06249100 34747.50191562 0 1373.45545980 0 12033.95622915 0 250.52685028 0 828.84655511 0 4303
0.06350000 0.06350600 34256.88720291 0 1718.91199415 0 14332.90303124 0 795.02946065 0 4593.79684401 0 4470
0.06450000 0.06451750 33260.37796923 0 406.29120859 0 11020.07451783 0 3615.47944001 0 5012.53002400 0 4479
0.06550000 0.06550280 33277.76151919 0 -154.18655203 0 11321.00923407 0 2724.98771647 0 3492.73164707 0 4636
0.06650000 0.06648880 32778.95328611 0 156.07991957 0 9639.13416645 0 1428.01987651 0 4632.02958161 0 4653
0.06750000 0.06749660 32459.40599185 0 498.30554953 0 9589.98411658 0 -1323.43069627 0 2611.98356937 0 5220
0.06850000 0.06852730 32459.29526860 0 750.97821636 0 9847.59282581 0 -1679.00733550 0 718.79982597 0 5029
0.06950000 0.06949320 31583.14220570 0 40.60520464 0 9475.25268680 0 479.46488162 0 -627.68123611 0 5040
0.07050000 0.07048030 31239.01435034 0 974.23393061 0 10442.07701764 0 -2716.40666473 0 -2909.43050330 0 5475
0.07150000 0.07148790 29854.19868527 0 2003.99114125 0 9519.04373146 0 393.51817468 0 -3288.91229181 0 5509
0.07250000 0.07249820 28241.95746842 0 1145.34342389 0 9962.14709838 0 770.07797667 0 -3449.50529098 0 5916
0.07350000 0.07351270 27345.76349760 0 884.23032385 0 8219.63998005 0 2180.87153023 0 -3097.88147171 0 5721
0.07450000 0.07449140 26955.79621749 0 64.73013957 0 9154.54279843 0 1733.01813596 0 -4424.24633406 0 6028
0.07550000 0.07549160 26144.52697803 0 546.12027703 0 8294.99822276 0 190.89573773 0 -3835.81870390 0 6183
0.07650000 0.07648840 25484.17352584 0 1541.54442288 0 8580.16594847 0 -664.94293082 0 -1789.13267815 0 6330
0.07750000 0.07749960 24570.92817480 0 1050.66397437 0 9262.16579567 0 -1147.52467188 0 -1295.83846283 0 6583
0.07850000 0.07848650 24101.90449548 0 550.22368061 0 9691.81628793 0 128.57405026 0 898.41286471 0 6549
0.07950000 0.07947320 24370.29764909 0 -46.83681977 0 10932.63636873 0 999.15330484 0 -684.38261151 0 6828
0.08050000 0.08048110 24316.15398073 0 30.74673879 0 11649.85728119 0 1561.83999427 0 1246.17908601 0 7147
0.08150000 0.08149960 24052.63265004 0 179.39823564 0 11093.47295905 0 499.76377471 0 1797.37048781 0 7386
0.08250000 0.08250610 24149.07259921 0 507.28077603 0 11740.09672846 0 1860.42737765 0 3585.16341465 0 7227
0.08350000 0.08350160 23463.91713943 0 342.06397402 0 10278.26197195 0 477.77524485 0 3833.09491199 0 7798
0.08450000 0.08449610 22812.53227035 0 738.90938231 0 9650.26185289 0 1772.34703372 0 3993.34466909 0 7371
0.08550000 0.08548940 22243.63622117 0 316.79803601 0 8732.33290845 0 1491.71896119 0 4150.11771620 0 8256
0.08650000 0.08650700 21986.53683888 0 385.74097373 0 7282.98773434 0 1945.85036363 0 2999.94675869 0 8037
0.08750000 0.08749060 21417.75151295 0 260.15312947 0 6867.00049090 0 10.65629329 0 1937.36896282 0 8155
0.08850000 0.08849210 21002.87150199 0 94.01654944 0 5542.05288613 0 -202.74312529 0 -518.94547023 0 8718
0.08950000 0.08949900 20432.20388084 0 747.63991043 0 6568.06986545 0 -1264.27126477 0 -492.31652904 0 8571
0.09050000 0.09049190 20616.89025882 0 452.12841888 0 6063.55938508 0 -1271.97760284 0 -1366.63490772 0 8932
0.09150000 0.09150830 20354.80833036 0 -215.24488724 0 6659.51619612 0 109.36766346 0 -120.75588170 0 9285
0.09250000 0.09250820 20363.88763671 0 -154.97490156 0 6332.83832467 0 455.39032577 0 -1250.92911336 0 9204
0.09350000 0.09350330 20670.59103419 0 457.56603760 0 7370.78019782 0 663.64746882 0 -451.64566551 0 9349
0.09450000 0.09448040 20225.04068348 0 779.58356753 0 6831.83478728 0 372.19509155 0 -526.81789317 0 9564
0.09550000 0.09549270 19405.68864690 0 994.69558687 0 7021.86909814 0 316.92647498 0 1016.39512905 0 10155
0.09650000 0.09649430 18882.18912948 0 430.37572954 0 6957.22886585 0 -47.31713722 0 1115.44814688 0 9913
0.09750000 0.09749140 18604.16305328 0 101.34775715 0 7524.01010099 0 487.88870634 0 670.49459449 0 10476
0.09850000 0.09850240 18344.29558979 0 473.29316777 0 6690.60728421 0 973.96487311 0 1068.74065187 0 10575
0.09950000 0.09950330 17648.28925169 0 480.79909676 0 6168.72432621 0 684.77125011 0 1315.90151540 0 10882
0.10050000 0.10051200 17475.89315426 0 204.10169954 0 5884.42024184 0 682.60661060 0 281.50278619 0 10875
0.10150000 0.10150300 16547.47871822 0 574.82195742 0 5401.03575724 0 630.05846425 0 997.09828136 0 11118
0.10250000 0.10250800 16483.70212726 0 148.63488837 0 4619.72822873 0 165.34745545 0 -13.28247158 0 11575
0.10350000 0.10349800 16397.44871693 0 -99.73894835 0 5004.00433389 0 122.33258076 0 361.45825817 0 11364
0.10450000 0.10450100 16224.38828001 0 -48.29294121 0 4639.97951083 0 33.03472399 0 -252.15558926 0 12093
0.10550000 0.10551000 16710.68478605 0 9.13522159 0 4893.25894105 0 -386.69430090 0 163.11859646 0 12067
0.10650000 0.10649700 16162.93687727 0 552.98954735 0 5124.74803604 0 -680.71435029 0 -183.31562416 0 12054
0.10750000 0.10749900 16038.81611605 0 656.87452773 0 5566.27913283 0 -165.10497153 0 284.10588975 0 12807
0.10850000 0.10850100 15599.57699049 0 268.03773198 0 5944.05578332 0 28.89046353 0 139.75709833 0 12736
0.10950000 0.10950300 15701.11020908 0 64.78561192 0 5706.16688459 0 91.17539089 0 -120.20890886 0 12933
0.11050000 0.11050200 15702.32816481 0 213.31055210 0 6076.69116232 0 173.81003331 0 -466.93654609 0 13428
0.11150000 0.11150900 15387.54197022 0 359.10317468 0 5809.67097699 0 -99.04404924 0 46.69487256 0 13453
0.11250000 0.11250000 15064.78370175 0 90.61623849 0 5851.18112274 0 404.01806031 0 443.85739224 0 13668
0.11350000 0.11349100 15044.18917759 0 -94.11321083 0 5188.84572441 0 805.51495225 0 -598.99284250 0 13791
0.11450000 0.11448600 15167.42415282 0 -38.69987898 0 5576.62068421 0 316.64966686 0 -113.90986327 0 14205
0.11550000 0.11549300 15100.65803417 0 47.80896989 0 4919.04638556 0 192.62744933 0 -936.97887929 0 14776
0.11650000 0.11649800 15153.47302355 0 218.70055982 0 5150.10365987 0 38.00553349 0 -335.83911300 0 14553
0.11750000 0.11747300 14769.15262910 0 212.22546426 0 5290.10213488 0 -150.48618108 0 -290.05504988 0 14568
0.11850000 0.11849100 14851.30927925 0 227.47205554 0 5136.01966270 0 122.10116917 0 -593.16990688 0 16015
0.11950000 0.11950300 14545.15949801 0 191.89889036 0 5115.20369204 0 -92.82882115 0 -681.00444520 0 15270
0.12050000 0.12050700 14185.41966466 0 472.08185543 0 4908.62732790 0 -31.96934490 0 -839.56124384 0 15999
0.12150000 0.12150000 14030.62856369 0 483.24829501 0 5353.84550886 0 236.34652388 0 -702.42385756 0 15670
0.12250000 0.12250700 13645.75455300 0 11.12746500 0 4778.77110243 0 507.09143928 0 -738.89166659 0 16887
0.12350000 0.12352200 13765.55710753 0 -223.42622805 0 5059.64276610 0 736.14130110 0 -676.12708612 0 16407
0.12450000 0.12449800 13850.03894590 0 -127.84549129 0 4498.26482547 0 649.62104774 0 -481.30842370 0 16306
0.12550000 0.12549900 13946.70034157 0 17.16686457 0 4440.64444712 0 614.20843127 0 -139.60983641 0 17523
0.12650000 0.12650100 13674.32115103 0 267.39885884 0 3580.54625520 0 353.64784024 0 -198.80137765 0 17154
0.12750000 0.12750600 13682.07177840 0 184.02203849 0 3523.51271006 0 481.33167559 0 319.83406748 0 18007
0.12850000 0.12850300 13491.62779152 0 66.60479488 0 3311.51090676 0 492.34753155 0 34.95544018 0 17496
0.12950000 0.12949900 13248.92243150 0 134.31283621 0 3165.62195495 0 216.97106268 0 -30.88514285 0 18405
0.13050000 0.13049000 13027.80810487 0 272.75675682 0 2774.37028516 0 -5.46167888 0 -1030.89876733 0 18100
0.13150000 0.13148800 12607.72410125 0 383.74020463 0 2878.67158495 0 -228.62689902 0 -214.91271750 0 19059
0.13250000 0.13249300 12639.05878048 0 260.53291022 0 3038.38987046 0 -274.92471801 0 -634.08657602 0 18957
0.13350000 0.13349100 12308.99277764 0 261.28693554 0 2893.78530833 0 66.02493723 0 -288.98989223 0 19468
0.13450000 0.13450700 12262.48901340 0 58.41160669 0 2949.43481287 0 39.25006280 0 -194.12774935 0 19953
0.13550000 0.13551000 12319.51148622 0 -82.44829519 0 3096.55279273 0 515.13991219 0 322.60879208 0 19956
0.13650000 0.13649900 12327.70500658 0 44.11214208 0 3240.17191795 0 421.34514142 0 448.82222269 0 19723
0.13750000 0.13749600 12365.90452721 0 170.00668973 0 3164.00539553 0 354.81929221 0 527.74907569 0 20946
0.13850000 0.13851100 12021.00160911 0 375.24994596 0 3422.42238447 0 -185.28317628 0 741.99302477 0 20955
0.13950000 0.13949800 11694.03585721 0 506.45035167 0 3476.20066611 0 -272.08245223 0 880.95070124 0 20506
0.14050000 0.14048300 11494.51256398 0 217.52246446 0 3506.35060659 0 -148.11006017 0 941.51410354 0 21447
0.14150000 0.14148400 11222.13337344 0 91.86862915 0 3562.68659527 0 36.09433951 0 1212.91782226 0 21771
0.14250000 0.14249400 11382.68208331 0 56.97563688 0 3717.47769624 0 -307.76744789 0 664.22765864 0 22470
0.14350000 0.14350900 11313.92294619 0 80.97346152 0 3811.95784391 0 98.35490775 0 777.52965127 0 22519
0.14450000 0.14449900 11164.00366814 0 262.61007835 0 3935.59142284 0 -72.76477207 0 648.97220950 0 22218
0.14550000 0.14550500 11073.65349762 0 135.46767969 0 3825.58787577 0 103.34564744 0 336.01405574 0 23559
0.14650000 0.14650700 10807.59660456 0 244.62751561 0 3953.77218019 0 115.96267229 0 534.27731840 0 23044
0.14750000 0.14750500 10638.14574553 0 276.03970112 0 3549.47731176 0 140.60080948 0 -79.41813206 0 23649
0.14850000 0.14849900 10369.64186868 0 145.24232804 0 3566.31831781 0 166.72153096 0 54.04047430 0 23640
0.14950000 0.14949500 10237.11721293 0 199.61962246 0 3411.71544637 0 177.15498263 0 -261.24043177 0 24457
0.15050000 0.15050000 10048.03512200 0 131.57243582 0 3268.17382742 0 177.81710766 0 38.40845539 0 24591
0.15150000 0.15149900 9906.49759384 0 90.57848186 0 3139.08159236 0 423.13221464 0 401.30755519 0 25020
0.15250000 0.15250500 9982.45374210 0 43.09603483 0 3046.89341592 0 307.10421563 0 314.48613459 0 25297
0.15350000 0.15350100 9947.33232777 0 32.60910382 0 2967.41626837 0 322.56228831 0 745.14199395 0 25452
0.15450000 0.15450400 9800.34721581 0 158.16151664 0 3057.63357099 0 -23.39161486 0 468.20654175 0 26061
0.15550000 0.15549900 9742.11785958 0 245.45018935 0 3035.24533021 0 -204.54348530 0 723.44355900 0 26128
0.15650000 0.15649500 9543.18139957 0 299.64589764 0 3199.51434122 0 -162.84953897 0 440.40614859 0 26331
0.15750000 0.15749700 9187.31687990 0 383.19655349 0 3385.83942327 0 -416.35373739 0 550.97216977 0 27345
0.15850000 0.15849900 9012.94990865 0 182.17406747 0 3353.68539199 0 -27.31221435 0 362.60867272 0 26980
0.15950000 0.15949700 8988.11468408 0 -7.11925019 0 3274.83936696 0 484.18279923 0 691.66709400 0 27777
0.16050000 0.16050000 9090.46725471 0 -211.67738419 0 3058.25362118 0 400.14606832 0 432.75738661 0 28224
0.16150000 0.16150500 9190.08496110 0 -86.89936977 0 3047.60204471 0 224.35962503 0 241.94247684 0 28075
0.16250000 0.16249700 9195.36646004 0 255.73195017 0 2894.38321387 0 24.94616926 0 12.69674559 0 28590
0.16350000 0.16349900 8879.49517761 0 165.17361995 0 2499.32266434 0 -119.32090841 0 103.90911805 0 29163
0.16450000 0.16449100 8882.46256066 0 22.38547270 0 2683.93153604 0 -8.36982499 0 172.86445677 0 28996
0.16550000 0.16550500 8910.96272475 0 -64.67322782 0 2581.67861634 0 128.69252413 0 -424.32027510 0 30777
0.16650000 0.16650700 8892.38336370 0 88.98152045 0 2561.61556377 0 183.27687103 0 -310.13028201 0 29211
0.16750000 0.16749900 8649.99910110 0 281.59357925 0 2373.41925883 0 21.72157611 0 -603.37416143 0 30922
0.16850000 0.16850800 8455.52478798 0 341.80931055 0 2542.90333482 0 29.32217348 0 -24.70534620 0 30867
0.16950000 0.16949900 8299.87004568 0 171.25121904 0 2582.34295583 0 183.52599833 0 296.03631975 0 30852
0.17050000 0.17049200 8208.04725596 0 99.14237149 0 2552.13765372 0 198.86448991 0 372.14858778 0 31257
0.17150000 0.17149500 8199.37762563 0 40.12699093 0 2686.20136263 0 311.79113073 0 618.04056289 0 32608
0.17250000 0.17250900 8053.94263913 0 122.37244113 0 2608.91653539 0 34.48486637 0 655.57352956 0 32361
0.17350000 0.17350400 8024.67848464 0 244.13811886 0 2559.62254530 0 162.79307011 0 1112.68006568 0 32508
0.17450000 0.17449800 7827.87898331 0 40.59357870 0 2373.35282488 0 160.78344316 0 954.82414520 0 32791
0.17550000 0.17549800 7829.11908369 0 9.25251073 0 2299.97652830 0 11.96054672 0 960.61829278 0 33633
0.17650000 0.17650100 7839.34991182 0 38.01140183 0 2534.55480191 0 29.10360579 0 702.46039624 0 33984
0.17750000 0.17750300 7862.30284117 0 -1.41358156 0 2115.01334221 0 7.52181778 0 478.15613283 0 34069
0.17850000 0.17849800 7780.65551796 0 -2.50837983 0 2188.19033693 0 144.19931504 0 639.51312241 0 34536
