### header ###
fiducial parameters:
Omega_m = 0.31
Omega_nu = 0
Omega_de = 0.69
Omega_k = 0
H_0 = 100
w_de = -1
zeff = 0
beta = 0
fgrowth = 0
b_1 = 2
gamma = 0.55
Lx = 3500 Ly = 3500 Lz = 3500
nx = 700 ny = 700 nz = 700
xoffset = -685.467585 yoffset = -31.7331281 zoffset = 572.489161
bins = 400 dk = 0.001
kx_ny = 0.628318531 ky_ny = 0.628318531 kz_ny = 0.628318531
############################
A(data) = 8.05606463 (not used)
A(ran) = 8.05175096 (used)
Ngal = 478409
weighted Ngal = 0
Nran = 23820508
weighted Nran = 0
SN(data) = 3489.36572
SN(ran) = 70.1336709
SN(data+ran) = 3559.49939
############################
13 columns: k_central k_mean P_0(k) sigma^{lin}_{P_0(k)} P^img_1(k) sigma^{lin}_{P_1(k)} P_2(k) sigma^{lin}_{P_2(k)} P^img_3(k) sigma^{lin}_{P_3(k)} P_4(k) sigma^{lin}_{P_4(k)} N_modes
### header ###
0.00050000 0 0 0 0 0 0 0 0 0 0 0 0
0.00150000 0.00179520 3885.85453975 0 -7178.42069875 0 -7799.54490410 0 15898.64048385 0 2537.12358127 0 3
0.00250000 0.00253879 9107.24182681 0 -9551.27526901 0 -1255.33589864 0 566.06153403 0 -5718.19142934 0 6
0.00350000 0.00331552 13011.31034089 0 -4482.71928143 0 -4293.95828792 0 2509.08845483 0 8007.32815165 0 7
0.00450000 0.00420575 19802.07787541 0 -6755.49110765 0 -13049.50986151 0 12590.45127453 0 2147.12308418 0 24
0.00550000 0.00557378 30446.12517007 0 -15490.18242129 0 -24223.03572900 0 19972.92384736 0 4865.72206923 0 45
0.00650000 0.00659388 42156.43734477 0 -15326.53346047 0 -36674.19715731 0 28911.72239670 0 30121.48460639 0 40
0.00750000 0.00754703 49301.29782699 0 -13172.08049725 0 -34049.50255905 0 13287.67556836 0 11725.37053645 0 57
0.00850000 0.00846663 61601.43274478 0 -17750.37608652 0 -42830.18830998 0 1948.80667436 0 35167.25374950 0 75
0.00950000 0.00948925 70901.41052971 0 -2373.52998207 0 -29115.34245012 0 -8056.09067015 0 11508.46369325 0 112
0.01050000 0.01054430 64216.49442045 0 -11530.94051263 0 -24683.42299496 0 -27921.52438817 0 24981.26853258 0 105
0.01150000 0.01145670 84032.96631812 0 -4682.17614071 0 -16871.89783541 0 -5100.05675169 0 21386.85972670 0 144
0.01250000 0.01249090 76787.56912655 0 -225.55875781 0 -8401.64685541 0 -26809.75225313 0 18791.17461947 0 169
0.01350000 0.01339930 82028.32190971 0 2052.80902138 0 -13459.62877279 0 1240.16681364 0 1594.89088385 0 180
0.01450000 0.01448870 84744.25246447 0 6120.49327930 0 5438.38270885 0 -24229.12550765 0 4821.64314413 0 267
0.01550000 0.01550050 79926.13031964 0 6204.55436933 0 9156.30329808 0 -11881.71176289 0 4171.66446030 0 238
0.01650000 0.01653350 73514.14701716 0 9491.93868031 0 27575.51423759 0 -80.91511037 0 11975.49435410 0 315
0.01750000 0.01747870 68765.66979544 0 4620.94618446 0 24725.16565953 0 -12991.82304921 0 7635.87379863 0 297
0.01850000 0.01844180 68156.35976067 0 5962.21439602 0 39765.03663044 0 15223.78228615 0 9402.10890905 0 388
0.01950000 0.01947590 67408.86711216 0 1248.96931187 0 40492.93126402 0 1534.94531728 0 10549.92146138 0 399
0.02050000 0.02045430 63184.33230085 0 -1323.82929997 0 37553.22902467 0 7795.81353064 0 12461.12652065 0 462
0.02150000 0.02154770 67707.70915901 0 -1669.91695682 0 33120.64523002 0 8695.69458562 0 8137.22866642 0 571
0.02250000 0.02255340 68237.63062484 0 -3714.22243274 0 33746.89592176 0 15014.18317733 0 13270.62418814 0 510
0.02350000 0.02348930 68474.13548296 0 -2689.56734937 0 25285.97891159 0 7560.24982012 0 9802.43988520 0 555
0.02450000 0.02439640 66693.70565212 0 4025.58727896 0 15025.47694865 0 12037.83154283 0 11777.96407934 0 592
0.02550000 0.02547300 62351.58275124 0 4579.03743502 0 11213.38623684 0 4641.10888796 0 4042.40614036 0 837
0.02650000 0.02652900 59080.37510682 0 1989.57497434 0 8893.78954895 0 1806.98126575 0 8423.33753973 0 723
0.02750000 0.02749970 57405.57525475 0 161.29277010 0 4582.14875830 0 631.69827555 0 2780.65936566 0 826
0.02850000 0.02848090 56778.43877703 0 371.33477191 0 9844.22683906 0 -1397.19452422 0 7944.50378063 0 831
0.02950000 0.02946900 56904.66327996 0 945.03510283 0 11272.84462111 0 -7802.63408273 0 -4666.47558412 0 996
0.03050000 0.03053250 55878.70166226 0 2634.89220942 0 11314.91945542 0 -2443.29670076 0 -1041.61456329 0 1041
0.03150000 0.03150510 53064.33813986 0 1115.27098968 0 11845.94815373 0 -3639.18528744 0 -5338.95323198 0 1036
0.03250000 0.03246190 54056.08627387 0 803.56068692 0 10532.73721326 0 -195.77974021 0 -4946.92649945 0 1059
0.03350000 0.03345080 54101.15063588 0 -486.33415194 0 9569.22350754 0 3074.58530029 0 -14628.09121091 0 1302
0.03450000 0.03451200 51260.43498040 0 2806.28072529 0 9193.42880320 0 -1791.34714311 0 -8325.20352487 0 1339
0.03550000 0.03553350 49247.04343538 0 2494.19617795 0 7333.94257315 0 1339.85095398 0 -13003.33826702 0 1365
0.03650000 0.03647120 47762.68757019 0 2728.39799251 0 9328.27864716 0 1691.65193044 0 -6887.46214717 0 1308
0.03750000 0.03744890 45358.99657531 0 1660.45011910 0 10169.69782711 0 -1697.61991352 0 -10782.75030766 0 1579
0.03850000 0.03847530 45968.19588684 0 1231.64112353 0 15524.94952122 0 -5313.67511442 0 -6954.72652044 0 1662
0.03950000 0.03950240 46447.29538174 0 1728.41204884 0 20117.86057924 0 -6942.55803546 0 -1963.57715566 0 1683
0.04050000 0.04050350 44194.63089739 0 2076.83596623 0 23935.48745346 0 -2374.44898503 0 3969.19592866 0 1822
0.04150000 0.04152450 46480.06946320 0 -1270.20603087 0 25884.43806804 0 -600.92385595 0 -30.76744404 0 1887
0.04250000 0.04250150 46449.39912345 0 -1197.22833799 0 25592.35013932 0 4843.12345427 0 2165.84638545 0 1920
0.04350000 0.04349210 46975.33455234 0 1884.07786347 0 26635.36313724 0 4413.67226386 0 -2628.84672007 0 2005
0.04450000 0.04448520 44635.86304141 0 3394.49798128 0 21577.96805307 0 2928.33096176 0 506.83013241 0 2151
0.04550000 0.04548030 41965.10757190 0 2438.83455385 0 19326.30007795 0 3300.48287124 0 1226.32640761 0 2274
0.04650000 0.04648670 39314.94662656 0 388.70614232 0 16292.37235440 0 4200.80681922 0 1899.77842006 0 2311
0.04750000 0.04749250 39512.03400833 0 -483.04456424 0 16244.65063443 0 7388.63985776 0 -417.95811725 0 2568
0.04850000 0.04851840 38966.61128777 0 -283.05734059 0 14938.00558258 0 3319.25046181 0 -170.86922383 0 2493
0.04950000 0.04949480 38443.88683308 0 860.07494003 0 11545.88815114 0 2025.42716210 0 2003.06106597 0 2644
0.05050000 0.05050630 37803.13139582 0 787.53681845 0 11352.34391331 0 3275.91338247 0 3542.24708366 0 2829
0.05150000 0.05149060 38656.36474635 0 -675.87795881 0 7939.68731933 0 317.98277477 0 3184.06844810 0 2784
0.05250000 0.05249300 38162.87122918 0 1016.86570286 0 12299.35985505 0 259.53861545 0 6208.82828671 0 3055
0.05350000 0.05348950 37589.98914306 0 1694.67467512 0 10758.40226539 0 -2622.29190377 0 8353.51545943 0 3009
0.05450000 0.05448610 35559.87838756 0 1975.71242366 0 11568.69714027 0 1583.78534206 0 7768.14379092 0 3336
0.05550000 0.05550870 35333.00645203 0 371.66804888 0 11951.68885574 0 1276.18508627 0 6363.94048509 0 3349
0.05650000 0.05647670 34412.89625960 0 -90.88640321 0 11747.84735583 0 1731.85554186 0 4885.66332623 0 3324
0.05750000 0.05747970 35062.62027996 0 367.32659032 0 13147.83210590 0 -1355.58472755 0 3921.83959541 0 3639
0.05850000 0.05849280 35252.73209710 0 768.42598581 0 13736.21544676 0 -3056.06130087 0 4009.80921610 0 3846
0.05950000 0.05951020 33995.02672095 0 782.96284106 0 15022.81959069 0 -1652.50018988 0 2902.18920287 0 3787
0.06050000 0.06049470 34993.08608010 0 1484.75446888 0 16696.18004053 0 -103.15586779 0 3929.53486116 0 3930
0.06150000 0.06148310 32586.73772726 0 664.44467620 0 15501.80836235 0 517.81055693 0 867.27527286 0 4083
0.06250000 0.06249100 32517.53569715 0 699.28153178 0 15605.66676914 0 3132.52677607 0 1804.42355872 0 4303
0.06350000 0.06350600 31773.91836232 0 220.80208707 0 14789.74715326 0 2627.58447504 0 1525.50062421 0 4470
0.06450000 0.06451750 31420.60047736 0 85.91780817 0 14368.99881015 0 2020.79893033 0 1603.85946696 0 4479
0.06550000 0.06550280 31434.21943689 0 33.77800915 0 14051.33381110 0 1145.24377297 0 -466.36078520 0 4636
0.06650000 0.06648880 30803.98270821 0 35.32979548 0 11032.09906258 0 462.68920229 0 1717.18471147 0 4653
0.06750000 0.06749660 31440.19849229 0 -288.07310374 0 10858.56251570 0 339.80964868 0 -525.69294497 0 5220
0.06850000 0.06852730 31821.64008229 0 -516.29143397 0 9372.22470437 0 1554.11151155 0 -696.55773988 0 5029
0.06950000 0.06949320 32439.80797692 0 349.35509991 0 9234.47391130 0 295.04645391 0 -2686.37851982 0 5040
0.07050000 0.07048030 30806.52934292 0 1078.15544966 0 8846.41107105 0 -110.11847780 0 -2009.46086971 0 5475
0.07150000 0.07148790 30561.49879468 0 1176.78882638 0 9486.41359022 0 -183.33666158 0 -520.43801961 0 5509
0.07250000 0.07249820 29722.77018967 0 379.00124961 0 9171.52774470 0 770.89954317 0 -1141.78920762 0 5916
0.07350000 0.07351270 29550.70626199 0 221.65354885 0 9715.52213537 0 -347.86587222 0 1319.61074421 0 5721
0.07450000 0.07449140 29365.02337478 0 882.64033801 0 10865.69309288 0 430.79758511 0 601.58598098 0 6028
0.07550000 0.07549160 28184.60282586 0 1330.98202180 0 10617.28548557 0 -628.55594977 0 -654.57591309 0 6183
0.07650000 0.07648840 27253.42030862 0 1509.96615249 0 11149.27747614 0 799.76730844 0 -319.94811242 0 6330
0.07750000 0.07749960 25547.72867030 0 707.81054359 0 9777.52715435 0 -233.99033316 0 -401.84456295 0 6583
0.07850000 0.07848650 25053.57081365 0 327.27799145 0 9518.86657427 0 2426.42247773 0 -1832.73549328 0 6549
0.07950000 0.07947320 24688.95915737 0 -2.20887344 0 9329.39695197 0 1187.27431798 0 -793.31878647 0 6828
0.08050000 0.08048110 25007.62066565 0 -29.17712602 0 8433.74552506 0 1446.49958663 0 -2155.33874920 0 7147
0.08150000 0.08149960 24882.28194870 0 132.18694985 0 8941.21231615 0 -340.09420743 0 -695.82032304 0 7386
0.08250000 0.08250610 24356.12507332 0 524.92231116 0 8969.23637027 0 332.13542035 0 -22.96887350 0 7227
0.08350000 0.08350160 24363.98642394 0 739.70658969 0 9352.17272412 0 -462.60948155 0 -379.70766394 0 7798
0.08450000 0.08449610 24168.78133739 0 737.29835905 0 9320.17370539 0 -677.09370008 0 29.04182221 0 7371
0.08550000 0.08548940 23869.93929053 0 642.20812627 0 10408.72717529 0 -379.24484076 0 -38.85555587 0 8256
0.08650000 0.08650700 22864.68292025 0 714.18155929 0 9611.63051160 0 -234.43322615 0 634.17072569 0 8037
0.08750000 0.08749060 22937.09592456 0 375.73048486 0 9738.58578797 0 1382.10294549 0 -649.15822456 0 8155
0.08850000 0.08849210 21662.56061469 0 568.36125589 0 9602.81694104 0 1243.33349854 0 -190.85144843 0 8718
0.08950000 0.08949900 21615.61395746 0 311.19101073 0 8532.92033846 0 2045.63415489 0 -85.40261290 0 8571
0.09050000 0.09049190 20902.77768563 0 848.88414134 0 8176.48005790 0 925.45923255 0 -156.25264784 0 8932
0.09150000 0.09150830 20164.36434348 0 797.03465868 0 7751.35814649 0 1011.73035861 0 955.07327251 0 9285
0.09250000 0.09250820 19705.30575650 0 326.09214547 0 7433.90352162 0 -323.20780485 0 1107.05975360 0 9204
0.09350000 0.09350330 19217.23767849 0 101.25740698 0 7236.52825940 0 265.63614472 0 1471.39017283 0 9349
0.09450000 0.09448040 19512.75802790 0 -432.40417945 0 7473.36528727 0 -174.35922062 0 1392.71023266 0 9564
0.09550000 0.09549270 19656.25535755 0 169.59479925 0 7487.48250141 0 -41.50549537 0 460.67514640 0 10155
0.09650000 0.09649430 19453.41036687 0 803.82420825 0 8073.04239945 0 -344.72022474 0 403.03373063 0 9913
0.09750000 0.09749140 18655.42791719 0 865.11727675 0 7230.18381728 0 657.15355031 0 1525.55598584 0 10476
0.09850000 0.09850240 18445.93953162 0 -100.37638209 0 7890.71442666 0 848.73577218 0 1082.86561664 0 10575
0.09950000 0.09950330 18111.88749185 0 289.63430154 0 7353.35235856 0 1102.55885356 0 704.98488630 0 10882
0.10050000 0.10051200 18235.45463682 0 703.03504989 0 8067.29586287 0 -76.07949395 0 625.11910015 0 10875
0.10150000 0.10150300 17012.95925359 0 950.29777882 0 7238.94202621 0 -304.65612462 0 1537.94591731 0 11118
0.10250000 0.10250800 16712.23491152 0 540.50771558 0 8034.69893860 0 -275.08858842 0 2179.84180402 0 11575
0.10350000 0.10349800 16372.97887908 0 67.43942673 0 7653.78882019 0 45.12370967 0 1705.47019182 0 11364
0.10450000 0.10450100 16420.58987580 0 53.46117026 0 8293.33737404 0 536.88152920 0 1317.09732648 0 12093
0.10550000 0.10551000 16362.23872400 0 273.76544561 0 7326.93379154 0 839.07073985 0 1051.16001452 0 12067
0.10650000 0.10649700 16083.43758507 0 295.14721206 0 7154.78128526 0 926.32065942 0 1039.34362947 0 12054
0.10750000 0.10749900 15590.94057714 0 252.18880623 0 6484.78383816 0 294.21492231 0 666.90605401 0 12807
0.10850000 0.10850100 15418.87664945 0 116.56611399 0 6807.30958780 0 518.41842757 0 364.97372130 0 12736
0.10950000 0.10950300 15178.60720089 0 248.37549756 0 6108.90055522 0 125.62438293 0 202.93689097 0 12933
0.11050000 0.11050200 15173.95682447 0 188.78203093 0 6253.84835942 0 146.58318658 0 912.68176971 0 13428
0.11150000 0.11150900 15130.99620417 0 36.49006440 0 6077.30014018 0 184.18147996 0 192.51672609 0 13453
0.11250000 0.11250000 15235.51895046 0 79.62739900 0 6187.31475958 0 -120.04171675 0 741.04301930 0 13668
0.11350000 0.11349100 15069.43407818 0 128.69584583 0 6066.65963603 0 248.35999631 0 1143.60506889 0 13791
0.11450000 0.11448600 14967.12579685 0 -35.61889388 0 6045.38970006 0 560.49104741 0 1155.61854132 0 14205
0.11550000 0.11549300 15054.48643967 0 -121.53315891 0 5930.21537729 0 1098.45102105 0 749.05384631 0 14776
0.11650000 0.11649800 15007.87195219 0 99.41696514 0 5933.35991754 0 179.55767712 0 568.36789929 0 14553
0.11750000 0.11747300 14865.14968527 0 451.48068788 0 5644.29473350 0 83.41989169 0 993.62378583 0 14568
0.11850000 0.11849100 14750.44040015 0 233.27727544 0 5547.07972159 0 -216.96109759 0 488.93282657 0 16015
0.11950000 0.11950300 14416.83125337 0 319.94036180 0 5544.98705220 0 -575.71881574 0 478.38865165 0 15270
0.12050000 0.12050700 14364.79132672 0 242.62896098 0 5800.11556067 0 -9.65341747 0 321.46834262 0 15999
0.12150000 0.12150000 14190.73438057 0 3.87670880 0 6036.67578043 0 -209.23372210 0 303.54557044 0 15670
0.12250000 0.12250700 14203.46755411 0 109.76560281 0 5929.37388061 0 124.42967908 0 -384.26614006 0 16887
0.12350000 0.12352200 14237.68103780 0 106.89654201 0 5922.57547317 0 340.66332493 0 -99.87502722 0 16407
0.12450000 0.12449800 14014.57369271 0 161.58175778 0 5548.14266478 0 277.19565183 0 242.86480150 0 16306
0.12550000 0.12549900 13829.33369849 0 363.25972542 0 5553.01448770 0 248.67777203 0 705.01588881 0 17523
0.12650000 0.12650100 13500.15348163 0 223.22249727 0 5100.73216351 0 856.79531742 0 326.99121824 0 17154
0.12750000 0.12750600 13189.46404722 0 300.07661107 0 4888.01065909 0 709.34073888 0 276.27221994 0 18007
0.12850000 0.12850300 12750.77853790 0 404.06013514 0 4725.43571378 0 879.23116920 0 466.63094992 0 17496
0.12950000 0.12949900 12414.17986342 0 273.25279697 0 4207.25091226 0 679.61265397 0 560.86861369 0 18405
0.13050000 0.13049000 12195.28000175 0 112.17150827 0 3608.33779050 0 487.01399268 0 669.81586097 0 18100
0.13150000 0.13148800 12245.21618669 0 -67.44252698 0 3435.73131890 0 719.59371166 0 455.04044030 0 19059
0.13250000 0.13249300 12188.63660686 0 6.46789854 0 3085.92336091 0 174.30496623 0 374.50256404 0 18957
0.13350000 0.13349100 12183.32189095 0 168.61711297 0 3176.99323254 0 -115.58178432 0 405.20058460 0 19468
0.13450000 0.13450700 12027.31283425 0 37.28760395 0 3073.42270619 0 -165.92653803 0 769.11689888 0 19953
0.13550000 0.13551000 12135.15727799 0 -13.02659015 0 3123.54712064 0 15.51542732 0 460.32415371 0 19956
0.13650000 0.13649900 12175.12837058 0 -37.97685617 0 3088.00495797 0 144.59570427 0 343.24096215 0 19723
0.13750000 0.13749600 12211.11342624 0 13.06556473 0 3102.74222231 0 306.32693843 0 156.51284747 0 20946
0.13850000 0.13851100 12037.05648009 0 232.19108038 0 3018.95794040 0 -101.94400184 0 25.84335974 0 20955
0.13950000 0.13949800 12035.50635462 0 234.05676711 0 3258.24195206 0 7.82867619 0 -22.18417784 0 20506
0.14050000 0.14048300 11657.82935506 0 236.47939178 0 3435.88633145 0 -99.59224005 0 -31.54261750 0 21447
0.14150000 0.14148400 11542.34500720 0 385.85280421 0 3652.98140417 0 -612.68709384 0 141.67703945 0 21771
0.14250000 0.14249400 11212.38972760 0 499.57333072 0 3910.13614808 0 -239.00166737 0 159.06391111 0 22470
0.14350000 0.14350900 10834.19232877 0 210.21140838 0 3887.64825637 0 96.79415284 0 701.94664037 0 22519
0.14450000 0.14449900 10844.12420413 0 16.02110040 0 3774.61089230 0 638.55979524 0 487.34726966 0 22218
0.14550000 0.14550500 10864.13189508 0 -110.18059355 0 3700.74741344 0 427.12821667 0 143.70438212 0 23559
0.14650000 0.14650700 10922.72663802 0 95.88721872 0 3371.10215893 0 427.63422191 0 254.45974005 0 23044
0.14750000 0.14750500 10688.03764117 0 335.93544223 0 3283.83009471 0 -57.32851187 0 13.12391588 0 23649
0.14850000 0.14849900 10497.46078639 0 306.76650973 0 2978.21178507 0 -318.19536341 0 29.44319399 0 23640
0.14950000 0.14949500 10275.40531215 0 223.41737019 0 3315.92876436 0 -117.05108182 0 54.44239969 0 24457
0.15050000 0.15050000 10021.19580664 0 95.09499387 0 3357.40569313 0 -74.01716273 0 -280.33797762 0 24591
0.15150000 0.15149900 10061.27762248 0 76.49215950 0 3488.49094666 0 106.54466352 0 -266.81645455 0 25020
0.15250000 0.15250500 10066.35981957 0 -70.78149725 0 3449.38349540 0 353.84603486 0 -41.99998540 0 25297
0.15350000 0.15350100 10010.55530249 0 129.36904318 0 3466.42380330 0 272.11124028 0 120.89207130 0 25452
0.15450000 0.15450400 10047.91332643 0 115.73347517 0 3289.77593314 0 297.82339297 0 593.27177227 0 26061
0.15550000 0.15549900 9838.77925525 0 124.06097066 0 3039.05420995 0 492.81035473 0 780.12057528 0 26128
0.15650000 0.15649500 9783.46192046 0 210.39188727 0 2903.57324347 0 385.04673896 0 719.16189099 0 26331
0.15750000 0.15749700 9405.16487070 0 285.02378548 0 2656.43895352 0 315.94989593 0 803.25841246 0 27345
0.15850000 0.15849900 9245.71232099 0 364.21969598 0 2607.86466454 0 -110.58362617 0 377.97263064 0 26980
0.15950000 0.15949700 8885.09777397 0 133.10484557 0 2420.04481864 0 -66.07476269 0 761.85677549 0 27777
0.16050000 0.16050000 8878.01148609 0 35.62896969 0 2682.79108658 0 83.38612110 0 447.88993294 0 28224
0.16150000 0.16150500 8934.54677661 0 0.17335053 0 2583.95951525 0 125.12723554 0 650.13923254 0 28075
0.16250000 0.16249700 8984.46081689 0 -80.80029036 0 2382.11103381 0 295.95106285 0 353.82610467 0 28590
0.16350000 0.16349900 8950.35805645 0 -96.38015862 0 2260.26009918 0 167.15002993 0 447.74709995 0 29163
0.16450000 0.16449100 9047.76129788 0 151.54469533 0 2337.51170944 0 -16.93334924 0 321.67207340 0 28996
0.16550000 0.16550500 8837.12139053 0 198.41938245 0 2286.92225734 0 154.44675166 0 363.89527686 0 30777
0.16650000 0.16650700 8675.48759283 0 192.49125974 0 2026.34616506 0 102.65905257 0 577.00763434 0 29211
0.16750000 0.16749900 8461.86923010 0 94.75031240 0 1996.29587550 0 237.79699843 0 324.77343158 0 30922
0.16850000 0.16850800 8461.38204781 0 121.23309890 0 1875.31965453 0 221.05675054 0 357.21423607 0 30867
0.16950000 0.16949900 8305.20690624 0 283.59988451 0 1972.42394319 0 -101.98751607 0 161.42453076 0 30852
0.17050000 0.17049200 8075.71082973 0 182.14638666 0 1942.69475106 0 -156.35672769 0 531.97427484 0 31257
0.17150000 0.17149500 7996.58799657 0 106.71506660 0 2025.58217465 0 -47.50470240 0 644.64514496 0 32608
0.17250000 0.17250900 8110.56650826 0 14.33013495 0 2261.83236930 0 -278.50882956 0 468.73026271 0 32361
0.17350000 0.17350400 8168.93980470 0 -12.16239520 0 2512.39907995 0 20.73591775 0 720.87477964 0 32508
0.17450000 0.17449800 8126.45529437 0 127.28744612 0 2493.99687610 0 114.09366386 0 1050.07160499 0 32791
0.17550000 0.17549800 8072.35591531 0 -6.56150398 0 2471.25432092 0 264.81014929 0 829.24958774 0 33633
0.17650000 0.17650100 8092.17537673 0 51.52218474 0 2409.49289308 0 263.97861770 0 786.78057866 0 33984
0.17750000 0.17750300 8037.54452608 0 130.40541278 0 2424.76162901 0 20.72263096 0 344.50320717 0 34069
0.17850000 0.17849800 7847.07839455 0 240.42335388 0 2232.00352624 0 -230.74282029 0 408.13917961 0 34536
