### header ###
fiducial parameters:
Omega_m = 0.31
Omega_nu = 0
Omega_de = 0.69
Omega_k = 0
H_0 = 100
w_de = -1
zeff = 0
beta = 0
fgrowth = 0
b_1 = 2
gamma = 0.55
Lx = 3500 Ly = 3500 Lz = 3500
nx = 700 ny = 700 nz = 700
xoffset = -685.467585 yoffset = -31.7331281 zoffset = 572.489161
bins = 400 dk = 0.001
kx_ny = 0.628318531 ky_ny = 0.628318531 kz_ny = 0.628318531
############################
A(data) = 8.0370209 (not used)
A(ran) = 8.03825031 (used)
Ngal = 477600
weighted Ngal = 0
Nran = 23820508
weighted Nran = 0
SN(data) = 3487.46047
SN(ran) = 70.0160754
SN(data+ran) = 3557.47655
############################
13 columns: k_central k_mean P_0(k) sigma^{lin}_{P_0(k)} P^img_1(k) sigma^{lin}_{P_1(k)} P_2(k) sigma^{lin}_{P_2(k)} P^img_3(k) sigma^{lin}_{P_3(k)} P_4(k) sigma^{lin}_{P_4(k)} N_modes
### header ###
0.00050000 0 0 0 0 0 0 0 0 0 0 0 0
0.00150000 0.00179520 136425.43578799 0 -121557.51802151 0 66826.57354995 0 52707.69855745 0 -203833.74928391 0 3
0.00250000 0.00253879 215487.37115553 0 -83826.57818350 0 32553.63147605 0 -54740.02377791 0 182117.59861709 0 6
0.00350000 0.00331552 203787.24551967 0 8015.18950227 0 2157.07710419 0 -127301.84013742 0 31589.78560059 0 7
0.00450000 0.00420575 157442.92275874 0 73702.37653908 0 -31479.06235240 0 -46282.76063493 0 100846.07010874 0 24
0.00550000 0.00557378 100591.40663791 0 25420.06476514 0 -23215.56489375 0 -11136.54430259 0 -4443.81113201 0 45
0.00650000 0.00659388 55819.24327799 0 3896.29574206 0 -12543.17244756 0 12501.87267598 0 40110.05027179 0 40
0.00750000 0.00754703 81729.59058610 0 -1464.22637867 0 -5810.77820948 0 -16065.83258861 0 -42031.43079757 0 57
0.00850000 0.00846663 61081.03347830 0 2315.24526423 0 -2528.57574651 0 -13531.37743762 0 5903.22104939 0 75
0.00950000 0.00948925 75024.85501542 0 -1210.79193589 0 4887.96636979 0 -18179.87156623 0 -27970.35334062 0 112
0.01050000 0.01054430 65390.93591396 0 1272.26548329 0 10041.55781198 0 -29877.67201388 0 939.07376315 0 105
0.01150000 0.01145670 69958.38062490 0 -1286.18339558 0 8388.84724792 0 -9977.81443800 0 -10515.15436145 0 144
0.01250000 0.01249090 70131.66250831 0 -4375.05199489 0 11438.59732365 0 -701.07414117 0 -14576.05128426 0 169
0.01350000 0.01339930 76715.26684548 0 2903.17463977 0 10341.80604409 0 8658.27012774 0 -31080.34793568 0 180
0.01450000 0.01448870 72937.50034061 0 4905.26134116 0 7894.87762079 0 -589.32781017 0 -13005.77417848 0 267
0.01550000 0.01550050 64672.45275648 0 6224.93851932 0 2921.35539713 0 10552.55667468 0 21084.91742890 0 238
0.01650000 0.01653350 70221.56978584 0 -4687.21404850 0 6985.51865576 0 3200.35583791 0 -5914.84699045 0 315
0.01750000 0.01747870 71095.61910702 0 -2464.35626256 0 3009.80112778 0 -991.47464758 0 6912.78455403 0 297
0.01850000 0.01844180 74569.56101887 0 -676.92761521 0 17091.68348306 0 -7166.03076728 0 -1468.07954770 0 388
0.01950000 0.01947590 75973.31035938 0 5607.88892950 0 15761.78654909 0 -11703.33661006 0 21567.56006774 0 399
0.02050000 0.02045430 73048.66648179 0 -1758.29625353 0 20575.25831750 0 -3688.86680891 0 3903.60347644 0 462
0.02150000 0.02154770 76937.70985109 0 309.45708466 0 28976.05260390 0 10440.61547077 0 -3610.08721782 0 571
0.02250000 0.02255340 74172.83962062 0 5152.98246432 0 27636.63347059 0 -399.47840713 0 3757.98026042 0 510
0.02350000 0.02348930 69994.58712706 0 4360.38116451 0 25502.99647804 0 13551.08617580 0 -786.09520175 0 555
0.02450000 0.02439640 74317.77635250 0 -2021.80651188 0 20710.22995704 0 8481.24579854 0 9163.42280294 0 592
0.02550000 0.02547300 69186.86103154 0 -2832.64393068 0 23977.67301102 0 4567.23433677 0 10023.67600740 0 837
0.02650000 0.02652900 77476.59990001 0 -764.26943507 0 27970.24261738 0 5205.55386256 0 17564.58247606 0 723
0.02750000 0.02749970 73621.77001440 0 2588.89777212 0 25909.68296863 0 1422.12939971 0 21213.02422705 0 826
0.02850000 0.02848090 71251.07454748 0 6348.85997869 0 27914.32737704 0 -589.92350125 0 25016.47852550 0 831
0.02950000 0.02946900 68301.18576929 0 1884.17751439 0 35760.50891328 0 2310.42880293 0 21604.20946289 0 996
0.03050000 0.03053250 64348.47653229 0 3665.99138583 0 36692.46649326 0 -3647.20165061 0 20757.39806076 0 1041
0.03150000 0.03150510 62789.82536757 0 4703.73395713 0 37871.77980970 0 -1729.04317135 0 16448.15996460 0 1036
0.03250000 0.03246190 60769.12608816 0 3312.02023370 0 41355.35464414 0 -4941.00280567 0 21534.23237004 0 1059
0.03350000 0.03345080 60869.44135102 0 752.62577829 0 37245.86128770 0 -547.92838767 0 6513.58295501 0 1302
0.03450000 0.03451200 59287.20613443 0 -514.62394185 0 39356.02495164 0 1707.42999331 0 6746.79933267 0 1339
0.03550000 0.03553350 58407.17775785 0 3686.99558601 0 33226.49665528 0 8437.25545203 0 -4366.63702803 0 1365
0.03650000 0.03647120 54225.93573658 0 4105.58482578 0 28907.73635977 0 12437.32102229 0 236.42956632 0 1308
0.03750000 0.03744890 49801.65618555 0 2132.83978517 0 20238.10602677 0 10229.55481508 0 -2185.34474946 0 1579
0.03850000 0.03847530 47488.42608444 0 429.37811307 0 15813.05141300 0 12575.94652902 0 -83.23620182 0 1662
0.03950000 0.03950240 48568.30992400 0 -1820.98775665 0 10850.35792301 0 7903.69119135 0 -199.85767744 0 1683
0.04050000 0.04050350 47350.24347070 0 839.27889956 0 9034.59630367 0 536.82063141 0 4176.18196882 0 1822
0.04150000 0.04152450 49147.94612826 0 -998.74805776 0 13269.73840215 0 -5918.21297719 0 344.75897788 0 1887
0.04250000 0.04250150 47621.95832175 0 2145.79440520 0 12021.11233236 0 -2273.24793619 0 10557.39528063 0 1920
0.04350000 0.04349210 47260.33619317 0 3777.36790118 0 16407.96742550 0 -3897.73514428 0 6519.56201042 0 2005
0.04450000 0.04448520 44518.71784483 0 3765.62016455 0 15096.00765774 0 1435.30546624 0 7563.68224081 0 2151
0.04550000 0.04548030 41248.94960263 0 1399.03253014 0 17648.06780519 0 1599.80699607 0 6248.34541398 0 2274
0.04650000 0.04648670 39481.36366858 0 755.35399913 0 15532.47870209 0 4376.13708272 0 812.43736973 0 2311
0.04750000 0.04749250 37691.96525464 0 1100.84153598 0 10827.74823573 0 5587.02866954 0 3265.67148201 0 2568
0.04850000 0.04851840 37037.81230436 0 1004.38387109 0 12229.60420869 0 3121.95270587 0 890.17616228 0 2493
0.04950000 0.04949480 35241.54904903 0 961.42657249 0 9763.03348117 0 87.70333127 0 5281.99719311 0 2644
0.05050000 0.05050630 34593.59660064 0 1042.78601526 0 9362.97931314 0 377.91505455 0 4043.43586657 0 2829
0.05150000 0.05149060 34368.71768357 0 544.11065008 0 9674.77598004 0 -3418.89031285 0 5078.41035667 0 2784
0.05250000 0.05249300 33755.75378161 0 70.38477585 0 11915.15018384 0 322.91549548 0 -470.90597454 0 3055
0.05350000 0.05348950 33759.18620231 0 230.32982257 0 10083.57728467 0 35.60117816 0 -518.74727561 0 3009
0.05450000 0.05448610 33641.59811273 0 -460.19792920 0 11471.70357485 0 -739.25594607 0 -2592.03124005 0 3336
0.05550000 0.05550870 33202.69115692 0 570.45060359 0 10477.94027773 0 104.36064745 0 -2818.26098074 0 3349
0.05650000 0.05647670 34546.31777367 0 1117.07577863 0 11971.39759392 0 -522.58605063 0 -2044.61550101 0 3324
0.05750000 0.05747970 32520.52522485 0 1141.80027995 0 11733.12116382 0 -3015.48123041 0 -555.86281564 0 3639
0.05850000 0.05849280 31983.07457815 0 1841.05080922 0 14528.99390378 0 -198.59764688 0 606.61724537 0 3846
0.05950000 0.05951020 31975.98829027 0 1603.25048909 0 18550.35155466 0 -254.63911171 0 2038.71395188 0 3787
0.06050000 0.06049470 30836.53534318 0 100.31515213 0 18026.63059074 0 2184.16001070 0 4064.39577745 0 3930
0.06150000 0.06148310 31338.88672020 0 -1159.77066313 0 17266.18332220 0 3050.12653477 0 2747.50882515 0 4083
0.06250000 0.06249100 31503.97508325 0 -1009.64211815 0 15485.31059837 0 3599.50207529 0 4962.64920069 0 4303
0.06350000 0.06350600 33069.38036611 0 -425.02890388 0 14126.95778961 0 2351.78393613 0 482.50091309 0 4470
0.06450000 0.06451750 31683.67891505 0 443.75552685 0 12563.98841821 0 1591.05985947 0 449.02927516 0 4479
0.06550000 0.06550280 32067.22424677 0 1505.27148677 0 11238.96330717 0 229.29898913 0 1435.98087806 0 4636
0.06650000 0.06648880 30667.90383619 0 151.83921917 0 9816.24707424 0 -351.21525048 0 2098.50450590 0 4653
0.06750000 0.06749660 30876.17426603 0 -729.44475905 0 11103.21660489 0 2704.51498788 0 4288.35569156 0 5220
0.06850000 0.06852730 31700.50884878 0 -468.76790861 0 9098.30646068 0 2887.60695108 0 3197.24451463 0 5029
0.06950000 0.06949320 31577.49532004 0 333.33344590 0 9735.00942705 0 1485.05342165 0 2833.77330781 0 5040
0.07050000 0.07048030 31056.21026758 0 1727.23838241 0 9220.12417833 0 1151.21175604 0 5173.57698849 0 5475
0.07150000 0.07148790 29574.17959060 0 1414.63343580 0 8579.19158388 0 -49.61940572 0 4870.30601170 0 5509
0.07250000 0.07249820 27997.59125968 0 733.92129998 0 8667.08369829 0 888.98035120 0 4637.28893590 0 5916
0.07350000 0.07351270 27900.59769427 0 1090.42580002 0 8443.85455762 0 334.21923188 0 2782.03233393 0 5721
0.07450000 0.07449140 26665.03696775 0 339.05119443 0 8231.52058458 0 383.12679784 0 1737.55778914 0 6028
0.07550000 0.07549160 26402.51214630 0 201.82855126 0 7211.03976767 0 -537.97547489 0 1213.90325917 0 6183
0.07650000 0.07648840 26439.82588094 0 136.72438856 0 8692.00750146 0 -812.10077106 0 -1680.25850820 0 6330
0.07750000 0.07749960 25802.28141788 0 658.23420921 0 9397.21494148 0 -2264.93262025 0 -2932.06233523 0 6583
0.07850000 0.07848650 26011.54835696 0 982.31340603 0 9957.52993893 0 -889.15197224 0 -2448.33460855 0 6549
0.07950000 0.07947320 24440.27474194 0 896.73208581 0 9159.85751435 0 -1052.02144139 0 -2318.32337053 0 6828
0.08050000 0.08048110 24750.52128336 0 -271.94404817 0 9135.12194070 0 -127.44578036 0 -2644.65799991 0 7147
0.08150000 0.08149960 24971.96777973 0 -197.78493824 0 9625.34912205 0 1156.26073616 0 -4437.90958289 0 7386
0.08250000 0.08250610 24248.28062959 0 593.14111884 0 8343.47286082 0 -70.90362499 0 -4457.78440594 0 7227
0.08350000 0.08350160 23492.70518396 0 1273.95954898 0 8381.83846631 0 207.36249920 0 -4274.52635786 0 7798
0.08450000 0.08449610 22989.02512796 0 457.49185302 0 7050.39140687 0 707.94119702 0 -5084.46691835 0 7371
0.08550000 0.08548940 22057.73188747 0 432.35656845 0 7495.76460038 0 318.22082975 0 -4557.36889535 0 8256
0.08650000 0.08650700 22313.05969778 0 151.81928898 0 7116.26066722 0 152.29761342 0 -5229.68045834 0 8037
0.08750000 0.08749060 22109.88253736 0 112.45274532 0 7029.87438898 0 586.18326992 0 -3880.88306591 0 8155
0.08850000 0.08849210 20986.04156827 0 968.99229204 0 6450.17175078 0 583.34100414 0 -4549.47432776 0 8718
0.08950000 0.08949900 20866.90335322 0 639.48322713 0 6412.58120802 0 710.08037018 0 -3029.72024013 0 8571
0.09050000 0.09049190 20197.24914819 0 339.14863089 0 6997.79786398 0 1348.15519759 0 -3166.91741695 0 8932
0.09150000 0.09150830 19832.85893841 0 391.50522603 0 6742.54755994 0 359.78965882 0 -2476.86798961 0 9285
0.09250000 0.09250820 19966.28045247 0 193.37483126 0 6306.23152814 0 651.04384148 0 -2440.55076420 0 9204
0.09350000 0.09350330 19786.79806716 0 115.69029310 0 6958.09250718 0 -825.49717685 0 -1712.53433505 0 9349
0.09450000 0.09448040 19919.22307199 0 -35.74711140 0 6686.66553658 0 -418.68556899 0 -635.63005810 0 9564
0.09550000 0.09549270 19664.78104766 0 309.12712938 0 7095.31182866 0 -148.58063397 0 -1107.58679626 0 10155
0.09650000 0.09649430 19818.79708589 0 126.29758028 0 7436.92626629 0 45.72615487 0 -230.28221158 0 9913
0.09750000 0.09749140 19406.90660263 0 273.46870730 0 7185.20803386 0 974.31918751 0 -1334.35908087 0 10476
0.09850000 0.09850240 19001.54879102 0 961.08000872 0 6963.38507845 0 787.99189100 0 -585.01735412 0 10575
0.09950000 0.09950330 18371.86567859 0 374.17925215 0 6590.30309368 0 1128.64635806 0 -605.40593304 0 10882
0.10050000 0.10051200 17727.23492765 0 315.24458884 0 6515.65347976 0 414.81357701 0 685.72457727 0 10875
0.10150000 0.10150300 17788.68633039 0 633.22957808 0 6016.16983486 0 806.11839396 0 718.31707261 0 11118
0.10250000 0.10250800 17141.50894474 0 440.95976483 0 6290.91850291 0 286.35578616 0 1673.74798121 0 11575
0.10350000 0.10349800 16840.12026318 0 332.84515637 0 5880.46742188 0 333.60582509 0 1876.53761026 0 11364
0.10450000 0.10450100 16668.38850524 0 383.17662330 0 6658.01035995 0 280.56496028 0 1241.65050516 0 12093
0.10550000 0.10551000 16298.35140980 0 335.59773632 0 6146.04820498 0 238.73371711 0 1616.03902426 0 12067
0.10650000 0.10649700 16128.28050058 0 145.92549048 0 6172.72143547 0 81.50017202 0 1094.62664006 0 12054
0.10750000 0.10749900 16252.62270830 0 -62.84718001 0 5812.72693864 0 346.44529295 0 1408.10076416 0 12807
0.10850000 0.10850100 15944.70135509 0 -83.29167417 0 5953.81050148 0 511.04093754 0 1016.66529378 0 12736
0.10950000 0.10950300 15776.18057135 0 528.38794883 0 5529.91761813 0 571.91436493 0 596.14504056 0 12933
0.11050000 0.11050200 15444.12155004 0 364.03700262 0 5069.04316987 0 -74.56181039 0 419.52817291 0 13428
0.11150000 0.11150900 15133.76428537 0 361.77603389 0 5286.54791861 0 -110.38532083 0 112.21579757 0 13453
0.11250000 0.11250000 14984.62007007 0 405.13304342 0 5604.11326674 0 -445.36876458 0 647.89930123 0 13668
0.11350000 0.11349100 14855.62748593 0 20.24563521 0 5056.42071958 0 -39.88494991 0 -220.81758832 0 13791
0.11450000 0.11448600 14765.60948515 0 -13.84417061 0 5072.47559057 0 252.11240719 0 261.36554904 0 14205
0.11550000 0.11549300 14934.24099214 0 -118.09409482 0 5281.01175620 0 757.22743649 0 -139.49468423 0 14776
0.11650000 0.11649800 14787.42196505 0 55.39240516 0 4347.10544705 0 1188.37047814 0 402.96729668 0 14553
0.11750000 0.11747300 14333.56737073 0 408.41930942 0 4330.23122403 0 788.33956200 0 562.92031548 0 14568
0.11850000 0.11849100 14253.18229255 0 451.65230891 0 3682.56665608 0 845.63330677 0 681.95445067 0 16015
0.11950000 0.11950300 13594.37896584 0 35.59564200 0 3670.15457996 0 441.20224875 0 1352.55091055 0 15270
0.12050000 0.12050700 13927.65594288 0 21.12555286 0 3671.36146337 0 -191.61543885 0 693.82841181 0 15999
0.12150000 0.12150000 13664.13461220 0 61.19651783 0 3813.08722105 0 -155.66027846 0 1484.17870799 0 15670
0.12250000 0.12250700 13913.70481361 0 136.58598450 0 3868.72565326 0 -588.91259799 0 577.17704091 0 16887
0.12350000 0.12352200 13725.91818468 0 73.66218400 0 4397.89420099 0 -397.25286984 0 761.87559845 0 16407
0.12450000 0.12449800 13691.59397775 0 141.20535841 0 4299.73804147 0 133.91755422 0 341.78273697 0 16306
0.12550000 0.12549900 13680.74309942 0 129.47312303 0 4614.28064492 0 357.43125363 0 182.54388312 0 17523
0.12650000 0.12650100 13522.40885452 0 107.81443773 0 3780.44600748 0 141.97599222 0 339.90044175 0 17154
0.12750000 0.12750600 13592.38594737 0 46.95396497 0 3773.29328565 0 268.74746800 0 276.80036984 0 18007
0.12850000 0.12850300 13573.00937894 0 9.27971543 0 3793.81030354 0 244.91650329 0 243.11503604 0 17496
0.12950000 0.12949900 13462.83974699 0 511.87800530 0 4320.93047118 0 -144.78171933 0 522.47089845 0 18405
0.13050000 0.13049000 13152.92537532 0 314.64225437 0 4320.43221656 0 -297.50340278 0 331.71245754 0 18100
0.13150000 0.13148800 12725.09074433 0 333.73204959 0 4284.29214835 0 146.55661300 0 603.78162299 0 19059
0.13250000 0.13249300 12625.99343720 0 26.31337993 0 4260.36485442 0 525.56007707 0 899.48355852 0 18957
0.13350000 0.13349100 12857.84791890 0 -277.26983641 0 4054.12066002 0 655.83262196 0 1010.33192398 0 19468
0.13450000 0.13450700 12749.67130542 0 15.06899119 0 3881.18201868 0 764.59939035 0 986.81209160 0 19953
0.13550000 0.13551000 12722.32266312 0 218.75259974 0 3706.09534632 0 225.24319655 0 959.96834731 0 19956
0.13650000 0.13649900 12329.80874830 0 641.01563689 0 3614.28362893 0 29.55945340 0 1366.15879775 0 19723
0.13750000 0.13749600 11991.43850184 0 480.69833861 0 3447.77800830 0 -277.44477914 0 1832.37010656 0 20946
0.13850000 0.13851100 11642.21737706 0 218.68727303 0 3619.64263414 0 -23.68901750 0 1881.26549296 0 20955
0.13950000 0.13949800 11600.03181950 0 151.85250596 0 3868.89173813 0 -98.07012755 0 1639.01409825 0 20506
0.14050000 0.14048300 11376.26013492 0 2.66454390 0 3677.70590549 0 276.57449441 0 1296.19277722 0 21447
0.14150000 0.14148400 11320.23417134 0 215.04004923 0 3619.18866882 0 -46.67959276 0 818.01892867 0 21771
0.14250000 0.14249400 11108.53132080 0 253.58945532 0 3383.76889853 0 14.74235760 0 474.64066970 0 22470
0.14350000 0.14350900 11053.70116830 0 100.62462361 0 3269.03746876 0 -76.02867198 0 295.90898801 0 22519
0.14450000 0.14449900 10766.48506251 0 155.54955521 0 2978.69896736 0 -69.05554326 0 188.34578133 0 22218
0.14550000 0.14550500 10902.27605408 0 -106.33440007 0 3221.13859159 0 220.73897482 0 -26.82071385 0 23559
0.14650000 0.14650700 10933.45572077 0 -122.79429670 0 3044.83396350 0 306.92484397 0 287.93248521 0 23044
0.14750000 0.14750500 11156.80665701 0 -116.73994949 0 2992.35114386 0 281.97003830 0 -447.59540910 0 23649
0.14850000 0.14849900 10959.27638225 0 272.59620811 0 3182.13079125 0 -51.21669930 0 9.54342499 0 23640
0.14950000 0.14949500 10782.80566929 0 540.17665307 0 3315.22013557 0 -296.26440964 0 -442.59957614 0 24457
0.15050000 0.15050000 10258.13248543 0 444.43204590 0 3272.66919130 0 -18.95083754 0 257.77811580 0 24591
0.15150000 0.15149900 9983.40596203 0 269.48267037 0 3086.39947087 0 183.47617287 0 294.10198460 0 25020
0.15250000 0.15250500 9822.59151637 0 -34.62548490 0 2963.77347351 0 408.44034684 0 -2.56340928 0 25297
0.15350000 0.15350100 9984.60177311 0 -77.41680935 0 2786.57198711 0 532.74490865 0 -380.22474150 0 25452
0.15450000 0.15450400 9793.85883346 0 99.38751276 0 2459.98269426 0 -174.47658726 0 -301.72749470 0 26061
0.15550000 0.15549900 9790.10531535 0 319.79863604 0 2694.54989554 0 -278.64059022 0 -19.15257530 0 26128
0.15650000 0.15649500 9513.70687090 0 235.35555081 0 2856.25012719 0 -152.63199763 0 177.36978573 0 26331
0.15750000 0.15749700 9430.63121779 0 162.48747395 0 3146.40039907 0 -234.55502173 0 330.90528507 0 27345
0.15850000 0.15849900 9399.69514224 0 72.96662055 0 3174.64589968 0 79.22226263 0 539.27315136 0 26980
0.15950000 0.15949700 9454.75781357 0 3.33338982 0 3314.66651933 0 416.87302942 0 337.97053553 0 27777
0.16050000 0.16050000 9460.31612062 0 40.90404668 0 3266.20295360 0 4.07207997 0 279.09677001 0 28224
0.16150000 0.16150500 9448.07012937 0 156.42759057 0 3072.17153348 0 187.67036951 0 368.42496495 0 28075
0.16250000 0.16249700 9247.45067599 0 123.18736423 0 3143.39979904 0 -58.88727376 0 91.88246955 0 28590
0.16350000 0.16349900 9058.88898432 0 123.01574320 0 2880.26599972 0 148.09234445 0 99.40965741 0 29163
0.16450000 0.16449100 8971.51726918 0 119.86345232 0 2971.44659461 0 65.43201424 0 -54.95980943 0 28996
0.16550000 0.16550500 8913.28791296 0 54.69606665 0 2607.34426527 0 234.51405412 0 -236.14611480 0 30777
0.16650000 0.16650700 8819.23958595 0 22.76148885 0 2654.88882804 0 313.59702691 0 22.50992563 0 29211
0.16750000 0.16749900 8724.54906410 0 159.52119813 0 2311.07099777 0 137.43966074 0 -154.16330015 0 30922
0.16850000 0.16850800 8607.62531402 0 97.26760545 0 2445.98727569 0 246.36254891 0 229.05318352 0 30867
0.16950000 0.16949900 8492.12989383 0 117.05329629 0 2344.00009178 0 228.38662957 0 281.45517519 0 30852
0.17050000 0.17049200 8510.58745931 0 109.99712512 0 2296.47767366 0 237.58108810 0 696.33186445 0 31257
0.17150000 0.17149500 8375.77083231 0 95.75778324 0 2280.13492223 0 138.41513256 0 726.73314670 0 32608
0.17250000 0.17250900 8246.46822308 0 106.11815757 0 2186.37447566 0 132.38625169 0 541.18423463 0 32361
0.17350000 0.17350400 8323.68661637 0 6.14186287 0 2219.82396894 0 -29.42293163 0 716.32848307 0 32508
0.17450000 0.17449800 8227.62312624 0 22.12948055 0 2171.85865783 0 103.74735138 0 517.54482114 0 32791
0.17550000 0.17549800 8203.60725371 0 138.86245448 0 2153.91041930 0 27.11512697 0 810.37902455 0 33633
0.17650000 0.17650100 8162.38498841 0 124.00450181 0 2017.34436498 0 117.93354611 0 318.91617175 0 33984
0.17750000 0.17750300 8088.83153464 0 41.74144661 0 2184.83542251 0 -17.29342124 0 697.01502689 0 34069
0.17850000 0.17849800 8033.44776590 0 89.35709371 0 1952.61555409 0 113.14919455 0 391.27159998 0 34536
