### header ###
fiducial parameters:
Omega_m = 0.31
Omega_nu = 0
Omega_de = 0.69
Omega_k = 0
H_0 = 100
w_de = -1
zeff = 0
beta = 0
fgrowth = 0
b_1 = 2
gamma = 0.55
Lx = 3500 Ly = 3500 Lz = 3500
nx = 700 ny = 700 nz = 700
xoffset = -685.467585 yoffset = -31.7331281 zoffset = 572.489161
bins = 400 dk = 0.001
kx_ny = 0.628318531 ky_ny = 0.628318531 kz_ny = 0.628318531
############################
A(data) = 8.0479993 (not used)
A(ran) = 8.04476662 (used)
Ngal = 478139
weighted Ngal = 0
Nran = 23820508
weighted Nran = 0
SN(data) = 3490.47211
SN(ran) = 70.0728348
SN(data+ran) = 3560.54494
############################
13 columns: k_central k_mean P_0(k) sigma^{lin}_{P_0(k)} P^img_1(k) sigma^{lin}_{P_1(k)} P_2(k) sigma^{lin}_{P_2(k)} P^img_3(k) sigma^{lin}_{P_3(k)} P_4(k) sigma^{lin}_{P_4(k)} N_modes
### header ###
0.00050000 0 0 0 0 0 0 0 0 0 0 0 0
0.00150000 0.00179520 69788.86333193 0 -55217.24097760 0 49210.83693323 0 88365.78846616 0 -109115.32517630 0 3
0.00250000 0.00253879 111239.21852301 0 -26826.13929386 0 59302.70738918 0 -4681.07998055 0 163823.90355173 0 6
0.00350000 0.00331552 99223.08873682 0 23437.89717611 0 35406.63741207 0 -71345.96437117 0 -12720.99398414 0 7
0.00450000 0.00420575 70450.65618634 0 52063.73214600 0 16524.33755935 0 3151.77047660 0 64300.31191932 0 24
0.00550000 0.00557378 47107.09521768 0 5889.12597989 0 21404.13255342 0 27258.73502453 0 -18905.10884185 0 45
0.00650000 0.00659388 52399.11286475 0 -21877.25299292 0 47163.45335101 0 41023.40634608 0 -15218.79973998 0 40
0.00750000 0.00754703 62516.67111429 0 -6614.38540016 0 15456.19038409 0 2995.08600809 0 -38284.33463244 0 57
0.00850000 0.00846663 64057.93872904 0 -4616.72762871 0 4256.99886767 0 11730.02091287 0 -13086.71287290 0 75
0.00950000 0.00948925 67441.41974713 0 -13659.70568227 0 12309.65711713 0 -4743.51682021 0 -10435.97616667 0 112
0.01050000 0.01054430 81801.11780443 0 -4294.10222814 0 13918.35519003 0 -5972.82168320 0 -3121.59839147 0 105
0.01150000 0.01145670 71132.04705568 0 10746.10091251 0 8961.68504474 0 1860.70418577 0 -8988.96725309 0 144
0.01250000 0.01249090 66026.37663530 0 18983.27945507 0 7375.06518753 0 -13981.24599500 0 6230.81792380 0 169
0.01350000 0.01339930 54589.77233012 0 9160.00145457 0 14593.98845046 0 -7894.96619939 0 23021.35631643 0 180
0.01450000 0.01448870 50374.20610192 0 -1473.94787986 0 8018.44476577 0 8415.71978026 0 9566.06789497 0 267
0.01550000 0.01550050 53798.76544508 0 -1248.13888751 0 10202.08437720 0 17860.54571846 0 6121.16869112 0 238
0.01650000 0.01653350 67298.14386397 0 -14848.09830505 0 3483.71877467 0 15050.72184923 0 -11254.24311542 0 315
0.01750000 0.01747870 66848.05386010 0 -9925.96274087 0 -3507.41354978 0 13362.96737713 0 -2768.13656629 0 297
0.01850000 0.01844180 77532.29369385 0 -3059.70409574 0 -2531.91958860 0 -10291.51554476 0 -14909.43898455 0 388
0.01950000 0.01947590 74774.28830477 0 3975.04211617 0 -5558.15204641 0 -3935.93466491 0 1976.27711223 0 399
0.02050000 0.02045430 70632.13159012 0 3075.06141026 0 -3177.74615063 0 -7000.06769057 0 3641.24473986 0 462
0.02150000 0.02154770 71738.69973249 0 783.32379885 0 -5264.10431620 0 -2110.24117021 0 -4916.87620989 0 571
0.02250000 0.02255340 68021.83101412 0 1912.11298991 0 9645.47860857 0 -4137.65027845 0 -3457.24484602 0 510
0.02350000 0.02348930 67938.01351524 0 9302.83444473 0 8341.71236117 0 -5194.41510380 0 -4793.67445163 0 555
0.02450000 0.02439640 64158.69688489 0 6765.81051438 0 16184.41718742 0 -13079.40513852 0 10612.87870030 0 592
0.02550000 0.02547300 60436.73489711 0 2802.27254370 0 25843.02757322 0 -7239.14132806 0 4264.81592900 0 837
0.02650000 0.02652900 64659.16596670 0 348.45491990 0 37756.51690834 0 -4643.12405108 0 8711.92661381 0 723
0.02750000 0.02749970 60712.54650834 0 434.22668411 0 43265.66284510 0 242.84930025 0 6334.63204130 0 826
0.02850000 0.02848090 66626.16447073 0 1460.46178823 0 43594.95378521 0 10927.28843585 0 12275.66507994 0 831
0.02950000 0.02946900 62503.71649425 0 -930.57686108 0 33940.32943634 0 12794.07132795 0 16589.77499903 0 996
0.03050000 0.03053250 62988.13070507 0 246.78661895 0 35810.11292847 0 10672.87962849 0 6452.35299877 0 1041
0.03150000 0.03150510 61259.96224737 0 3585.83882647 0 27447.62888594 0 8116.13588764 0 8724.91445082 0 1036
0.03250000 0.03246190 59260.52183162 0 1244.61788821 0 25620.58456761 0 6156.37868404 0 1068.96763452 0 1059
0.03350000 0.03345080 55727.56442849 0 1745.76238183 0 22442.60589816 0 -470.43872243 0 4712.92398673 0 1302
0.03450000 0.03451200 57399.81764585 0 335.20466879 0 22757.39209276 0 -1215.78555439 0 -179.52113845 0 1339
0.03550000 0.03553350 55823.67220791 0 2149.42612774 0 22001.37375414 0 -3516.94682145 0 2558.30493865 0 1365
0.03650000 0.03647120 53197.42748418 0 3068.91626998 0 20180.19776797 0 -260.20074047 0 998.34834683 0 1308
0.03750000 0.03744890 51909.16249153 0 2525.03260257 0 20579.13363118 0 2564.20648778 0 4130.96259426 0 1579
0.03850000 0.03847530 51670.44316844 0 1061.31001468 0 19981.56026072 0 5482.00766864 0 4327.47421515 0 1662
0.03950000 0.03950240 48894.27916666 0 1275.33251726 0 20029.61415043 0 8738.56662732 0 5874.02332884 0 1683
0.04050000 0.04050350 49428.29739266 0 1392.05696550 0 16304.99480469 0 9685.64900301 0 8403.04196834 0 1822
0.04150000 0.04152450 45450.67542481 0 1856.31954515 0 12134.60366175 0 8739.99495722 0 5875.61774361 0 1887
0.04250000 0.04250150 43231.33863816 0 3877.31777732 0 13008.65298293 0 3893.57195015 0 14417.60631610 0 1920
0.04350000 0.04349210 39880.52097830 0 3374.44600103 0 10319.12992286 0 4273.07588331 0 12225.50744851 0 2005
0.04450000 0.04448520 37976.19183274 0 -467.73264624 0 10637.11601932 0 1617.23483534 0 15880.70331764 0 2151
0.04550000 0.04548030 37839.33789798 0 -740.22477450 0 10273.12441324 0 296.70619540 0 9328.30079181 0 2274
0.04650000 0.04648670 39273.42540849 0 -108.32697565 0 11401.28358901 0 -2804.46486402 0 7488.66724017 0 2311
0.04750000 0.04749250 39626.63257021 0 526.35728446 0 12196.27651099 0 -4030.30408934 0 9502.88920955 0 2568
0.04850000 0.04851840 40534.23103559 0 82.79175871 0 14971.77617328 0 -4579.75713614 0 7160.94857019 0 2493
0.04950000 0.04949480 39016.43674945 0 277.21226032 0 16617.01291808 0 -1564.92917289 0 6940.03354540 0 2644
0.05050000 0.05050630 39993.90158444 0 475.39248055 0 16352.82724791 0 1114.85024134 0 1703.98650029 0 2829
0.05150000 0.05149060 40099.08867022 0 1421.04431187 0 17123.23960879 0 1335.96456797 0 3343.47670851 0 2784
0.05250000 0.05249300 37365.55311899 0 1037.75917979 0 15706.20347850 0 2591.99802307 0 2415.29479129 0 3055
0.05350000 0.05348950 36783.81317302 0 2793.83543219 0 17769.30976196 0 1192.78833574 0 5558.67244568 0 3009
0.05450000 0.05448610 35311.96903488 0 1735.54262602 0 16261.36984490 0 2817.93988332 0 6729.29398713 0 3336
0.05550000 0.05550870 34333.06479766 0 439.80935028 0 17047.17273728 0 4197.73978525 0 7844.78642331 0 3349
0.05650000 0.05647670 33251.63083262 0 832.29336983 0 14945.20259371 0 2041.03914009 0 7792.20395275 0 3324
0.05750000 0.05747970 35006.15142338 0 -577.21579405 0 17049.16575575 0 802.19546927 0 5205.01131865 0 3639
0.05850000 0.05849280 33879.32092659 0 -598.34178980 0 15386.10256799 0 -1313.34380836 0 6498.33636374 0 3846
0.05950000 0.05951020 35140.79089318 0 192.34621228 0 15885.24297082 0 -573.85534347 0 4486.67210139 0 3787
0.06050000 0.06049470 34011.74593142 0 56.02906383 0 15165.76330410 0 -810.15093466 0 3521.09894325 0 3930
0.06150000 0.06148310 33054.32200435 0 1942.75011268 0 15119.81315610 0 996.00544290 0 1189.10125157 0 4083
0.06250000 0.06249100 31697.74076757 0 1479.83835666 0 12687.33411669 0 3247.52394163 0 615.82609793 0 4303
0.06350000 0.06350600 31510.39703164 0 -263.64866242 0 11123.36823606 0 4629.60474247 0 1613.14914748 0 4470
0.06450000 0.06451750 31514.60451507 0 -1349.88248027 0 7811.93483557 0 4339.41018130 0 1913.59668143 0 4479
0.06550000 0.06550280 32168.86818861 0 -52.17478756 0 7131.39653524 0 2822.18058373 0 1369.36977195 0 4636
0.06650000 0.06648880 31207.12605486 0 1026.08562773 0 7025.22401256 0 -609.84150636 0 3372.48619954 0 4653
0.06750000 0.06749660 30730.46247142 0 1431.17548908 0 7147.99395015 0 -471.04105690 0 3889.68556414 0 5220
0.06850000 0.06852730 28488.31669564 0 1868.02299248 0 7316.60331249 0 -2243.27515291 0 2299.97652830 0 5029
0.06950000 0.06949320 28272.84925467 0 1026.84518922 0 9335.84104501 0 -694.99100591 0 1981.31502002 0 5040
0.07050000 0.07048030 27188.31503868 0 409.31727497 0 9105.27095299 0 -1126.62012262 0 731.92274535 0 5475
0.07150000 0.07148790 26848.94828299 0 289.24455570 0 9919.43006923 0 -220.42673526 0 1310.14390649 0 5509
0.07250000 0.07249820 27145.35441839 0 220.50313430 0 10537.46509596 0 -2.09400914 0 504.84929350 0 5916
0.07350000 0.07351270 27280.87967417 0 -474.87540298 0 10309.72951909 0 614.33687024 0 -1509.89971854 0 5721
0.07450000 0.07449140 27689.66990647 0 -110.80850509 0 10580.93504319 0 274.84610451 0 -875.77549662 0 6028
0.07550000 0.07549160 28049.74190957 0 219.56752285 0 11390.76488043 0 -264.58981003 0 -1055.24459514 0 6183
0.07650000 0.07648840 27480.07079765 0 778.33018036 0 10338.47327432 0 -447.78806755 0 -25.17038384 0 6330
0.07750000 0.07749960 26740.77166951 0 337.83323870 0 10351.89293200 0 1374.70663251 0 -667.84941609 0 6583
0.07850000 0.07848650 26532.27979318 0 414.28985604 0 9361.79457439 0 634.86496045 0 -1201.59083397 0 6549
0.07950000 0.07947320 25990.62166305 0 973.37803990 0 10346.54499911 0 1132.28915293 0 -1912.01333898 0 6828
0.08050000 0.08048110 24948.27300462 0 843.11213841 0 9279.02894637 0 458.99768919 0 123.68008269 0 7147
0.08150000 0.08149960 23963.16826551 0 980.59055229 0 9103.03434338 0 311.76455715 0 -676.05290154 0 7386
0.08250000 0.08250610 23775.38163658 0 379.98890099 0 8346.52882247 0 691.87193201 0 -497.65117514 0 7227
0.08350000 0.08350160 23193.30952087 0 78.69156610 0 8938.62139214 0 190.10517374 0 -1627.39922952 0 7798
0.08450000 0.08449610 22983.26751906 0 759.78957245 0 9609.64856545 0 -803.56511585 0 -2203.70266401 0 7371
0.08550000 0.08548940 22567.94461511 0 639.69470854 0 9254.76948269 0 -697.24976018 0 -1394.28250279 0 8256
0.08650000 0.08650700 22143.65312806 0 -175.29372483 0 8802.36536293 0 229.34992183 0 -2224.80651511 0 8037
0.08750000 0.08749060 22081.53738583 0 95.82543514 0 9146.74788176 0 1071.55191514 0 -2242.36722227 0 8155
0.08850000 0.08849210 21496.03284942 0 695.32096119 0 8187.37522552 0 1082.22010010 0 -2637.05131276 0 8718
0.08950000 0.08949900 21140.72194599 0 876.04787581 0 7918.66097450 0 1389.16708872 0 -864.56033881 0 8571
0.09050000 0.09049190 20875.42904333 0 355.63864424 0 6646.35120191 0 1622.63812985 0 870.83945422 0 8932
0.09150000 0.09150830 20349.82578419 0 187.01710235 0 6273.28028947 0 1500.48824245 0 433.91665902 0 9285
0.09250000 0.09250820 20272.43023371 0 219.41251030 0 5954.03194798 0 1151.03459885 0 1094.25682441 0 9204
0.09350000 0.09350330 19618.38800667 0 582.37771188 0 5785.99834653 0 -184.47378934 0 668.91014480 0 9349
0.09450000 0.09448040 19257.87311058 0 551.73173125 0 5620.47816282 0 -562.67672433 0 683.59204751 0 9564
0.09550000 0.09549270 18867.68438397 0 382.06828359 0 5947.37748076 0 -777.71234463 0 -56.14100504 0 10155
0.09650000 0.09649430 18681.55860376 0 74.84404395 0 5794.96692963 0 -180.70919890 0 53.06644188 0 9913
0.09750000 0.09749140 18598.73761412 0 158.79485362 0 5896.56658217 0 -89.26220388 0 -1058.87299599 0 10476
0.09850000 0.09850240 18108.67651765 0 271.33064138 0 6200.77870656 0 94.13889863 0 -1145.11090507 0 10575
0.09950000 0.09950330 18009.02559428 0 448.26528475 0 5375.13758949 0 870.13857606 0 -419.62228767 0 10882
0.10050000 0.10051200 17470.68916160 0 223.71632296 0 5058.86770337 0 744.43447239 0 -607.70565490 0 10875
0.10150000 0.10150300 17401.93002447 0 304.67937650 0 4184.41977849 0 1577.64020178 0 -443.19526721 0 11118
0.10250000 0.10250800 17122.57526930 0 370.70807832 0 4360.10435639 0 126.22893186 0 -838.10744759 0 11575
0.10350000 0.10349800 16463.99338909 0 863.12425829 0 4462.97732628 0 -89.39330021 0 416.67040588 0 11364
0.10450000 0.10450100 16023.75775430 0 620.20298793 0 4676.50711040 0 -643.14484495 0 63.02156913 0 12093
0.10550000 0.10551000 15480.99239169 0 194.26393894 0 5657.02790704 0 -251.09928947 0 1058.88406831 0 12067
0.10650000 0.10649700 15675.86530849 0 190.11403160 0 6350.33259789 0 -346.60251996 0 892.14149994 0 12054
0.10750000 0.10749900 15559.82734440 0 260.32032158 0 6964.60303418 0 109.86481084 0 1761.64009562 0 12807
0.10850000 0.10850100 15505.90512253 0 144.84815328 0 7105.57587377 0 234.03794416 0 2100.22071625 0 12736
0.10950000 0.10950300 15481.87817767 0 243.27890645 0 7611.41503311 0 -62.62794798 0 2691.26141507 0 12933
0.11050000 0.11050200 15412.56542431 0 24.05584362 0 7451.23170996 0 -86.54926286 0 2373.95073042 0 13428
0.11150000 0.11150900 15324.31899550 0 -8.58420735 0 7528.25080139 0 402.81671306 0 1464.97929676 0 13453
0.11250000 0.11250000 15473.13104107 0 204.03305113 0 6830.89363967 0 -164.98649766 0 983.56900766 0 13668
0.11350000 0.11349100 14865.92474801 0 284.15571522 0 6366.56462607 0 224.37844798 0 -309.33418185 0 13791
0.11450000 0.11448600 14765.16659216 0 281.19497556 0 6131.16700043 0 -60.71542531 0 -10.85885040 0 14205
0.11550000 0.11549300 14505.63129841 0 144.13398833 0 5799.48443816 0 177.83260891 0 -758.94807576 0 14776
0.11650000 0.11649800 14736.04637789 0 -222.09754907 0 5462.42072603 0 508.50758962 0 -992.67378036 0 14553
0.11750000 0.11747300 14484.92605100 0 46.65678377 0 5665.86362225 0 262.35430765 0 -834.90311679 0 14568
0.11850000 0.11849100 14541.50563082 0 349.69944921 0 5207.08184339 0 723.76908535 0 -1108.36185900 0 16015
0.11950000 0.11950300 14406.53399129 0 167.55527702 0 4873.98202354 0 406.59348306 0 -143.46411268 0 15270
0.12050000 0.12050700 14101.49144253 0 103.40134123 0 4796.09929077 0 850.29032659 0 105.07625181 0 15999
0.12150000 0.12150000 14332.46013825 0 -43.86212898 0 4514.13146694 0 887.59409613 0 600.77548680 0 15670
0.12250000 0.12250700 13902.30031904 0 120.70273455 0 4232.03077521 0 623.89339379 0 -124.35328004 0 16887
0.12350000 0.12352200 14029.96422420 0 262.05535488 0 4198.89130703 0 32.31779096 0 725.16641274 0 16407
0.12450000 0.12449800 13526.17344495 0 532.90324289 0 4145.31232723 0 79.07920819 0 1279.44034977 0 16306
0.12550000 0.12549900 13275.82818081 0 225.48346600 0 4318.73815086 0 179.83005631 0 2003.34894641 0 17523
0.12650000 0.12650100 13057.14976564 0 -99.19286129 0 4052.16085853 0 683.18347873 0 1219.58336180 0 17154
0.12750000 0.12750600 13311.48106672 0 -69.36700776 0 3593.86626196 0 397.73451597 0 541.27724215 0 18007
0.12850000 0.12850300 13143.18172948 0 14.20534985 0 3222.19046245 0 236.84588573 0 679.16201035 0 17496
0.12950000 0.12949900 13104.98220885 0 278.99933355 0 3145.02743079 0 -186.54763578 0 191.59440143 0 18405
0.13050000 0.13049000 12813.22644988 0 290.95633712 0 3226.57510308 0 -405.61579678 0 599.05706199 0 18100
0.13150000 0.13148800 12612.15303118 0 169.18401600 0 3116.97015970 0 191.17365309 0 59.77483132 0 19059
0.13250000 0.13249300 12343.42770783 0 227.85072905 0 3195.96012495 0 136.31914147 0 429.06255181 0 18957
0.13350000 0.13349100 12369.11550141 0 191.33863073 0 3231.81231272 0 419.56803328 0 -149.38227029 0 19468
0.13450000 0.13450700 12213.21716796 0 179.37166206 0 3418.61350473 0 111.28350782 0 344.90070364 0 19953
0.13550000 0.13551000 11901.64194756 0 293.94365036 0 3184.87672781 0 47.88016494 0 340.01448669 0 19956
0.13650000 0.13649900 11733.78550331 0 310.40598290 0 3277.81782234 0 99.62811438 0 795.97725166 0 19723
0.13750000 0.13749600 11492.63026876 0 222.96340487 0 3148.71451495 0 119.75937247 0 858.25797153 0 20946
0.13850000 0.13851100 11360.42671043 0 99.94123972 0 3210.53130441 0 243.76387428 0 501.90405510 0 20955
0.13950000 0.13949800 11221.35831071 0 116.28709141 0 2783.89248450 0 321.61892624 0 252.87861207 0 20506
0.14050000 0.14048300 11102.55226540 0 5.56378786 0 3021.44921349 0 87.17772801 0 288.17718359 0 21447
0.14150000 0.14148400 11103.88094438 0 143.81399814 0 2574.72519635 0 54.52300621 0 402.46239867 0 21771
0.14250000 0.14249400 11081.84701799 0 145.07292147 0 2783.93677380 0 -110.44965104 0 394.89225019 0 22470
0.14350000 0.14350900 10949.08984341 0 173.35053183 0 2511.43578769 0 -339.30364344 0 487.69383343 0 22519
0.14450000 0.14449900 10673.65469123 0 252.87418314 0 2879.36914141 0 -144.77064700 0 402.63180524 0 22218
0.14550000 0.14550500 10695.81041319 0 162.79860627 0 3122.57275606 0 -277.88545767 0 241.71549419 0 23559
0.14650000 0.14650700 10302.78717143 0 204.97973490 0 3051.61022629 0 208.22281884 0 22.43607323 0 23044
0.14750000 0.14750500 10259.92620205 0 203.94557976 0 2910.13913208 0 167.54641916 0 -155.69128097 0 23649
0.14850000 0.14849900 10084.19733486 0 130.60250017 0 2842.83046951 0 295.34872837 0 -281.78402324 0 23640
0.14950000 0.14949500 10112.42069082 0 80.49546926 0 2870.74380038 0 164.16160946 0 -346.90368720 0 24457
0.15050000 0.15050000 9921.88812534 0 191.55675552 0 2683.59936630 0 107.98484081 0 -361.42614843 0 24591
0.15150000 0.15149900 9873.77887400 0 193.49662683 0 2490.68625098 0 154.33492118 0 -89.01318730 0 25020
0.15250000 0.15250500 9656.04160644 0 93.75347100 0 2509.44276922 0 208.18960187 0 309.08394731 0 25297
0.15350000 0.15350100 9650.90404773 0 44.24035960 0 2489.28006573 0 427.53899992 0 324.16223925 0 25452
0.15450000 0.15450400 9539.73790655 0 56.67291952 0 2350.99780107 0 544.66537355 0 43.21583738 0 26061
0.15550000 0.15549900 9443.43082528 0 176.52607458 0 2362.88947792 0 191.70955361 0 530.21820413 0 26128
0.15650000 0.15649500 9391.20266911 0 115.13335516 0 2264.96583723 0 -171.90448620 0 593.46996688 0 26331
0.15750000 0.15749700 9230.11141532 0 84.84800015 0 2312.34431513 0 -30.68517666 0 1040.51729590 0 27345
0.15850000 0.15849900 9370.65243424 0 -89.17008214 0 2403.46954838 0 78.35496743 0 1019.69911078 0 26980
0.15950000 0.15949700 9334.71166788 0 112.55128901 0 2337.68886664 0 -25.84037022 0 558.33969470 0 27777
0.16050000 0.16050000 9229.97854742 0 210.46717908 0 2503.30870127 0 -190.54806673 0 468.82105577 0 28224
0.16150000 0.16150500 9137.00423592 0 208.22060438 0 2557.20877849 0 -21.02601266 0 484.89585695 0 28075
0.16250000 0.16249700 8954.14479154 0 170.57359276 0 2773.72809032 0 -202.78187843 0 509.72886705 0 28590
0.16350000 0.16349900 8925.11315587 0 111.27797166 0 2747.48668050 0 35.89791646 0 415.26200616 0 29163
0.16450000 0.16449100 8754.78758318 0 143.92582862 0 2769.48738991 0 371.96589442 0 407.11720402 0 28996
0.16550000 0.16550500 8745.76363845 0 122.00373271 0 2652.16503614 0 241.20395278 0 565.62639166 0 30777
0.16650000 0.16650700 8634.68607587 0 17.08138622 0 2726.99180726 0 108.43116623 0 664.44799790 0 29211
0.16750000 0.16749900 8636.87839619 0 57.16674521 0 2725.56347736 0 110.03809273 0 607.04020818 0 30922
0.16850000 0.16850800 8558.90708481 0 36.41222595 0 2704.91359157 0 -36.35918952 0 702.02968280 0 30867
0.16950000 0.16949900 8557.79985233 0 155.67135079 0 2731.49824346 0 -257.49023536 0 521.24187040 0 30852
0.17050000 0.17049200 8403.14161926 0 247.30480375 0 2905.59947891 0 -123.86831221 0 884.25800467 0 31257
0.17150000 0.17149500 8235.65056173 0 174.54634291 0 2576.44140670 0 160.27190175 0 1127.94880160 0 32608
0.17250000 0.17250900 8136.35395276 0 -12.10426549 0 2400.38036976 0 565.43041151 0 685.29940000 0 32361
0.17350000 0.17350400 8226.52696608 0 -54.25095919 0 2246.34218688 0 546.42255150 0 466.76271059 0 32508
0.17450000 0.17449800 8057.81795282 0 48.38605946 0 2003.19393386 0 166.74146114 0 17.73044590 0 32791
0.17550000 0.17549800 7950.71535485 0 272.72464707 0 1817.15673226 0 -17.72502046 0 74.06964555 0 33633
0.17650000 0.17650100 7746.45310660 0 183.27908549 0 1683.64663960 0 -176.77852359 0 -125.50369459 0 33984
0.17750000 0.17750300 7579.17242324 0 253.75443296 0 1593.07502258 0 -115.90731067 0 -33.02641975 0 34069
0.17850000 0.17849800 7539.74387456 0 19.96882709 0 1535.05604053 0 49.36518514 0 -174.35589892 0 34536
