### header ###
fiducial parameters:
Omega_m = 0.31
Omega_nu = 0
Omega_de = 0.69
Omega_k = 0
H_0 = 100
w_de = -1
zeff = 0
beta = 0
fgrowth = 0
b_1 = 2
gamma = 0.55
Lx = 3500 Ly = 3500 Lz = 3500
nx = 700 ny = 700 nz = 700
xoffset = -685.467585 yoffset = -31.7331281 zoffset = 572.489161
bins = 400 dk = 0.001
kx_ny = 0.628318531 ky_ny = 0.628318531 kz_ny = 0.628318531
############################
A(data) = 8.07654983 (not used)
A(ran) = 8.07259596 (used)
Ngal = 479553
weighted Ngal = 0
Nran = 23820508
weighted Nran = 0
SN(data) = 3494.76483
SN(ran) = 70.3152385
SN(data+ran) = 3565.08007
############################
13 columns: k_central k_mean P_0(k) sigma^{lin}_{P_0(k)} P^img_1(k) sigma^{lin}_{P_1(k)} P_2(k) sigma^{lin}_{P_2(k)} P^img_3(k) sigma^{lin}_{P_3(k)} P_4(k) sigma^{lin}_{P_4(k)} N_modes
### header ###
0.00050000 0 0 0 0 0 0 0 0 0 0 0 0
0.00150000 0.00179520 30513.77707471 0 -14185.41966466 0 17128.22215496 0 34114.49710574 0 -47288.12772847 0 3
0.00250000 0.00253879 56555.55287843 0 -14305.22221919 0 11780.39999080 0 -7633.13893440 0 31627.87439797 0 6
0.00350000 0.00331552 55738.19386031 0 -6628.79049475 0 11379.02821612 0 -61962.72270361 0 2615.29419449 0 7
0.00450000 0.00420575 57207.15919400 0 -2638.75645078 0 4101.36627002 0 586.20652180 0 45598.49096114 0 24
0.00550000 0.00557378 60693.61283290 0 -3559.57527200 0 2253.24024524 0 9570.99507951 0 -6083.95460740 0 45
0.00650000 0.00659388 63250.87697301 0 3099.39838021 0 20604.59997827 0 11508.24224676 0 -330.76909547 0 40
0.00750000 0.00754703 61624.79535015 0 3052.66209715 0 1426.80192078 0 11685.95306010 0 -3873.60854850 0 57
0.00850000 0.00846663 56544.25910711 0 1258.92333188 0 14271.34090525 0 -16592.76452673 0 10071.49737829 0 75
0.00950000 0.00948925 55154.90378887 0 -490.74758061 0 6700.32878541 0 -6780.12703037 0 -18884.51431769 0 112
0.01050000 0.01054430 53521.84660137 0 3.07477353 0 2375.89945959 0 2519.20855971 0 20.82117465 0 105
0.01150000 0.01145670 61508.53593955 0 2340.21335669 0 11119.82509212 0 -9863.38196100 0 4267.99368622 0 144
0.01250000 0.01249090 62905.86333166 0 -8855.55681135 0 -927.79217139 0 10952.43368551 0 5953.36760849 0 169
0.01350000 0.01339930 74275.81224144 0 -14846.88034932 0 5561.62875641 0 7122.26186727 0 -3669.67846999 0 180
0.01450000 0.01448870 90610.92376963 0 -6112.52120543 0 18222.72146328 0 -6128.58714874 0 -29426.36405428 0 267
0.01550000 0.01550050 83091.04364580 0 8047.54283539 0 26855.81312438 0 -13643.76153453 0 4269.62131797 0 238
0.01650000 0.01653350 77924.36471568 0 19744.05889336 0 33309.09619843 0 -21262.96041198 0 20731.93171368 0 315
0.01750000 0.01747870 66618.52456660 0 4792.39006196 0 33231.03630846 0 3908.65245656 0 51050.06080885 0 297
0.01850000 0.01844180 80713.59406074 0 -8646.64418668 0 59634.87713374 0 17262.52945501 0 10529.70339626 0 388
0.01950000 0.01947590 79907.08592095 0 -7115.48560448 0 49284.46789327 0 22261.90555712 0 23497.57700688 0 399
0.02050000 0.02045430 79998.65404720 0 4979.12482002 0 47544.78421776 0 14913.53574473 0 7722.27114919 0 462
0.02150000 0.02154770 76799.97013034 0 4801.45829598 0 41050.53354188 0 12358.15389984 0 14213.98626269 0 571
0.02250000 0.02255340 71866.14219115 0 -962.22267264 0 37786.96580159 0 5704.07421520 0 13804.31024440 0 510
0.02350000 0.02348930 74113.49195959 0 1510.70799826 0 36741.07399922 0 16295.14043560 0 11321.34140382 0 555
0.02450000 0.02439640 70768.32118539 0 -1979.51023108 0 25397.14505277 0 -710.67716848 0 5342.97248589 0 592
0.02550000 0.02547300 71895.37312868 0 5567.62995646 0 26518.21794066 0 4589.26826316 0 7781.51915930 0 837
0.02650000 0.02652900 66380.35885976 0 6202.14060252 0 20437.62932000 0 -11466.27813569 0 4103.74681986 0 723
0.02750000 0.02749970 64961.77260399 0 818.55372196 0 28136.21676641 0 -5656.20855501 0 12562.43829274 0 826
0.02850000 0.02848090 65107.15222886 0 -453.23897306 0 28573.79504324 0 -11.47458238 0 8212.91907888 0 831
0.02950000 0.02946900 69439.42076065 0 338.97258093 0 30606.12026370 0 3124.94223357 0 -21.40446472 0 996
0.03050000 0.03053250 67862.27881348 0 1939.77165730 0 31375.09322236 0 5057.50580741 0 686.82073743 0 1041
0.03150000 0.03150510 64977.82747498 0 1921.55768298 0 26846.95526452 0 10172.56555923 0 4610.94787515 0 1036
0.03250000 0.03246190 61743.82284195 0 3320.92238286 0 25748.35919602 0 8858.54633906 0 4994.38248362 0 1059
0.03350000 0.03345080 60018.86535845 0 2239.22268202 0 18323.25817263 0 11071.17329687 0 9300.45389489 0 1302
0.03450000 0.03451200 56192.82351737 0 -197.15824465 0 17155.57079726 0 9056.97347213 0 4431.16653707 0 1339
0.03550000 0.03553350 54235.23648943 0 2326.57225252 0 12600.19492037 0 -1120.09852330 0 9865.95074036 0 1365
0.03650000 0.03647120 52661.30551646 0 3401.27424407 0 15132.43560640 0 3495.32257108 0 6821.47109125 0 1308
0.03750000 0.03744890 50748.00778780 0 4315.88149106 0 20171.11846162 0 -6575.89799909 0 15014.73679357 0 1579
0.03850000 0.03847530 49822.47215621 0 1124.98141855 0 23450.40890316 0 -3091.86919933 0 12390.92798130 0 1662
0.03950000 0.03950240 47293.88533737 0 -132.92990284 0 22522.21591361 0 1863.72693045 0 11387.66462948 0 1683
0.04050000 0.04050350 50167.26435106 0 1126.70870122 0 28092.48108337 0 -2570.62843617 0 10606.94393419 0 1822
0.04150000 0.04152450 48516.38072060 0 2236.43245617 0 26414.58098036 0 1548.32068567 0 2724.37873860 0 1887
0.04250000 0.04250150 47193.01645828 0 2101.56046755 0 28700.68388566 0 -3663.07936440 0 4839.80175683 0 1920
0.04350000 0.04349210 44009.94451941 0 2053.61730109 0 25409.21388682 0 -897.01332286 0 2110.98301597 0 2005
0.04450000 0.04448520 42843.91799276 0 1144.64586743 0 26493.96954931 0 3284.11797516 0 -2243.26408058 0 2151
0.04550000 0.04548030 41639.35977574 0 613.38354307 0 24242.96591367 0 4851.85951856 0 -5507.04219505 0 2274
0.04650000 0.04648670 40388.29779448 0 2205.49638063 0 20213.63618892 0 6633.40765420 0 -3438.03436246 0 2311
0.04750000 0.04749250 38278.35557704 0 1471.27944958 0 18535.18246966 0 6023.59936481 0 -1653.37490354 0 2568
0.04850000 0.04851840 37047.77739669 0 894.66709723 0 13965.85546350 0 4935.96489788 0 1965.82483760 0 2493
0.04950000 0.04949480 37172.11960441 0 -528.22850736 0 12719.22241217 0 5966.80941082 0 2837.15036688 0 2644
0.05050000 0.05050630 36257.87774413 0 -160.74801172 0 10745.89053834 0 2059.27525907 0 2394.77777340 0 2829
0.05150000 0.05149060 38278.35557704 0 -331.42014817 0 12526.12106733 0 -400.83808862 0 1876.91406931 0 2784
0.05250000 0.05249300 37478.26938564 0 108.35277417 0 9433.60967316 0 -1367.38782580 0 4606.47465593 0 3055
0.05350000 0.05348950 38429.16064107 0 -553.38040041 0 14736.71071738 0 -1938.24367648 0 2228.32751440 0 3009
0.05450000 0.05448610 38695.89294595 0 -413.96765139 0 13029.91184658 0 240.42224665 0 2573.67332550 0 3336
0.05550000 0.05550870 38712.27998668 0 1336.52925653 0 14872.34669641 0 -659.20414487 0 747.94882829 0 3349
0.05650000 0.05647670 36972.48558793 0 2454.90049717 0 13092.35975856 0 -890.47954398 0 2098.59308450 0 3324
0.05750000 0.05747970 35070.92452357 0 1982.76549457 0 13909.05443718 0 2007.83323796 0 1001.76637350 0 3639
0.05850000 0.05849280 33647.35572164 0 1342.40866101 0 13654.83385935 0 2480.87617119 0 3959.76230792 0 3846
0.05950000 0.05951020 32294.31762880 0 961.04457728 0 11557.84626194 0 1700.22190985 0 151.43950824 0 3787
0.06050000 0.06049470 31772.03606711 0 -45.20553415 0 10217.27560685 0 3121.39908962 0 597.76713615 0 3930
0.06150000 0.06148310 31486.81297978 0 -1150.75779073 0 6655.04297690 0 2633.43066254 0 -471.81058347 0 4083
0.06250000 0.06249100 31821.30791255 0 -140.99055531 0 7174.42358949 0 1049.87119591 0 338.04804181 0 4303
0.06350000 0.06350600 32878.82565598 0 31.56166190 0 6425.10400739 0 -1313.02271094 0 -1458.81201183 0 4470
0.06450000 0.06451750 32682.18116720 0 -28.66237364 0 8319.93309825 0 -620.09780084 0 1508.19458052 0 4479
0.06550000 0.06550280 31735.16522546 0 567.35035264 0 8331.30437584 0 -2219.51394385 0 851.95892594 0 4636
0.06650000 0.06648880 32716.61609738 0 1285.12045240 0 11619.18694144 0 -1115.95747382 0 3300.17284615 0 4653
0.06750000 0.06749660 31800.49194189 0 1570.13316556 0 13686.83287807 0 -498.08078134 0 3668.65981611 0 5220
0.06850000 0.06852730 30774.86249394 0 1159.79280778 0 14192.17378280 0 -217.59886350 0 5335.55402826 0 5029
0.06950000 0.06949320 29344.76102036 0 1208.86535137 0 14116.32835779 0 -701.88795704 0 2727.84437627 0 5040
0.07050000 0.07048030 29019.12394745 0 967.60603697 0 15513.43430341 0 1056.00526386 0 3982.64880332 0 5475
0.07150000 0.07148790 27951.64111168 0 392.08763032 0 14311.42272109 0 1949.12777178 0 3753.03093123 0 5509
0.07250000 0.07249820 28258.23378591 0 -366.35111851 0 12797.72519514 0 1834.49599293 0 3230.40612746 0 5916
0.07350000 0.07351270 27998.80921541 0 -437.08223668 0 10295.43514775 0 3700.35988207 0 2582.26544956 0 5721
0.07450000 0.07449140 28673.99958285 0 -706.38221369 0 10416.68817683 0 1527.71508918 0 -49.05748523 0 6028
0.07550000 0.07549160 28167.32999915 0 1054.68654997 0 8080.38335080 0 313.54830868 0 -18.21408505 0 6183
0.07650000 0.07648840 27797.51435020 0 1244.51823729 0 9262.45367612 0 -614.03459577 0 507.12354902 0 6330
0.07750000 0.07749960 26452.00543824 0 445.11742280 0 8594.61533235 0 624.93751402 0 1778.18214890 0 6583
0.07850000 0.07848650 26138.21575288 0 137.22707210 0 8498.68471012 0 2103.16595465 0 2751.61665766 0 6549
0.07950000 0.07947320 26739.66443703 0 -407.64092499 0 8253.41057074 0 1310.74181203 0 2458.03396509 0 6828
0.08050000 0.08048110 25834.39115986 0 586.48111546 0 8127.52930988 0 1708.75867229 0 2909.41943097 0 7147
0.08150000 0.08149960 25775.92928482 0 1216.31702598 0 7915.35034938 0 162.69231196 0 3955.24479939 0 7386
0.08250000 0.08250610 24529.62840323 0 501.91955635 0 7147.47355088 0 306.26604065 0 4497.62263063 0 7227
0.08350000 0.08350160 24555.20547356 0 138.01652886 0 8042.61565084 0 311.42020785 0 3780.82246652 0 7798
0.08450000 0.08449610 24106.22270216 0 393.18489771 0 7366.31805092 0 -1056.61867065 0 2107.04126834 0 7371
0.08550000 0.08548940 23594.79201879 0 1092.83845960 0 8298.09847371 0 -365.36789606 0 1726.19758388 0 8256
0.08650000 0.08650700 22638.14315446 0 693.68557882 0 7547.08482591 0 -769.75023586 0 544.47603679 0 8037
0.08750000 0.08749060 22021.19321556 0 410.23517069 0 8173.64554275 0 157.49496269 0 575.47190289 0 8155
0.08850000 0.08849210 21569.22091647 0 481.42025418 0 6488.98024927 0 45.31935765 0 -1475.92982600 0 8718
0.08950000 0.08949900 21649.93816440 0 120.84003137 0 6578.65500797 0 1048.91676151 0 -1631.90566572 0 8571
0.09050000 0.09049190 21057.01517036 0 183.40088106 0 6173.87295725 0 82.35263030 0 -2228.18357418 0 8932
0.09150000 0.09150830 21136.73590905 0 648.98660353 0 6645.01145061 0 916.81728303 0 -2204.78775184 0 9285
0.09250000 0.09250820 20119.07853497 0 644.62078585 0 6265.08676911 0 -288.35876972 0 -1330.84915390 0 9204
0.09350000 0.09350330 19487.29168082 0 1157.78871699 0 6092.08169382 0 -314.24918684 0 -2151.67380968 0 9349
0.09450000 0.09448040 19198.96834254 0 214.43107137 0 5899.41216965 0 102.28801897 0 -356.97064492 0 9564
0.09550000 0.09549270 18645.57354810 0 12.13759319 0 5998.44304283 0 1089.29199396 0 -1701.98240950 0 10155
0.09650000 0.09649430 18678.01545982 0 232.79784378 0 5755.00690936 0 572.72596634 0 -982.12739097 0 9913
0.09750000 0.09749140 18161.04861404 0 417.29488500 0 5583.17550050 0 672.74891982 0 -1686.22649128 0 10476
0.09850000 0.09850240 18374.85520629 0 420.84024340 0 5127.35003237 0 3.66242610 0 -1118.24944506 0 10575
0.09950000 0.09950330 17493.49815072 0 139.91543257 0 4567.45578326 0 146.21779986 0 -1379.67810635 0 10882
0.10050000 0.10051200 18118.08799374 0 38.55892829 0 5186.00013693 0 -219.88308411 0 -1629.52511588 0 10875
0.10150000 0.10150300 17451.09114667 0 166.49011937 0 4755.60779891 0 27.54395811 0 -1358.79570174 0 11118
0.10250000 0.10250800 17572.77599643 0 517.74080129 0 5066.27508867 0 323.19451806 0 -1345.54212894 0 11575
0.10350000 0.10349800 17540.22336146 0 119.12603549 0 4607.98049210 0 74.05846251 0 -1837.04262764 0 11364
0.10450000 0.10450100 16977.30636768 0 415.05273922 0 4922.76668669 0 248.61355255 0 -1844.79325501 0 12093
0.10550000 0.10551000 16475.84077664 0 321.89684159 0 4477.22740832 0 208.61035021 0 -1226.55892644 0 12067
0.10650000 0.10649700 16204.34737209 0 442.12678787 0 4351.35721978 0 604.26548358 0 -1205.83153437 0 12054
0.10750000 0.10749900 15842.50379702 0 306.99792132 0 4443.40145600 0 437.10105963 0 -1386.39900752 0 12807
0.10850000 0.10850100 15471.58091559 0 548.97361514 0 4348.13517326 0 122.71457597 0 -1874.24563903 0 12736
0.10950000 0.10950300 15168.08849231 0 387.72624157 0 4679.41913183 0 -499.43271220 0 -1248.70357607 0 12933
0.11050000 0.11050200 14784.76460709 0 415.50670454 0 4532.99870843 0 -463.13541698 0 -417.42443120 0 13428
0.11150000 0.11150900 14534.97295918 0 198.03960171 0 4240.24644022 0 1041.83379532 0 -337.27076460 0 13453
0.11250000 0.11250000 14633.73809656 0 -216.72968600 0 4116.10353436 0 1049.21239258 0 -12.35748956 0 13668
0.11350000 0.11349100 14803.36611279 0 -325.44773616 0 3724.95151549 0 1181.12917770 0 -502.62154175 0 13791
0.11450000 0.11448600 14936.78762685 0 -125.85800898 0 3954.39223038 0 268.12077441 0 405.36888394 0 14205
0.11550000 0.11549300 15138.74683154 0 101.83604667 0 3896.51718855 0 -76.36759585 0 427.43049114 0 14776
0.11650000 0.11649800 15072.64505238 0 -87.40504284 0 4317.05515749 0 -617.70617868 0 1468.02418608 0 14553
0.11750000 0.11747300 14999.45698532 0 132.73502993 0 4358.69817113 0 -371.39677693 0 838.43961733 0 14568
0.11850000 0.11849100 15303.61374809 0 241.58484075 0 5063.00875285 0 160.37044544 0 1233.21339365 0 16015
0.11950000 0.11950300 14841.78707991 0 475.71579244 0 4471.66910126 0 177.02875813 0 1452.33470181 0 15270
0.12050000 0.12050700 14354.60478789 0 656.29765960 0 4970.39982806 0 527.98491621 0 1528.51229656 0 15999
0.12150000 0.12150000 13819.92222239 0 472.50592547 0 4751.94285939 0 357.27181216 0 1471.20194330 0 15670
0.12250000 0.12250700 13700.56256085 0 340.74968906 0 5009.93909999 0 -9.24304389 0 1505.20505282 0 16887
0.12350000 0.12352200 13464.50059571 0 16.62874958 0 5245.31458099 0 -5.70747342 0 2016.61359154 0 16407
0.12450000 0.12449800 13394.08060987 0 -35.10081980 0 5490.69944362 0 115.60171450 0 2108.14850082 0 16306
0.12550000 0.12549900 13589.61786617 0 -139.92429043 0 5223.53531807 0 56.55311697 0 2147.17844581 0 17523
0.12650000 0.12650100 13636.12163040 0 15.58850467 0 5223.30279925 0 519.64856285 0 1853.40752372 0 17154
0.12750000 0.12750600 13647.19395522 0 81.85426496 0 5154.37757725 0 387.61108939 0 2003.62575453 0 18007
0.12850000 0.12850300 13672.21740931 0 109.59896432 0 5524.61397454 0 166.43475774 0 1325.67837821 0 17496
0.12950000 0.12949900 13287.78629161 0 411.13313624 0 4695.69544931 0 62.57258635 0 2039.45579765 0 18405
0.13050000 0.13049000 13045.74527107 0 357.13340810 0 4879.98322360 0 369.89204798 0 1503.93173547 0 18100
0.13150000 0.13148800 12762.95809521 0 -0.35009695 0 4499.51599818 0 71.83148581 0 1053.99895860 0 19059
0.13250000 0.13249300 12832.82446481 0 18.76515466 0 4891.05554841 0 164.46056223 0 1228.44122165 0 18957
0.13350000 0.13349100 12606.06325253 0 421.63412909 0 4697.06841759 0 -391.13319592 0 896.72987134 0 19468
0.13450000 0.13450700 12380.07710298 0 393.84923719 0 4626.94738452 0 -2.42967774 0 1242.89060554 0 19953
0.13550000 0.13551000 12234.03313862 0 109.42590389 0 4424.22418941 0 248.46629063 0 1192.84369736 0 19956
0.13650000 0.13649900 11822.69627161 0 266.29716252 0 4270.70640580 0 598.57652309 0 1215.90734996 0 19723
0.13750000 0.13749600 11851.48431613 0 69.99857316 0 4031.30059857 0 568.37454268 0 946.28627553 0 20946
0.13850000 0.13851100 11588.95949468 0 40.42372923 0 3588.50725675 0 819.02097407 0 1208.87642370 0 20955
0.13950000 0.13949800 11739.98600521 0 -5.36920282 0 3596.05858228 0 411.88051816 0 1031.82884262 0 20506
0.14050000 0.14048300 11614.75801151 0 128.59840937 0 3287.29573238 0 -205.69611432 0 739.45746239 0 21447
0.14150000 0.14148400 11486.87265986 0 133.38054646 0 3654.46509569 0 -259.21419633 0 1050.53553540 0 21771
0.14250000 0.14249400 11481.77939044 0 234.03240799 0 3966.73787255 0 -625.51881107 0 982.24032868 0 22470
0.14350000 0.14350900 11348.69004612 0 98.75129698 0 4141.64738771 0 -271.72592337 0 824.54384969 0 22519
0.14450000 0.14449900 11269.19075392 0 163.38543949 0 4300.71240606 0 -290.45918974 0 350.41804309 0 22218
0.14550000 0.14550500 11194.89545439 0 201.34026173 0 4050.40035888 0 -279.79875540 0 -155.15538045 0 23559
0.14650000 0.14650700 10991.28647330 0 235.85934159 0 4096.38372386 0 -17.06666003 0 -44.97965873 0 23044
0.14750000 0.14750500 10835.55422472 0 148.22189065 0 3937.51800736 0 -24.08496384 0 -332.67353534 0 23649
0.14850000 0.14849900 10761.24785287 0 11.38068906 0 3664.98380427 0 651.70928820 0 -478.01108537 0 23640
0.14950000 0.14949500 10684.52771420 0 -1.22209678 0 3707.82262899 0 379.38545928 0 -840.59650621 0 24457
0.15050000 0.15050000 10692.51086039 0 93.44167433 0 3408.92522052 0 762.98172370 0 -81.11695885 0 24591
0.15150000 0.15149900 10490.52951105 0 151.80600219 0 3265.49432481 0 220.84859083 0 -173.22762902 0 25020
0.15250000 0.15250500 10298.77898984 0 265.30729668 0 3145.00528614 0 523.68663972 0 425.67663489 0 25297
0.15350000 0.15350100 10159.81024104 0 335.43608038 0 3149.87710906 0 305.71685334 0 739.70769693 0 25452
0.15450000 0.15450400 9842.92030473 0 387.26231116 0 3011.29589163 0 192.46579339 0 917.83815138 0 26061
0.15550000 0.15549900 9601.84257646 0 -43.17852365 0 2995.70605828 0 286.86068417 0 1213.99183777 0 26128
0.15650000 0.15649500 9553.79975907 0 76.83695170 0 2703.31917680 0 316.11598080 0 638.15122646 0 26331
0.15750000 0.15749700 9582.31099548 0 166.48347597 0 2701.49224320 0 -59.91246032 0 745.42433823 0 27345
0.15850000 0.15849900 9380.19677824 0 101.50232680 0 2405.41827755 0 37.71964607 0 519.65963518 0 26980
0.15950000 0.15949700 9333.09510846 0 109.32005246 0 2348.53974496 0 -8.17325801 0 592.67165227 0 27777
0.16050000 0.16050000 9376.49862175 0 -93.82433388 0 2377.81497178 0 -10.78463260 0 -143.30134950 0 28224
0.16150000 0.16150500 9212.03030889 0 97.32861396 0 2312.13394095 0 116.96361045 0 176.52718182 0 28075
0.16250000 0.16249700 9270.70255811 0 201.79201259 0 2107.72775248 0 1.62941439 0 -78.65591322 0 28590
0.16350000 0.16349900 9090.72191818 0 80.85100161 0 2182.06734131 0 56.22404747 0 28.87507300 0 29163
0.16450000 0.16449100 9110.45280100 0 81.61609926 0 2302.17992094 0 163.57809794 0 60.82382337 0 28996
0.16550000 0.16550500 9016.49305259 0 8.38919049 0 2128.79838661 0 267.14308813 0 86.05521572 0 30777
0.16650000 0.16650700 8977.38560133 0 147.13237389 0 2144.19999043 0 -24.97041765 0 -4.05230480 0 29211
0.16750000 0.16749900 9011.12297506 0 126.35958530 0 2158.12897505 0 -51.39297071 0 503.89153740 0 30922
0.16850000 0.16850800 8926.19824370 0 139.50464932 0 2258.47745488 0 217.57671885 0 403.03373063 0 30867
0.16950000 0.16949900 8673.57208064 0 77.20876036 0 2131.12357482 0 151.18484477 0 565.66293034 0 30852
0.17050000 0.17049200 8580.64205843 0 176.62461827 0 2058.37840076 0 172.46696031 0 380.46943988 0 31257
0.17150000 0.17149500 8485.26505244 0 173.41253684 0 2155.65984662 0 72.65670618 0 568.55723604 0 32608
0.17250000 0.17250900 8343.42857152 0 118.05423445 0 1966.03521177 0 54.59829802 0 373.74521702 0 32361
0.17350000 0.17350400 8121.19594008 0 242.30786356 0 2033.14457250 0 -182.37226209 0 335.57891337 0 32508
0.17450000 0.17449800 8073.50743709 0 160.73140323 0 2141.60906642 0 -35.12761483 0 162.57383808 0 32791
0.17550000 0.17549800 8003.97323723 0 56.52632194 0 2185.32260481 0 -405.17954718 0 31.04170552 0 33633
0.17650000 0.17650100 7896.85956693 0 107.63406956 0 2388.45547593 0 -93.94302920 0 -16.59686129 0 33984
0.17750000 0.17750300 7906.68071905 0 151.84918426 0 2580.49387758 0 -273.40448782 0 -105.75897135 0 34069
0.17850000 0.17849800 7715.63882663 0 115.41902114 0 2510.43927846 0 82.47553311 0 30.52584591 0 34536
