### header ###
fiducial parameters:
Omega_m = 0.31
Omega_nu = 0
Omega_de = 0.69
Omega_k = 0
H_0 = 100
w_de = -1
zeff = 0
beta = 0
fgrowth = 0
b_1 = 2
gamma = 0.55
Lx = 3500 Ly = 3500 Lz = 3500
nx = 700 ny = 700 nz = 700
xoffset = -685.467585 yoffset = -31.7331281 zoffset = 572.489161
bins = 400 dk = 0.001
kx_ny = 0.628318531 ky_ny = 0.628318531 kz_ny = 0.628318531
############################
A(data) = 8.01767355 (not used)
A(ran) = 8.01114101 (used)
Ngal = 476245
weighted Ngal = 0
Nran = 23820508
weighted Nran = 0
SN(data) = 3491.19532
SN(ran) = 69.7799435
SN(data+ran) = 3560.97526
############################
13 columns: k_central k_mean P_0(k) sigma^{lin}_{P_0(k)} P^img_1(k) sigma^{lin}_{P_1(k)} P_2(k) sigma^{lin}_{P_2(k)} P^img_3(k) sigma^{lin}_{P_3(k)} P_4(k) sigma^{lin}_{P_4(k)} N_modes
### header ###
0.00050000 0 0 0 0 0 0 0 0 0 0 0 0
0.00150000 0.00179520 33642.92679171 0 -39860.36934713 0 8538.55615180 0 3255.83925757 0 87965.30247747 0 3
0.00250000 0.00253879 58112.76464092 0 -32211.71808565 0 5850.88216997 0 -27355.61786669 0 -24732.91628690 0 6
0.00350000 0.00331552 76484.40887301 0 -24823.37718067 0 -28717.73526588 0 16616.45930184 0 36752.25704728 0 7
0.00450000 0.00420575 81257.24520934 0 -4857.15208982 0 -23698.09680935 0 -27042.71396732 0 17207.72144715 0 24
0.00550000 0.00557378 75119.74483911 0 10432.67661387 0 -25091.43816453 0 -23745.04346658 0 11418.22424598 0 45
0.00650000 0.00659388 79273.97038782 0 -942.45746561 0 -7772.90489059 0 20972.53333199 0 20117.86057924 0 40
0.00750000 0.00754703 68602.46372761 0 -1829.20342166 0 -9953.13422598 0 -34678.07843901 0 -29525.35063815 0 57
0.00850000 0.00846663 69994.69785031 0 8133.76302875 0 1174.79580791 0 7451.82961550 0 13068.00064396 0 75
0.00950000 0.00948925 64436.39079135 0 -92.82937477 0 6957.77140976 0 -2658.39875501 0 9564.07487650 0 112
0.01050000 0.01054430 71110.23457578 0 -4080.18491265 0 16037.70888357 0 6858.93983843 0 20176.87607052 0 105
0.01150000 0.01145670 71119.53532863 0 -7186.19347077 0 16971.99165177 0 18953.71634781 0 17575.10118464 0 144
0.01250000 0.01249090 81058.27553235 0 -4197.78407454 0 9142.21930091 0 27139.48608623 0 14346.07909778 0 169
0.01350000 0.01339930 83022.61667842 0 -1398.34604600 0 3295.11279370 0 6187.45869981 0 21659.90325673 0 180
0.01450000 0.01448870 80903.59515463 0 -2294.06390685 0 333.97564074 0 17619.50120716 0 32626.48737336 0 267
0.01550000 0.01550050 92355.92216105 0 -2700.32964910 0 -8743.61560744 0 19030.55828205 0 39671.03259273 0 238
0.01650000 0.01653350 84950.41915260 0 5009.93909999 0 -8787.21842257 0 -3785.26246878 0 16329.68608904 0 315
0.01750000 0.01747870 81884.49241031 0 6521.36679936 0 5786.08692513 0 -14239.56333302 0 21763.87238678 0 297
0.01850000 0.01844180 71849.42298068 0 5172.25938183 0 -803.78324065 0 625.98938488 0 8160.61341644 0 388
0.01950000 0.01947590 73572.16599921 0 3800.85230212 0 15309.48208025 0 -10596.51380421 0 10543.80953808 0 399
0.02050000 0.02045430 71044.13279662 0 79.46441437 0 14036.60761909 0 -6019.01542234 0 -2423.79833675 0 462
0.02150000 0.02154770 72322.21125043 0 -1341.25713923 0 14041.03654902 0 -5235.48235655 0 -11770.54562171 0 571
0.02250000 0.02255340 72414.55443942 0 -1408.33328298 0 6209.00544390 0 -6924.23333789 0 -4273.78451210 0 510
0.02350000 0.02348930 75476.49514477 0 -2983.46006703 0 7343.55335109 0 3956.29667025 0 -14339.32497964 0 555
0.02450000 0.02439640 71650.89619668 0 -2850.21571017 0 5623.20195472 0 10487.90537007 0 -3793.41169984 0 592
0.02550000 0.02547300 73547.91760786 0 4549.65148496 0 -4712.96827603 0 11955.78561593 0 -10013.40088997 0 837
0.02650000 0.02652900 65796.62589532 0 890.58805277 0 -9727.04842551 0 4904.36448285 0 -9534.42319064 0 723
0.02750000 0.02749970 64527.40530136 0 6735.47234438 0 -5844.40485995 0 -4730.83900829 0 -5154.01219053 0 826
0.02850000 0.02848090 60863.68374211 0 628.62459818 0 -5592.16622826 0 -3809.56622175 0 -978.57981810 0 831
0.02950000 0.02946900 57692.68063730 0 3592.80331878 0 114.51662667 0 -6156.58905821 0 1093.41754219 0 996
0.03050000 0.03053250 58665.93798886 0 1791.46893868 0 2128.86482056 0 -5620.37851189 0 10422.51221969 0 1041
0.03150000 0.03150510 57796.42832085 0 -1452.16861694 0 8142.84233510 0 317.86872982 0 5897.07590911 0 1036
0.03250000 0.03246190 58885.50219001 0 -957.25009157 0 5530.55981296 0 2875.81492515 0 6429.34470779 0 1059
0.03350000 0.03345080 59427.93538288 0 1235.76002836 0 4381.87254698 0 2156.46812633 0 4496.33824095 0 1302
0.03450000 0.03451200 58497.97082136 0 544.17486956 0 5978.01460354 0 -4469.79787836 0 -3051.69880489 0 1339
0.03550000 0.03553350 56894.91963412 0 2958.21516645 0 10078.47294292 0 -6530.19144224 0 -3166.65168116 0 1365
0.03650000 0.03647120 56027.29226133 0 5666.12935804 0 13867.64394236 0 -12573.17844781 0 -7672.04708381 0 1308
0.03750000 0.03744890 51607.22019372 0 3742.91082634 0 16273.43867896 0 -3670.50889436 0 -5768.31584380 0 1579
0.03850000 0.03847530 50472.97123930 0 666.57166980 0 18791.06389622 0 -1329.60905352 0 -6907.13766837 0 1662
0.03950000 0.03950240 51572.56381704 0 -1109.98949074 0 21836.39611434 0 4920.20897966 0 -7869.90952832 0 1683
0.04050000 0.04050350 52563.09399532 0 -681.59570735 0 23940.46999963 0 2155.77056987 0 -6882.93356631 0 1822
0.04150000 0.04152450 51804.19685225 0 840.63636658 0 19622.70621335 0 2855.19825633 0 -8693.17009556 0 1887
0.04250000 0.04250150 50689.54591276 0 1636.46746355 0 19603.21892167 0 -303.59207420 0 -1988.82205625 0 1920
0.04350000 0.04349210 51020.16553184 0 1999.25218623 0 21708.73220918 0 -652.16214628 0 -6000.75715871 0 2005
0.04450000 0.04448520 48313.53572992 0 2667.74379716 0 23796.64050023 0 -2194.03652444 0 -2435.10318039 0 2151
0.04550000 0.04548030 45151.27976172 0 2753.66503775 0 19706.74515872 0 495.42231615 0 -9360.08943637 0 2274
0.04650000 0.04648670 43374.50379807 0 940.57517039 0 19321.87114803 0 975.67001114 0 -5706.84229640 0 2311
0.04750000 0.04749250 43234.88178211 0 1054.57693396 0 21072.95931810 0 4435.18579098 0 -7140.73050507 0 2568
0.04850000 0.04851840 40212.24782986 0 1439.30257550 0 18857.71929163 0 3169.59691956 0 -8328.73559648 0 2493
0.04950000 0.04949480 41389.01451159 0 2323.71559271 0 18002.49292264 0 3573.75892009 0 -5661.99938089 0 2644
0.05050000 0.05050630 37808.33538849 0 1555.06373148 0 16606.27276301 0 131.58350814 0 -918.58664053 0 2829
0.05150000 0.05149060 37244.75405522 0 340.07759894 0 16307.43071615 0 2115.77733262 0 1318.32635453 0 2784
0.05250000 0.05249300 36904.05862055 0 340.27800802 0 15682.73014988 0 4338.92299901 0 2206.65897473 0 3055
0.05350000 0.05348950 36120.35946988 0 636.86462231 0 12366.56886670 0 5532.95143513 0 3555.40100554 0 3009
0.05450000 0.05448610 35926.70450881 0 -496.18741380 0 11893.66987369 0 4373.16969967 0 6202.93780990 0 3336
0.05550000 0.05550870 36733.32337184 0 -389.28190321 0 9960.04335666 0 2909.93983024 0 5103.92099305 0 3349
0.05650000 0.05647670 35551.13125096 0 1038.14117500 0 10709.66189154 0 -81.63658306 0 5469.37414602 0 3324
0.05750000 0.05747970 34523.73023104 0 2025.75933185 0 9375.55747414 0 -2038.88003676 0 4902.11680091 0 3639
0.05850000 0.05849280 33118.87365805 0 1607.56869577 0 12297.03466684 0 -1339.66272446 0 7786.52385011 0 3846
0.05950000 0.05951020 33369.21892220 0 -86.62245092 0 12591.11561402 0 -812.36097069 0 2910.89205017 0 3787
0.06050000 0.06049470 32913.81420240 0 63.05390031 0 11221.02614096 0 651.11248989 0 1969.84409151 0 3930
0.06150000 0.06148310 32607.22152818 0 1220.45807546 0 10805.99111746 0 950.66648723 0 -117.93243888 0 4083
0.06250000 0.06249100 31520.02995423 0 -164.50152983 0 11428.63223131 0 1040.06443782 0 692.10887976 0 4303
0.06350000 0.06350600 31752.65949867 0 -741.07623627 0 9669.77128922 0 2634.41609945 0 544.89567791 0 4470
0.06450000 0.06451750 32563.59656839 0 -456.29382747 0 8540.37201307 0 926.91856496 0 -210.78052588 0 4479
0.06550000 0.06550280 33148.99038155 0 127.59082782 0 10704.19216308 0 549.69220902 0 -749.07045479 0 4636
0.06650000 0.06648880 32859.67053404 0 1029.80482164 0 10432.48838435 0 -1155.24208228 0 2058.57770261 0 4653
0.06750000 0.06749660 32005.55139753 0 1199.21028413 0 11669.23384962 0 -2020.13459084 0 1926.59559077 0 5220
0.06850000 0.06852730 31431.78352543 0 1461.45829746 0 13828.55863575 0 -697.01724136 0 2922.59549751 0 5029
0.06950000 0.06949320 30880.49247271 0 1070.58419395 0 14623.10866474 0 466.17919907 0 4971.16381848 0 5040
0.07050000 0.07048030 29538.74815118 0 1303.53372857 0 14425.91055972 0 1335.57703660 0 3829.29710458 0 5475
0.07150000 0.07148790 28544.56410572 0 540.44238886 0 14725.19549957 0 1698.09602349 0 4182.13887958 0 5509
0.07250000 0.07249820 28799.78119279 0 -392.96012951 0 13903.96116777 0 1753.57944315 0 4345.10135626 0 5916
0.07350000 0.07351270 28257.56944642 0 230.55791247 0 13307.60575303 0 1118.63697643 0 5158.31932489 0 5721
0.07450000 0.07449140 28622.73471894 0 1012.86859360 0 13544.22133441 0 602.26360726 0 3035.99824830 0 6028
0.07550000 0.07549160 27263.05323121 0 799.48385693 0 11629.48420352 0 807.29427485 0 4948.90844559 0 6183
0.07650000 0.07648840 27299.92407285 0 384.53630479 0 11643.32460954 0 1091.06135147 0 4762.79373772 0 6330
0.07750000 0.07749960 26315.04078024 0 93.73276575 0 10064.73218782 0 1573.27770581 0 3253.24833357 0 6583
0.07850000 0.07848650 26093.92645361 0 622.61675474 0 10321.20044760 0 2449.18717756 0 2338.53036332 0 6549
0.07950000 0.07947320 25534.44188052 0 290.72714000 0 8296.65907148 0 1688.00913558 0 810.62150846 0 6828
0.08050000 0.08048110 24368.85824686 0 871.08083090 0 7570.60244383 0 -296.54564669 0 1271.92224122 0 7147
0.08150000 0.08149960 24250.93798754 0 616.29777896 0 8206.62999838 0 -615.82277623 0 895.69239451 0 7386
0.08250000 0.08250610 23400.36199498 0 587.99691673 0 8142.25550189 0 -918.08727869 0 1589.24399819 0 7227
0.08350000 0.08350160 23062.10247177 0 799.34877456 0 8932.85271091 0 -315.63544191 0 1299.17123260 0 7798
0.08450000 0.08449610 22642.35063789 0 374.53910271 0 9241.00658294 0 -21.74969981 0 817.70890358 0 7371
0.08550000 0.08548940 22560.85832723 0 293.32138570 0 9552.91397308 0 487.18450649 0 1703.01213571 0 8256
0.08650000 0.08650700 21947.34080902 0 466.36299966 0 8396.28785020 0 1807.47952037 0 1307.25402971 0 8037
0.08750000 0.08749060 21464.47672368 0 142.94592787 0 8351.90997233 0 1946.19360570 0 2055.49959631 0 8155
0.08850000 0.08849210 21228.30403530 0 420.32870200 0 7345.85639466 0 1466.72872408 0 1360.83300951 0 8718
0.08950000 0.08949900 20944.96324319 0 585.17347390 0 7359.15425676 0 585.52003766 0 1452.16861694 0 8571
0.09050000 0.09049190 20173.44364983 0 545.52569319 0 6829.58710534 0 -135.67030324 0 1617.52271578 0 8932
0.09150000 0.09150830 19622.26332036 0 467.52448654 0 7032.36566207 0 -601.68009574 0 2114.84725734 0 9285
0.09250000 0.09250820 19426.83678731 0 407.61324418 0 7257.38851936 0 -520.71372050 0 1591.44739083 0 9204
0.09350000 0.09350330 19722.68930646 0 248.67112864 0 7869.42234603 0 -705.42888652 0 1220.20341199 0 9349
0.09450000 0.09448040 19312.01677894 0 40.02745073 0 7208.57063923 0 70.67896752 0 1243.89818710 0 9564
0.09550000 0.09549270 19298.72998916 0 46.52823408 0 7052.67230578 0 195.66126634 0 1059.30592389 0 10155
0.09650000 0.09649430 19594.80395481 0 -321.64107089 0 7121.87433590 0 1416.81468379 0 -134.54978396 0 9913
0.09750000 0.09749140 19581.51716502 0 -148.51973619 0 7357.06158737 0 1030.56438312 0 -1122.82231521 0 10476
0.09850000 0.09850240 19315.33847638 0 629.16603487 0 6691.01696023 0 215.84279278 0 -531.34425956 0 10575
0.09950000 0.09950330 18658.08527515 0 1012.27068806 0 6755.00392536 0 56.79659739 0 -29.22883378 0 10882
0.10050000 0.10051200 18185.73989839 0 558.00309603 0 7021.78051954 0 45.16412366 0 1352.94951424 0 10875
0.10150000 0.10150300 17532.47273409 0 466.11387236 0 6893.41905792 0 366.03666448 0 1561.12029316 0 11118
0.10250000 0.10250800 17238.28106365 0 505.14049564 0 6858.99520006 0 743.86203320 0 844.67112174 0 11575
0.10350000 0.10349800 16649.12266005 0 459.02204831 0 6611.66160826 0 460.15253267 0 1624.22147230 0 11364
0.10450000 0.10450100 16460.22879865 0 399.33889584 0 7001.80604557 0 -369.82007787 0 845.01989997 0 12093
0.10550000 0.10551000 16039.59117879 0 377.60281499 0 6791.38758471 0 434.59982146 0 1497.88624612 0 12067
0.10650000 0.10649700 16055.09243353 0 -65.99504196 0 6527.35692709 0 -10.44925188 0 1992.03303045 0 12054
0.10750000 0.10749900 16007.81360656 0 -223.76393396 0 6208.17501954 0 886.77806580 0 1695.16185741 0 12807
0.10850000 0.10850100 16481.93055529 0 -189.91472975 0 6483.02333851 0 674.63453674 0 1435.17259834 0 12736
0.10950000 0.10950300 16074.69044846 0 174.66149508 0 5890.46573120 0 924.53469343 0 1574.94962685 0 12933
0.11050000 0.11050200 16152.08599894 0 129.07009041 0 5694.06483356 0 425.60245031 0 1508.99178791 0 13428
0.11150000 0.11150900 15740.85985518 0 43.91516542 0 5039.50220726 0 321.73961458 0 1196.66364942 0 13453
0.11250000 0.11250000 15705.98203200 0 242.44294593 0 4531.02783461 0 423.71019000 0 661.36767714 0 13668
0.11350000 0.11349100 15344.24918018 0 513.74258480 0 4124.28598240 0 220.39573275 0 195.56825881 0 13791
0.11450000 0.11448600 14961.92180419 0 361.82918105 0 3916.04876953 0 -199.38931810 0 624.87218730 0 14205
0.11550000 0.11549300 14465.54948257 0 546.64399799 0 3787.13369167 0 146.73709189 0 409.09804293 0 14776
0.11650000 0.11649800 14478.83627235 0 294.09866290 0 3527.70912117 0 668.16165565 0 724.17876137 0 14553
0.11750000 0.11747300 14037.16123534 0 -109.42202857 0 3197.94207110 0 444.35121792 0 1025.14780182 0 14568
0.11850000 0.11849100 14314.08007905 0 -39.44194619 0 3779.61558312 0 63.61238838 0 658.80443394 0 16015
0.11950000 0.11950300 14098.05902184 0 144.12955940 0 4124.16418683 0 -37.19182834 0 1289.19506793 0 15270
0.12050000 0.12050700 14056.09491078 0 419.08085099 0 4188.43903240 0 82.54650671 0 972.05489708 0 15999
0.12150000 0.12150000 13835.64492364 0 276.93988113 0 4047.53262676 0 -430.82526593 0 1458.90059043 0 15670
0.12250000 0.12250700 13740.09076045 0 57.61960329 0 3971.67612942 0 -70.29431496 0 790.80979766 0 16887
0.12350000 0.12352200 13817.59703418 0 -180.48332347 0 3809.30048596 0 528.59943024 0 831.86265639 0 16407
0.12450000 0.12449800 13902.07887255 0 -114.23317515 0 3643.91317014 0 220.19643090 0 326.02460429 0 16306
0.12550000 0.12549900 13779.06534381 0 317.68271477 0 3414.16243015 0 233.82978445 0 385.63025048 0 17523
0.12650000 0.12650100 13562.60139361 0 477.62798293 0 3526.15899570 0 478.65549468 0 919.54218217 0 17154
0.12750000 0.12750600 13084.83057768 0 468.76347968 0 3396.55743369 0 80.31731556 0 1298.27437429 0 18007
0.12850000 0.12850300 12773.80897353 0 266.99139728 0 3478.40405875 0 283.79807912 0 1610.18176443 0 17496
0.12950000 0.12949900 12687.99845618 0 100.16490069 0 3705.85175518 0 184.09290136 0 1697.18809285 0 18405
0.13050000 0.13049000 12716.45433097 0 13.29354390 0 3492.02301828 0 -3.72345675 0 1520.39628247 0 18100
0.13150000 0.13148800 12725.09074433 0 122.52634644 0 3834.37930167 0 -241.38332444 0 1183.02254525 0 19059
0.13250000 0.13249300 12404.76838732 0 151.94108456 0 3672.73443164 0 -263.92657777 0 1578.57027707 0 18957
0.13350000 0.13349100 12480.06019609 0 109.95637897 0 3822.94159013 0 141.79440609 0 1631.05309671 0 19468
0.13450000 0.13450700 12398.45716218 0 55.79233753 0 3867.18660011 0 532.10049934 0 1552.31779492 0 19953
0.13550000 0.13551000 12486.59286773 0 -52.10746783 0 3577.53458285 0 723.18778830 0 1002.93450377 0 19956
0.13650000 0.13649900 12366.12597371 0 24.71154670 0 3926.27959767 0 356.33287901 0 1514.26221452 0 19723
0.13750000 0.13749600 12330.47308779 0 371.80645295 0 3769.47333358 0 -151.13280484 0 1456.52004059 0 20946
0.13850000 0.13851100 12014.80110721 0 319.62812224 0 4022.11056897 0 -320.26367368 0 1866.62787955 0 20955
0.13950000 0.13949800 11744.19348864 0 228.63464965 0 4248.72784104 0 -183.67215302 0 1490.24634199 0 20506
0.14050000 0.14048300 11704.11167280 0 288.40527348 0 3821.72363440 0 116.46757030 0 1327.84855388 0 21447
0.14150000 0.14148400 11300.30398666 0 254.73322648 0 3852.03965976 0 -129.76875411 0 916.38214066 0 21771
0.14250000 0.14249400 11186.03759453 0 283.47033831 0 3879.75368878 0 94.27209869 0 391.16530566 0 22470
0.14350000 0.14350900 10821.30414268 0 260.09112445 0 3503.08427077 0 123.16743405 0 377.19313897 0 22519
0.14450000 0.14449900 10663.19134427 0 216.14285278 0 3574.24610238 0 72.43315595 0 320.07322970 0 22218
0.14550000 0.14550500 10453.09398084 0 164.89349013 0 3079.99966713 0 413.34317227 0 124.59908565 0 23559
0.14650000 0.14650700 10475.01718398 0 16.16127603 0 3162.96459699 0 388.37065087 0 204.98084214 0 23044
0.14750000 0.14750500 10358.25951877 0 79.41946074 0 3019.20153155 0 387.07186717 0 347.68317886 0 23649
0.14850000 0.14849900 10241.40220263 0 38.95498535 0 2772.29976042 0 149.99456985 0 418.36668604 0 23640
0.14950000 0.14949500 10179.19788180 0 128.18984059 0 2579.81846577 0 463.93594606 0 519.18684691 0 24457
0.15050000 0.15050000 10105.93230847 0 -10.22178204 0 2578.16868937 0 -8.19948835 0 470.64023874 0 24591
0.15150000 0.15149900 10197.23469893 0 77.57824384 0 2326.53903554 0 -33.87511344 0 391.21623835 0 25020
0.15250000 0.15250500 10080.22237025 0 241.66013256 0 2651.82179407 0 -196.56255358 0 530.12408936 0 25297
0.15350000 0.15350100 9932.75007599 0 166.63627406 0 2646.61780140 0 -340.97445726 0 695.43279167 0 25452
0.15450000 0.15450400 9794.91070432 0 165.33416866 0 2637.36133785 0 54.82937744 0 575.24270577 0 26061
0.15550000 0.15549900 9703.17649320 0 192.95629738 0 3084.96006865 0 -186.80229925 0 361.55790909 0 26128
0.15650000 0.15649500 9592.12107527 0 185.86447334 0 3257.36723840 0 -24.37505875 0 -154.23637749 0 26331
0.15750000 0.15749700 9286.22595750 0 245.64616950 0 3187.83303854 0 25.59500750 0 554.09788706 0 27345
0.15850000 0.15849900 9372.56794644 0 77.72129828 0 3074.25313055 0 379.95125508 0 627.46864747 0 26980
0.15950000 0.15949700 9146.90289431 0 -33.01424019 0 2886.53293557 0 644.24211234 0 778.33460929 0 27777
0.16050000 0.16050000 9291.51852876 0 29.64360307 0 2669.92504514 0 426.84033622 0 529.94914663 0 28224
0.16150000 0.16150500 9174.21831964 0 81.16910950 0 2589.57318394 0 182.12424201 0 612.26413103 0 28075
0.16250000 0.16249700 9090.45618238 0 182.60699537 0 2466.98040354 0 11.83277209 0 713.39210253 0 28590
0.16350000 0.16349900 8985.14730103 0 110.46459868 0 2532.41784322 0 -3.83296204 0 649.61108265 0 29163
0.16450000 0.16449100 8952.43965352 0 17.35077588 0 2435.73430291 0 -180.95943344 0 456.92937892 0 28996
0.16550000 0.16550500 9009.78322375 0 67.87722645 0 2550.11141828 0 -260.09776785 0 161.97925424 0 30777
0.16650000 0.16650700 8731.04851877 0 251.70494564 0 2546.69006991 0 -68.56658940 0 41.46009884 0 29211
0.16750000 0.16749900 8733.62837045 0 247.58271911 0 2572.58823766 0 -174.31493132 0 -99.54994377 0 30922
0.16850000 0.16850800 8464.57087736 0 30.18072154 0 2546.47969574 0 172.63415241 0 199.09700873 0 30867
0.16950000 0.16949900 8482.53018821 0 29.23481283 0 2471.94080506 0 291.59410303 0 -97.90880378 0 30852
0.17050000 0.17049200 8503.34615887 0 64.76856054 0 2479.94609591 0 382.23215399 0 154.77670694 0 31257
0.17150000 0.17149500 8512.83514124 0 49.56614784 0 2381.78993639 0 25.78821957 0 393.11735652 0 32608
0.17250000 0.17250900 8361.08892960 0 133.16352890 0 2389.57378074 0 65.86604937 0 352.50739079 0 32361
0.17350000 0.17350400 8379.18110836 0 139.33302829 0 2461.12314371 0 -64.04598062 0 707.02773022 0 32508
0.17450000 0.17449800 8281.17996139 0 -35.65343953 0 2479.33711804 0 124.20601812 0 562.13085872 0 32791
0.17550000 0.17549800 8272.44389711 0 50.74291452 0 2496.12276247 0 87.47302692 0 718.95926745 0 33633
0.17650000 0.17650100 8190.46440415 0 176.34005953 0 2391.87682430 0 217.65311789 0 271.18670116 0 33984
0.17750000 0.17750300 8108.49598352 0 91.66168739 0 2323.87060526 0 41.66692986 0 272.21089120 0 34069
0.17850000 0.17849800 8002.55597965 0 51.65494191 0 2126.81644046 0 -6.41506141 0 117.40096728 0 34536
