### header ###
fiducial parameters:
Omega_m = 0.31
Omega_nu = 0
Omega_de = 0.69
Omega_k = 0
H_0 = 100
w_de = -1
zeff = 0
beta = 0
fgrowth = 0
b_1 = 2
gamma = 0.55
Lx = 3500 Ly = 3500 Lz = 3500
nx = 700 ny = 700 nz = 700
xoffset = -685.467585 yoffset = -31.7331281 zoffset = 572.489161
bins = 400 dk = 0.001
kx_ny = 0.628318531 ky_ny = 0.628318531 kz_ny = 0.628318531
############################
A(data) = 8.05934174 (not used)
A(ran) = 8.05612517 (used)
Ngal = 479238
weighted Ngal = 0
Nran = 23820508
weighted Nran = 0
SN(data) = 3487.90279
SN(ran) = 70.1717719
SN(data+ran) = 3558.07456
############################
13 columns: k_central k_mean P_0(k) sigma^{lin}_{P_0(k)} P^img_1(k) sigma^{lin}_{P_1(k)} P_2(k) sigma^{lin}_{P_2(k)} P^img_3(k) sigma^{lin}_{P_3(k)} P_4(k) sigma^{lin}_{P_4(k)} N_modes
### header ###
0.00050000 0 0 0 0 0 0 0 0 0 0 0 0
0.00150000 0.00179520 14145.00567907 0 -23037.85408041 0 -21420.07670116 0 2509.69743269 0 621.02012550 0 3
0.00250000 0.00253879 24985.58673926 0 -19638.20746810 0 -15104.20117811 0 1634.76232552 0 19350.76991580 0 6
0.00350000 0.00331552 42017.03677530 0 -25656.23745353 0 -21433.80638394 0 -13679.74659019 0 -687.19719647 0 7
0.00450000 0.00420575 54356.03555320 0 -21314.00382940 0 -30324.55104356 0 3207.70786159 0 14542.39141681 0 24
0.00550000 0.00557378 62604.80681985 0 -10450.85737123 0 -20648.88927754 0 -4756.50465722 0 5696.95471034 0 45
0.00650000 0.00659388 71306.10400183 0 -14.47086420 0 -29336.34605350 0 20195.25612972 0 31848.54583160 0 40
0.00750000 0.00754703 57735.53053435 0 3284.50550653 0 -4462.06939564 0 -9504.37290108 0 9948.74958535 0 57
0.00850000 0.00846663 64097.13475890 0 3662.31537399 0 -2053.22976972 0 -4445.46090841 0 47819.59931976 0 75
0.00950000 0.00948925 59926.74361596 0 1949.09455480 0 17598.46379000 0 2887.10869646 0 64177.40911384 0 112
0.01050000 0.01054430 58110.21800621 0 -1949.96926846 0 15451.09711468 0 7892.97318092 0 56060.84140553 0 105
0.01150000 0.01145670 69492.34647328 0 -3873.30959573 0 7478.39212274 0 40767.41419627 0 57195.97614594 0 144
0.01250000 0.01249090 67031.74372884 0 -1632.97968123 0 8495.66196545 0 15283.12994718 0 34797.65954705 0 169
0.01350000 0.01339930 80554.81692284 0 -1423.93418865 0 160.07924330 0 -4526.10065007 0 14118.65354600 0 180
0.01450000 0.01448870 69204.35530475 0 1488.71836117 0 -9861.00141116 0 -694.82492104 0 1826.49070208 0 267
0.01550000 0.01550050 66578.44275076 0 5138.20091069 0 -78.64417655 0 -16452.81034102 0 7968.94040150 0 238
0.01650000 0.01653350 62019.85589968 0 4153.59442619 0 -1921.28087486 0 -15567.46724852 0 -10493.97300407 0 315
0.01750000 0.01747870 66678.64729037 0 -4324.67291697 0 3004.38676094 0 5402.55266574 0 -12821.19852375 0 297
0.01850000 0.01844180 57908.14807827 0 -6002.91626205 0 -1421.19932442 0 -1028.45621248 0 -23379.10313132 0 388
0.01950000 0.01947590 73893.92775844 0 -3975.17498407 0 5113.24389055 0 691.93172257 0 -22908.75077303 0 399
0.02050000 0.02045430 74400.48661889 0 3732.58034729 0 1490.85531986 0 -11522.08265278 0 -13048.51335228 0 462
0.02150000 0.02154770 67608.16895890 0 7002.97971200 0 10252.49667210 0 -11844.28730500 0 -12725.20146757 0 571
0.02250000 0.02255340 64417.23566941 0 -1461.39186351 0 16565.85877742 0 -12814.44440561 0 416.36813141 0 510
0.02350000 0.02348930 69683.45479965 0 1456.33181107 0 23865.73180710 0 632.81215143 0 -16709.79900006 0 555
0.02450000 0.02439640 66009.21453183 0 2948.83690733 0 15821.46637986 0 -1401.14734418 0 -8621.79788978 0 592
0.02550000 0.02547300 65665.97246246 0 -747.86800032 0 17990.75625833 0 4025.31047084 0 -18791.72823571 0 837
0.02650000 0.02652900 60796.47473046 0 2798.27543444 0 13141.41015751 0 -3150.33107438 0 -16246.20075990 0 723
0.02750000 0.02749970 64807.75656576 0 5404.18029748 0 18301.33496949 0 -351.41344509 0 -24068.90896753 0 826
0.02850000 0.02848090 55556.71845654 0 2702.34481221 0 11255.79324089 0 -1851.56951780 0 -10070.14655466 0 831
0.02950000 0.02946900 55193.32475599 0 2861.26589034 0 12305.56035695 0 -1859.94019536 0 -18647.45584332 0 996
0.03050000 0.03053250 55495.37777704 0 441.10591952 0 13805.63892338 0 -4664.83688004 0 -17694.46084618 0 1041
0.03150000 0.03150510 54341.30936119 0 3167.84749224 0 19864.96868038 0 1768.94783000 0 -12442.30356846 0 1036
0.03250000 0.03246190 51769.31902907 0 2526.17305202 0 20886.72281465 0 -5161.84032418 0 -13323.21773103 0 1059
0.03350000 0.03345080 51489.52138090 0 2618.60481961 0 26886.37274088 0 256.71295815 0 -5302.52528332 0 1302
0.03450000 0.03451200 50475.07498102 0 46.73141124 0 24954.91639951 0 333.71211941 0 -7623.57244576 0 1339
0.03550000 0.03553350 50083.66829868 0 -767.59334698 0 24069.13041402 0 6525.65178907 0 -4200.86218084 0 1365
0.03650000 0.03647120 51752.59981859 0 -2930.01395513 0 21505.44432551 0 6578.51106775 0 -3115.30931097 0 1308
0.03750000 0.03744890 53317.78365496 0 -86.66995120 0 22081.31593933 0 3347.08628640 0 -8060.10992406 0 1579
0.03850000 0.03847530 53322.54475463 0 1990.09537360 0 18439.18541348 0 -1121.53792553 0 -7296.04200530 0 1662
0.03950000 0.03950240 50298.24995366 0 4083.78341821 0 19605.87627963 0 -3045.90797901 0 -5979.21041462 0 1683
0.04050000 0.04050350 46734.73293403 0 3646.39337090 0 19774.83995636 0 -62.38158875 0 1211.25697354 0 1822
0.04150000 0.04152450 45429.52728441 0 2256.27406224 0 20619.21544703 0 2156.40169238 0 -9094.34256839 0 1887
0.04250000 0.04250150 43567.60514291 0 807.42824998 0 21250.33796169 0 2956.87541514 0 -622.95003171 0 1920
0.04350000 0.04349210 42444.53923655 0 443.76438471 0 19757.45640639 0 6069.30592167 0 -1997.32560171 0 2005
0.04450000 0.04448520 41977.61929895 0 1199.03312694 0 18315.28609876 0 5076.62771237 0 2799.89199387 0 2151
0.04550000 0.04548030 41973.41181552 0 -1447.72861469 0 16250.07607359 0 6360.29769022 0 815.50108201 0 2274
0.04650000 0.04648670 41859.58831638 0 -1282.77311954 0 13758.47081965 0 5069.85144959 0 1470.29401267 0 2311
0.04750000 0.04749250 44138.93710355 0 586.49108055 0 14050.33730187 0 3247.33571211 0 2495.93453294 0 2568
0.04850000 0.04851840 42334.25888136 0 1710.02091732 0 10473.86566220 0 -386.63893927 0 2228.57110555 0 2493
0.04950000 0.04949480 41177.31166106 0 1599.55233260 0 11314.58728568 0 -3524.46493000 0 1204.63572329 0 2644
0.05050000 0.05050630 38582.95523280 0 1304.62988873 0 12302.46010600 0 -2636.09909282 0 2568.55791143 0 2829
0.05150000 0.05149060 38436.13620570 0 1765.34932444 0 14582.80540240 0 -1218.47612932 0 -124.92018307 0 2784
0.05250000 0.05249300 37887.72395744 0 409.42356928 0 14826.83944140 0 835.34379532 0 -1017.18901474 0 3055
0.05350000 0.05348950 36814.59423601 0 350.51990848 0 14795.50476216 0 1719.26630854 0 -4152.98544833 0 3009
0.05450000 0.05448610 36678.07247100 0 1861.80034593 0 13731.12217735 0 362.18460268 0 -2948.79261803 0 3336
0.05550000 0.05550870 34606.99411367 0 1250.27584620 0 14867.36415024 0 1415.85139153 0 -702.47146856 0 3349
0.05650000 0.05647670 33771.80865260 0 1205.46614766 0 13631.80342372 0 66.32920472 0 -1386.73117726 0 3324
0.05750000 0.05747970 33029.29855026 0 827.62749215 0 15097.77922971 0 648.49388507 0 48.94554403 0 3639
0.05850000 0.05849280 32445.12269283 0 650.24109793 0 15801.53619519 0 863.13533061 0 185.47362027 0 3846
0.05950000 0.05951020 32274.83033712 0 1186.80928034 0 15777.95214332 0 593.50650556 0 629.52920712 0 3787
0.06050000 0.06049470 31385.05831469 0 -74.18236182 0 16679.57155331 0 1251.83704400 0 3586.40351503 0 3930
0.06150000 0.06148310 31868.91890927 0 -280.44537917 0 13928.20955912 0 3860.34390337 0 3799.98866078 0 4083
0.06250000 0.06249100 32912.81769317 0 -585.40709995 0 13403.82425571 0 4038.20972926 0 4511.35231341 0 4303
0.06350000 0.06350600 32656.71482012 0 -1397.95851463 0 10988.95021276 0 2898.73463752 0 3648.53032959 0 4470
0.06450000 0.06451750 33439.08529180 0 -360.86367433 0 10293.44212928 0 2954.07411697 0 3300.71539006 0 4479
0.06550000 0.06550280 33624.65745576 0 -126.14146050 0 8687.75572873 0 619.47664342 0 2643.76114160 0 4636
0.06650000 0.06648880 33251.96300237 0 1359.07250986 0 9462.64130884 0 -2576.02065836 0 2945.53735453 0 4653
0.06750000 0.06749660 31911.99025281 0 1869.36274378 0 8493.77967023 0 -578.55886705 0 3753.39631795 0 5220
0.06850000 0.06852730 30748.06746788 0 660.27262421 0 9708.93410210 0 -111.76736842 0 2755.08229532 0 5029
0.06950000 0.06949320 30558.50926698 0 503.17294352 0 9814.89625062 0 79.88040162 0 1158.14303138 0 5040
0.07050000 0.07048030 29798.39416818 0 1223.91264080 0 10861.41917550 0 1002.95332672 0 -772.79733965 0 5475
0.07150000 0.07148790 28189.91754178 0 1546.87021111 0 10307.93580247 0 -890.11305003 0 1250.98447499 0 5509
0.07250000 0.07249820 27614.71026745 0 1253.68612224 0 9423.20168783 0 -91.53778808 0 93.65049838 0 5916
0.07350000 0.07351270 26555.86384504 0 554.99474537 0 10580.18212511 0 -78.72267934 0 -609.66767086 0 5721
0.07450000 0.07449140 25981.65307995 0 461.40591984 0 10572.43149773 0 395.68724311 0 -137.72975565 0 6028
0.07550000 0.07549160 25641.95415451 0 476.67465577 0 11298.53241469 0 721.71627633 0 -514.59958274 0 6183
0.07650000 0.07648840 25092.76684351 0 727.46724184 0 9800.73474717 0 588.20950536 0 69.48249210 0 6330
0.07750000 0.07749960 25374.66823339 0 344.50874334 0 11360.86960342 0 856.15533704 0 1801.99871959 0 6583
0.07850000 0.07848650 24624.85039667 0 127.18447349 0 10364.48216532 0 712.60375300 0 3313.14961083 0 6549
0.07950000 0.07947320 24803.55771924 0 409.49996833 0 10021.78263985 0 1518.49184260 0 1891.03128345 0 6828
0.08050000 0.08048110 24224.14296148 0 76.82754022 0 8933.56133970 0 1274.75675637 0 3142.09326471 0 7147
0.08150000 0.08149960 24509.14460231 0 418.53277091 0 10137.55486816 0 523.15848982 0 1190.45207520 0 7386
0.08250000 0.08250610 23483.29370787 0 450.88167510 0 9248.38075127 0 -105.45691833 0 673.38004233 0 7227
0.08350000 0.08350160 23123.77532101 0 1069.41163475 0 9938.25302142 0 -620.63037966 0 1216.98136547 0 7798
0.08450000 0.08449610 22773.66841024 0 380.26238741 0 9575.87797476 0 -362.74596955 0 1361.44198738 0 7371
0.08550000 0.08548940 22108.22168864 0 -216.71750644 0 10008.58442867 0 1641.16212927 0 1281.32264499 0 8256
0.08650000 0.08650700 22524.20893208 0 77.89823403 0 9234.01994598 0 988.27585294 0 1304.26450201 0 8037
0.08750000 0.08749060 22177.09154901 0 263.41614360 0 8209.64167073 0 1129.94182007 0 1096.18783786 0 8155
0.08850000 0.08849210 21626.13266604 0 592.11582156 0 7970.41302070 0 873.46691690 0 568.45758512 0 8718
0.08950000 0.08949900 21420.63031740 0 322.22458241 0 6982.37411551 0 1114.54021624 0 2204.30056955 0 8571
0.09050000 0.09049190 20623.75510020 0 290.23885047 0 5920.96998607 0 1296.80175508 0 749.11363686 0 8932
0.09150000 0.09150830 20518.45729118 0 119.29987099 0 5402.87376316 0 1502.38160999 0 1100.36210431 0 9285
0.09250000 0.09250820 20421.68517226 0 89.84394383 0 4530.73995417 0 689.60431989 0 -271.35721496 0 9204
0.09350000 0.09350330 19743.83744687 0 778.81736265 0 4890.51300450 0 -366.74861497 0 186.28743614 0 9349
0.09450000 0.09448040 19193.54290338 0 1038.97381382 0 4500.27998859 0 -782.87204800 0 -459.52251739 0 9564
0.09550000 0.09549270 18419.36595206 0 906.54327283 0 5227.01202806 0 -529.88714161 0 -6.73155274 0 10155
0.09650000 0.09649430 17888.55870025 0 482.76332719 0 5373.70925958 0 -325.36801542 0 990.95867725 0 9913
0.09750000 0.09749140 17881.69385887 0 13.05936423 0 6096.15630935 0 -144.02880124 0 162.57605254 0 10476
0.09850000 0.09850240 17735.98206425 0 184.79931569 0 6469.42652364 0 196.10748103 0 1261.75784703 0 10575
0.09950000 0.09950330 17970.93679690 0 -224.70065264 0 5726.08599694 0 375.19901327 0 153.33176855 0 10882
0.10050000 0.10051200 17957.31783738 0 -29.53708730 0 6448.09015371 0 135.59944036 0 579.97280293 0 10875
0.10150000 0.10150300 17735.64989451 0 163.64231742 0 5499.85625624 0 726.55377504 0 410.57398383 0 11118
0.10250000 0.10250800 17737.53218973 0 545.71945887 0 6465.85016272 0 256.25677837 0 -664.65062145 0 11575
0.10350000 0.10349800 16967.67344509 0 453.15039446 0 5511.26075081 0 -178.06844943 0 -120.88653514 0 11364
0.10450000 0.10450100 16643.69722089 0 579.10141097 0 5496.92209017 0 546.40040685 0 -261.31904528 0 12093
0.10550000 0.10551000 16243.54340195 0 -23.94899569 0 4981.61609311 0 349.44257128 0 -532.78144732 0 12067
0.10650000 0.10649700 16360.79932178 0 23.72500256 0 5113.17745660 0 773.13393832 0 -1145.69773828 0 12054
0.10750000 0.10749900 16220.29151983 0 249.78500451 0 4483.71579066 0 142.64033171 0 -1311.40615152 0 12807
0.10850000 0.10850100 15966.84600473 0 254.47302684 0 5301.45126782 0 -166.35282254 0 -682.65200714 0 12736
0.10950000 0.10950300 15876.27438771 0 404.51299323 0 5021.24394363 0 -368.30870553 0 -508.37250726 0 12933
0.11050000 0.11050200 15493.06122574 0 335.35414518 0 5286.92437766 0 87.92710296 0 -565.53227690 0 13428
0.11150000 0.11150900 15599.24482075 0 498.19704075 0 5895.16039692 0 -703.96291071 0 -1310.13283417 0 13453
0.11250000 0.11250000 14779.78206092 0 503.55604596 0 5340.03831981 0 -318.26954798 0 -349.87771364 0 13668
0.11350000 0.11349100 14528.88318053 0 397.11335855 0 5442.97772365 0 570.26791023 0 -320.46076106 0 13791
0.11450000 0.11448600 14238.56682379 0 -8.53357361 0 5121.71421904 0 940.76118545 0 -492.27666867 0 14205
0.11550000 0.11549300 14317.18033000 0 -274.79849351 0 4641.88395070 0 1094.57792183 0 -1014.25706313 0 14776
0.11650000 0.11649800 14380.40330471 0 -70.21503711 0 4599.17799387 0 748.61427501 0 -691.10240544 0 14553
0.11750000 0.11747300 14174.12589334 0 108.33671930 0 3973.84630509 0 114.61074143 0 -66.56504524 0 14568
0.11850000 0.11849100 14384.38934165 0 97.64373232 0 4041.97431970 0 441.72375525 0 484.02557221 0 16015
0.11950000 0.11950300 14327.69903858 0 65.78134609 0 4358.01168700 0 -353.91357604 0 938.99072071 0 15270
0.12050000 0.12050700 14183.31592294 0 463.13652421 0 4170.85618059 0 -231.08827683 0 1027.82841166 0 15999
0.12150000 0.12150000 14026.08891052 0 272.34708080 0 4951.63223750 0 -384.77435977 0 967.80644605 0 15670
0.12250000 0.12250700 13738.87280472 0 43.63913236 0 4493.20477303 0 140.39818593 0 744.90836789 0 16887
0.12350000 0.12352200 13803.97807465 0 120.54772200 0 4933.18574435 0 71.28783467 0 242.19714032 0 16407
0.12450000 0.12449800 13668.56354212 0 199.13686910 0 4744.83442686 0 -349.16576316 0 -687.93572054 0 16306
0.12550000 0.12549900 13478.56244823 0 241.91811773 0 4756.93647789 0 -283.96084230 0 -165.73055789 0 17523
0.12650000 0.12650100 13193.33936091 0 323.40157054 0 4918.92458998 0 -163.56924008 0 -935.69006068 0 17154
0.12750000 0.12750600 13051.94577297 0 223.43065698 0 5036.16943749 0 237.04186588 0 -229.80167268 0 18007
0.12850000 0.12850300 13061.68941881 0 55.11814367 0 4735.14614264 0 369.78021750 0 -355.31090343 0 17496
0.12950000 0.12949900 12944.87639198 0 90.69352331 0 4895.69485251 0 383.47668330 0 430.61710622 0 18405
0.13050000 0.13049000 13216.25907328 0 81.51058000 0 5003.24034348 0 511.69088301 0 445.40419601 0 18100
0.13150000 0.13148800 12776.02343849 0 187.04699763 0 4780.59803602 0 581.23615519 0 626.44224296 0 19059
0.13250000 0.13249300 12652.78846326 0 263.34195902 0 4666.76346456 0 -36.78912789 0 342.24556014 0 18957
0.13350000 0.13349100 12330.03019480 0 382.17014898 0 4718.03940080 0 279.26064041 0 567.43118061 0 19468
0.13450000 0.13450700 12029.97019221 0 389.88091598 0 4574.33169698 0 300.71548421 0 795.37823888 0 19953
0.13550000 0.13551000 11694.36802696 0 182.35897530 0 4211.79056544 0 252.27406313 0 572.05609069 0 19956
0.13650000 0.13649900 11646.09269075 0 -15.05227197 0 3929.96668183 0 454.53664953 0 496.08333394 0 19723
0.13750000 0.13749600 11598.03880104 0 -52.58479575 0 3611.36053517 0 787.63093321 0 466.44604210 0 20946
0.13850000 0.13851100 11662.14756174 0 -128.89182598 0 3458.41851245 0 392.10202434 0 470.25935077 0 20955
0.13950000 0.13949800 11854.91673683 0 -5.63585762 0 2880.31028902 0 468.47670647 0 19.36438888 0 20506
0.14050000 0.14048300 11759.03040390 0 82.50088873 0 3107.86870870 0 53.73354945 0 180.69369765 0 21447
0.14150000 0.14148400 11447.78735325 0 495.64819158 0 3472.97861959 0 -690.95182182 0 208.94584165 0 21771
0.14250000 0.14249400 11204.74982348 0 441.99613444 0 3652.85960859 0 -345.84849464 0 596.25133488 0 22470
0.14350000 0.14350900 10911.88683202 0 210.58786742 0 3751.46973343 0 -70.23408151 0 610.99967154 0 22519
0.14450000 0.14449900 10875.14885828 0 -43.18793512 0 3587.18965010 0 -3.77260680 0 255.44849866 0 22218
0.14550000 0.14550500 10980.41345033 0 10.76579858 0 3977.21229183 0 274.49511181 0 71.45259086 0 23559
0.14650000 0.14650700 10786.84706785 0 176.60690255 0 3778.68550783 0 216.71861368 0 551.21797538 0 23044
0.14750000 0.14750500 10729.19347252 0 179.55546265 0 3768.78684945 0 7.83022632 0 489.92933581 0 23649
0.14850000 0.14849900 10539.90100742 0 207.37800046 0 3705.57494706 0 310.65068127 0 818.42860469 0 23640
0.14950000 0.14949500 10325.77331775 0 224.91213404 0 3691.36915431 0 116.46757030 0 362.44258785 0 24457
0.15050000 0.15050000 10200.21315431 0 125.81371968 0 3547.50643795 0 328.06080482 0 582.95347277 0 24591
0.15150000 0.15149900 10080.73169719 0 -3.71503071 0 3203.82147557 0 337.26744291 0 27.00451445 0 25020
0.15250000 0.15250500 10119.60662963 0 -25.58592819 0 2956.00070148 0 166.19448830 0 -111.46841565 0 25297
0.15350000 0.15350100 10069.16111775 0 41.20587826 0 2747.67491002 0 -105.34265194 0 -78.82421255 0 25452
0.15450000 0.15450400 10081.92750827 0 253.35915097 0 2548.86024558 0 66.28978724 0 -221.49078567 0 26061
0.15550000 0.15549900 9756.83297927 0 292.31823307 0 2811.24112680 0 -38.43591476 0 103.62444858 0 26128
0.15650000 0.15649500 9575.50151571 0 238.82561741 0 2537.48896799 0 324.95723217 0 -281.11082589 0 26331
0.15750000 0.15749700 9388.48994953 0 357.60619637 0 2797.01318941 0 -170.78839586 0 250.52574304 0 27345
0.15850000 0.15849900 9364.62908954 0 112.28887492 0 2706.26441520 0 66.74319894 0 52.41483557 0 26980
0.15950000 0.15949700 8981.06161317 0 23.13628705 0 2977.70245813 0 248.52829565 0 452.29782545 0 27777
0.16050000 0.16050000 9160.23397339 0 94.24541439 0 2723.62582051 0 108.52218074 0 478.59791859 0 28224
0.16150000 0.16150500 9148.97341905 0 -120.15797616 0 2821.30587006 0 62.51434593 0 533.84549774 0 28075
0.16250000 0.16249700 9183.53014481 0 -4.04090030 0 2935.59440684 0 242.45069655 0 493.13477384 0 28590
0.16350000 0.16349900 9184.82560681 0 100.60524704 0 3040.27216568 0 43.34150827 0 684.96501579 0 29163
0.16450000 0.16449100 8983.09892094 0 200.71024645 0 2769.62025781 0 348.68965319 0 899.10377778 0 28996
0.16550000 0.16550500 8968.19557173 0 93.70674579 0 2682.72465263 0 -20.80113374 0 521.95935704 0 30777
0.16650000 0.16650700 8777.07617304 0 25.25995895 0 2673.05851307 0 191.61211715 0 599.61621439 0 29211
0.16750000 0.16749900 8737.04971882 0 240.13547343 0 2714.38042929 0 -159.63413584 0 157.27462342 0 30922
0.16850000 0.16850800 8558.06558813 0 169.94800641 0 2370.66224995 0 69.31507855 0 188.48750709 0 30867
0.16950000 0.16949900 8476.04180587 0 94.56817266 0 2319.88456833 0 -122.25839618 0 192.81346439 0 30852
0.17050000 0.17049200 8363.66878129 0 89.03931798 0 2309.28835348 0 69.88552473 0 -28.96686257 0 31257
0.17150000 0.17149500 8455.39192008 0 -5.24546959 0 2225.64801180 0 245.90415466 0 -24.85692632 0 32608
0.17250000 0.17250900 8451.62732965 0 -60.74609565 0 2353.35620625 0 113.73492054 0 -77.04477923 0 32361
0.17350000 0.17350400 8426.99140692 0 133.58759894 0 2125.77564193 0 193.71032270 0 415.53770705 0 32508
0.17450000 0.17449800 8444.66283733 0 146.47467779 0 2408.58496245 0 207.51529729 0 295.04202498 0 32791
0.17550000 0.17549800 8099.67134064 0 235.94127679 0 2296.40016739 0 34.52206938 0 579.06819399 0 33633
0.17650000 0.17650100 8079.16539507 0 214.92157536 0 2467.94369580 0 235.34558572 0 484.99440064 0 33984
0.17750000 0.17750300 7908.75124379 0 98.14209766 0 2118.75578800 0 256.71517262 0 673.69228189 0 34069
0.17850000 0.17849800 7763.85880121 0 56.11886039 0 2087.57612131 0 216.29454363 0 661.53597647 0 34536
