### header ###
fiducial parameters:
Omega_m = 0.31
Omega_nu = 0
Omega_de = 0.69
Omega_k = 0
H_0 = 100
w_de = -1
zeff = 0
beta = 0
fgrowth = 0
b_1 = 2
gamma = 0.55
Lx = 3500 Ly = 3500 Lz = 3500
nx = 700 ny = 700 nz = 700
xoffset = -685.467585 yoffset = -31.7331281 zoffset = 572.489161
bins = 400 dk = 0.001
kx_ny = 0.628318531 ky_ny = 0.628318531 kz_ny = 0.628318531
############################
A(data) = 8.06647999 (not used)
A(ran) = 8.06440557 (used)
Ngal = 479297
weighted Ngal = 0
Nran = 23820508
weighted Nran = 0
SN(data) = 3486.84395
SN(ran) = 70.2438972
SN(data+ran) = 3557.08785
############################
13 columns: k_central k_mean P_0(k) sigma^{lin}_{P_0(k)} P^img_1(k) sigma^{lin}_{P_1(k)} P_2(k) sigma^{lin}_{P_2(k)} P^img_3(k) sigma^{lin}_{P_3(k)} P_4(k) sigma^{lin}_{P_4(k)} N_modes
### header ###
0.00050000 0 0 0 0 0 0 0 0 0 0 0 0
0.00150000 0.00179520 21854.22255730 0 -20811.09883613 0 13675.42838351 0 -20284.27762126 0 -60659.28862596 0 3
0.00250000 0.00253879 40438.89831890 0 -19189.22469670 0 -7723.19015215 0 -9458.21237891 0 47142.74810360 0 6
0.00350000 0.00331552 47138.31917367 0 -17428.83577378 0 -32189.35198952 0 16631.51766359 0 11253.91094567 0 7
0.00450000 0.00420575 47915.26420620 0 -7933.01070747 0 -34100.54597647 0 -13078.96224553 0 5964.34028239 0 24
0.00550000 0.00557378 53308.70434861 0 -3760.63761838 0 -27128.30303817 0 -17058.24506210 0 -19622.15259711 0 45
0.00650000 0.00659388 42524.14925200 0 -2814.82856005 0 -24386.24179683 0 -12301.79576651 0 26719.51280586 0 40
0.00750000 0.00754703 38134.96897064 0 8326.48791455 0 -27383.40940199 0 -2655.45351661 0 11801.32668471 0 57
0.00850000 0.00846663 37485.02350378 0 -4869.59738292 0 -30957.88802319 0 -4758.71912218 0 -3226.24293333 0 75
0.00950000 0.00948925 41885.49755646 0 -17143.05907021 0 -22896.23904598 0 -6689.50005173 0 -15850.91876388 0 112
0.01050000 0.01054430 57984.65784277 0 -13505.80036729 0 -23504.77401802 0 -27042.71396732 0 -19674.52469350 0 105
0.01150000 0.01145670 62015.53769300 0 -6700.87132932 0 -22090.50596893 0 -24475.59545811 0 -7977.18928349 0 144
0.01250000 0.01249090 67646.58992602 0 2502.73294038 0 -2928.06522597 0 -33547.48335178 0 -5871.79779155 0 169
0.01350000 0.01339930 62588.64122561 0 3844.28903238 0 -11116.83556442 0 -11207.62862793 0 -9563.54340491 0 180
0.01450000 0.01448870 65726.53807921 0 39.55311233 0 -1655.51186223 0 -12978.97915242 0 -13985.78564818 0 267
0.01550000 0.01550050 69583.02881355 0 -7854.22004406 0 -257.84233528 0 -26428.86427937 0 -19214.13742754 0 238
0.01650000 0.01653350 75855.72226981 0 -3153.79671204 0 4406.37560180 0 -9584.44795417 0 -42551.16572455 0 315
0.01750000 0.01747870 81119.83765834 0 -1391.70265111 0 21661.56410546 0 -27018.68702246 0 -35750.65454419 0 297
0.01850000 0.01844180 81487.88173531 0 4107.77714609 0 31086.32699109 0 -23999.37476766 0 -38465.69931297 0 388
0.01950000 0.01947590 76497.91710929 0 8316.62247313 0 27751.23203246 0 -2921.23360155 0 -23836.83303933 0 399
0.02050000 0.02045430 79252.60080092 0 1624.26576160 0 41821.05662601 0 -5299.23680285 0 -32940.83067496 0 462
0.02150000 0.02154770 74542.43382307 0 1347.31370091 0 38029.56043836 0 18409.95447596 0 -22407.28518199 0 571
0.02250000 0.02255340 84903.91538836 0 518.32542004 0 49398.06994591 0 7862.74573417 0 -27645.26988395 0 510
0.02350000 0.02348930 74160.66006332 0 3426.46378303 0 33835.80669005 0 10643.40509982 0 -4785.06018293 0 555
0.02450000 0.02439640 76055.13483979 0 4034.86588716 0 34925.87706845 0 14776.57108672 0 3795.15005484 0 592
0.02550000 0.02547300 69484.15295292 0 3251.84214831 0 20148.86308873 0 14547.37396298 0 1765.55969861 0 837
0.02650000 0.02652900 70522.73702091 0 -3889.65234717 0 18888.94324762 0 8869.39721738 0 -6117.69198112 0 723
0.02750000 0.02749970 73398.66266930 0 554.48763290 0 19623.70272258 0 471.82054857 0 -16184.30646417 0 826
0.02850000 0.02848090 68148.38768680 0 3610.33080897 0 20858.04549337 0 -7265.22772533 0 -3867.65163775 0 831
0.02950000 0.02946900 66517.65568751 0 6389.27396428 0 18580.91117116 0 -5399.54099339 0 -11411.91302083 0 996
0.03050000 0.03053250 60055.95764659 0 2733.61305750 0 16074.69044846 0 3734.51800413 0 -6917.27991790 0 1041
0.03150000 0.03150510 60183.06793551 0 -1626.48022656 0 23840.59762976 0 3460.27866302 0 -7285.82224949 0 1036
0.03250000 0.03246190 59338.24955185 0 2058.11266497 0 19056.57824537 0 8645.58124349 0 -5500.21057064 0 1059
0.03350000 0.03345080 59676.84124480 0 2084.59766593 0 21539.32563946 0 2215.12930322 0 171.48373786 0 1302
0.03450000 0.03451200 55318.44202644 0 3062.67147879 0 18301.11352300 0 1330.46162253 0 2629.79894000 0 1339
0.03550000 0.03553350 52721.87113322 0 2943.97615673 0 20159.71396705 0 1750.64527708 0 8888.33089282 0 1365
0.03650000 0.03647120 53345.68591350 0 983.49814478 0 25848.78518212 0 1345.18781454 0 12044.80710747 0 1308
0.03750000 0.03744890 51916.91311890 0 -404.85955699 0 23032.98225749 0 5334.30285555 0 8244.89595296 0 1579
0.03850000 0.03847530 51555.62316007 0 759.14516315 0 19173.72344195 0 5501.22922452 0 6079.64747305 0 1662
0.03950000 0.03950240 50967.79343545 0 1506.98769712 0 16697.50871951 0 3388.26426240 0 6058.36646474 0 1683
0.04050000 0.04050350 48317.07887386 0 1130.15219424 0 15146.05456592 0 1740.50302754 0 2598.09887405 0 1822
0.04150000 0.04152450 46723.77133246 0 1124.16206651 0 14427.34996194 0 1386.57616471 0 1478.19965259 0 1887
0.04250000 0.04250150 44224.74762089 0 1278.72064866 0 8858.90065345 0 -2179.91931030 0 -1402.76390360 0 1920
0.04350000 0.04349210 44253.64638867 0 2092.06041286 0 13557.28667770 0 -1377.34184582 0 -9987.08197387 0 2005
0.04450000 0.04448520 42227.63239335 0 3189.23922379 0 10507.91306102 0 -2466.11676221 0 -5205.91924928 0 2151
0.04550000 0.04548030 38407.45888442 0 2589.06385699 0 12253.74187680 0 -3680.75079481 0 -2011.26565866 0 2274
0.04650000 0.04648670 39650.77023831 0 1336.46282259 0 14310.42621186 0 -202.20611754 0 -2534.99769490 0 2311
0.04750000 0.04749250 38334.27081737 0 -813.44938022 0 15266.41073670 0 2074.17860828 0 -1367.67570625 0 2568
0.04850000 0.04851840 39856.82620318 0 -444.86608103 0 14688.10321142 0 2598.90715376 0 -1218.29897212 0 2493
0.04950000 0.04949480 40757.00621094 0 -2329.94931159 0 15317.89704711 0 886.09158166 0 298.21424604 0 2644
0.05050000 0.05050630 41893.58035357 0 901.25955943 0 14647.91067233 0 1674.19087420 0 -2961.32648972 0 2829
0.05150000 0.05149060 39528.19960257 0 1180.19910242 0 13075.08693184 0 655.07306048 0 -1309.96674929 0 2784
0.05250000 0.05249300 38540.88039849 0 2227.64103026 0 13047.18467330 0 1790.41706782 0 -993.47430945 0 3055
0.05350000 0.05348950 37488.23447798 0 1762.10513326 0 11524.96145723 0 755.23552525 0 -884.68428917 0 3009
0.05450000 0.05448610 36482.31376821 0 1044.54097874 0 12686.11616096 0 556.71427742 0 -4777.50885740 0 3336
0.05550000 0.05550870 34366.61394186 0 1422.15154436 0 11127.13282650 0 27.60707036 0 -502.26833459 0 3349
0.05650000 0.05647670 33604.94871758 0 1113.83158746 0 11881.49031639 0 760.05641548 0 -372.99672786 0 3324
0.05750000 0.05747970 33149.87616754 0 -312.15098129 0 10627.71561555 0 2102.01443287 0 -253.91165997 0 3639
0.05850000 0.05849280 33991.15140726 0 -467.84115503 0 12282.52992132 0 1221.66495887 0 -1397.27203049 0 3846
0.05950000 0.05951020 33511.27684962 0 1012.75787035 0 10673.96471632 0 -76.00874180 0 -1463.03056759 0 3787
0.06050000 0.06049470 32006.65863001 0 1496.71257969 0 11871.30377756 0 474.98059007 0 2181.50265274 0 3930
0.06150000 0.06148310 31900.25358851 0 962.65117162 0 10719.35017575 0 -477.47518485 0 1587.94853619 0 4083
0.06250000 0.06249100 31416.06082419 0 -396.44237567 0 11822.14265537 0 1063.17680864 0 -130.97895921 0 4303
0.06350000 0.06350600 31858.17875419 0 62.51246363 0 12262.04612041 0 -471.00562546 0 -1891.37452552 0 4470
0.06450000 0.06451750 31374.53960612 0 1071.11123661 0 11773.42442616 0 -718.90501306 0 -145.88452288 0 4479
0.06550000 0.06550280 31148.66417982 0 679.70233980 0 12766.05834615 0 -1546.95878971 0 2091.49572429 0 4636
0.06650000 0.06648880 30397.62838737 0 625.63839218 0 11933.97313603 0 1547.95529895 0 1052.99026981 0 4653
0.06750000 0.06749660 30639.11579166 0 -334.11293757 0 12080.45999338 0 1855.77700123 0 547.36923527 0 5220
0.06850000 0.06852730 30051.50751354 0 149.67125797 0 11823.69278084 0 2356.15750443 0 845.66209481 0 5029
0.06950000 0.06949320 30206.07716800 0 391.16530566 0 9972.56615603 0 1124.91498460 0 -1242.17090443 0 5040
0.07050000 0.07048030 29274.89465076 0 290.94194310 0 10216.57805039 0 489.25281676 0 234.64360032 0 5475
0.07150000 0.07148790 29090.65116577 0 651.35386657 0 10299.58726955 0 -348.94320943 0 -696.36065249 0 5509
0.07250000 0.07249820 28807.31037366 0 671.81220114 0 8886.11642785 0 -580.92059394 0 -1803.09487974 0 5916
0.07350000 0.07351270 27537.97905646 0 807.39614024 0 9747.29970760 0 21.86983454 0 -876.22503301 0 5721
0.07450000 0.07449140 27619.24992062 0 767.67749665 0 10237.28329780 0 1193.25337338 0 -1167.90882187 0 6028
0.07550000 0.07549160 26832.56124226 0 956.49053009 0 9790.34890649 0 1240.02287341 0 -1044.28852974 0 6183
0.07650000 0.07648840 25751.68089346 0 834.56873258 0 9964.61622681 0 1950.52288470 0 1475.36513743 0 6330
0.07750000 0.07749960 25123.65862975 0 382.72265798 0 9473.19323439 0 44.67129448 0 586.67598838 0 6583
0.07850000 0.07848650 25230.72801075 0 549.59809426 0 9945.31716466 0 966.81879468 0 1390.28539353 0 6549
0.07950000 0.07947320 24342.83828354 0 461.42142110 0 8433.51300624 0 1176.95491125 0 2634.93649872 0 6828
0.08050000 0.08048110 24499.95457272 0 -246.20642913 0 8498.34146806 0 1245.35973398 0 1791.50215566 0 7147
0.08150000 0.08149960 24470.39146545 0 -146.73598466 0 6709.64061058 0 1051.87085777 0 1477.20314335 0 7386
0.08250000 0.08250610 23973.79769733 0 538.37629305 0 6802.71457300 0 1149.05265270 0 593.92725390 0 7227
0.08350000 0.08350160 23568.55060897 0 1126.76406284 0 6368.01510062 0 -120.76031063 0 1769.41286764 0 7798
0.08450000 0.08449610 23375.44926413 0 1.96442972 0 6184.35844886 0 175.29926099 0 1858.92154148 0 7371
0.08550000 0.08548940 22728.93621797 0 -32.74152883 0 6698.97796178 0 333.06660287 0 2908.42292174 0 8256
0.08650000 0.08650700 23143.04116619 0 504.50383697 0 7926.14586608 0 -501.46891273 0 1631.51813435 0 8037
0.08750000 0.08749060 22352.58789739 0 1006.03586195 0 8043.22462871 0 66.45731152 0 2020.24531409 0 8155
0.08850000 0.08849210 22169.34092164 0 706.05779457 0 8270.32908307 0 -727.36426922 0 2972.17736804 0 8718
0.08950000 0.08949900 21313.89310615 0 428.07379321 0 9626.26812501 0 -38.96229308 0 3111.17933382 0 8571
0.09050000 0.09049190 21166.96335581 0 607.51742538 0 8899.52501321 0 56.15949582 0 2641.38059176 0 8932
0.09150000 0.09150830 20495.42685556 0 740.48829583 0 9068.00150765 0 561.42998056 0 1380.33137352 0 9285
0.09250000 0.09250820 19687.70076004 0 345.59936733 0 8448.79281449 0 202.56486086 0 577.11171420 0 9204
0.09350000 0.09350330 19320.87463879 0 774.11162460 0 7794.57343026 0 -618.22436348 0 -560.46558107 0 9349
0.09450000 0.09448040 18526.76750280 0 771.42658583 0 8195.13692522 0 688.01101235 0 194.39902131 0 9564
0.09550000 0.09549270 18196.92294645 0 78.33171555 0 7333.92042850 0 615.80284604 0 -1418.19872440 0 10155
0.09650000 0.09649430 18021.20515158 0 21.57353912 0 6649.63968239 0 890.84603793 0 -836.90056418 0 9913
0.09750000 0.09749140 17916.68240529 0 79.20864367 0 6723.54745055 0 745.71775484 0 -2106.39907350 0 10476
0.09850000 0.09850240 17967.72582271 0 274.96457838 0 6402.87077915 0 461.83663328 0 -160.54870987 0 10575
0.09950000 0.09950330 17366.60930830 0 342.63309151 0 5460.25055037 0 1211.35662446 0 108.26397412 0 10882
0.10050000 0.10051200 16954.94027154 0 468.81109068 0 5526.02015979 0 968.92364362 0 930.26129982 0 10875
0.10150000 0.10150300 16756.96710379 0 362.23774984 0 5082.05315154 0 890.42861129 0 1481.20025261 0 11118
0.10250000 0.10250800 16195.60023548 0 169.08104338 0 5413.97930495 0 517.09639198 0 1253.86327944 0 11575
0.10350000 0.10349800 16245.42569717 0 267.64134275 0 5220.72294756 0 668.48275307 0 2996.85758006 0 11364
0.10450000 0.10450100 16150.86804321 0 227.18196063 0 5120.11980426 0 213.51317564 0 3488.51309131 0 12093
0.10550000 0.10551000 16203.79375585 0 26.93863411 0 5270.27160113 0 589.76073807 0 3105.45494189 0 12067
0.10650000 0.10649700 16129.38773307 0 -144.17717039 0 5405.52004879 0 32.72060213 0 3207.17638999 0 12054
0.10750000 0.10749900 16433.98738883 0 -126.29204411 0 5558.37349291 0 107.91242781 0 2494.46191374 0 12807
0.10850000 0.10850100 16268.89902578 0 223.82926067 0 5726.51781761 0 -398.77420727 0 1629.71334541 0 12736
0.10950000 0.10950300 16154.30046391 0 221.93810759 0 5740.45787455 0 -702.93318451 0 1788.53477261 0 12933
0.11050000 0.11050200 16076.24057394 0 -29.48083989 0 5726.08599694 0 -417.18194728 0 926.03056451 0 13428
0.11150000 0.11150900 16019.66099411 0 305.70799548 0 5309.82194538 0 -73.04534478 0 -43.39476615 0 13453
0.11250000 0.11250000 15740.19551569 0 515.39679012 0 5613.34758563 0 -42.95862728 0 -94.76370992 0 13668
0.11350000 0.11349100 15191.00820469 0 594.16530888 0 5255.03608218 0 137.55038399 0 137.82829934 0 13791
0.11450000 0.11448600 14890.17313936 0 173.23537965 0 5226.24803765 0 687.64341116 0 119.45931247 0 14205
0.11550000 0.11549300 14927.48687400 0 -295.66761133 0 5327.85876251 0 859.78816682 0 -182.49295043 0 14776
0.11650000 0.11649800 14974.98714747 0 -45.54467946 0 4856.81992008 0 796.08465321 0 375.99511342 0 14553
0.11750000 0.11747300 14931.91580393 0 195.46750065 0 4513.05745143 0 179.54549756 0 390.18429768 0 14568
0.11850000 0.11849100 14709.47279832 0 500.33510667 0 4583.85389632 0 -1.34759051 0 838.93897918 0 16015
0.11950000 0.11950300 14271.45162850 0 580.63049902 0 4338.73476949 0 -52.59653242 0 875.64595042 0 15270
0.12050000 0.12050700 13847.60303444 0 413.92668379 0 4518.98114521 0 -503.71438021 0 490.03009396 0 15999
0.12150000 0.12150000 13609.99094383 0 300.47964370 0 4802.52123916 0 247.35020029 0 921.57727547 0 15670
0.12250000 0.12250700 13505.80036729 0 -50.88032207 0 4581.04152582 0 77.63626282 0 353.34778024 0 16887
0.12350000 0.12352200 13424.30805662 0 154.16772908 0 4658.13812353 0 305.71796057 0 292.46770946 0 16407
0.12450000 0.12449800 13528.27718667 0 159.14031015 0 4471.44765476 0 691.87193201 0 -289.99636656 0 16306
0.12550000 0.12549900 13058.25699812 0 81.21672050 0 4265.98959543 0 378.87170341 0 657.80017408 0 17523
0.12650000 0.12650100 12923.50680508 0 221.20401246 0 4026.05231661 0 262.36427274 0 -112.27448089 0 17154
0.12750000 0.12750600 12901.02998569 0 290.46694036 0 4072.45642992 0 32.13919436 0 194.78323098 0 18007
0.12850000 0.12850300 12693.97751159 0 125.58341533 0 3800.02187776 0 -410.55516088 0 -152.83794287 0 17496
0.12950000 0.12949900 12657.88173268 0 227.52741716 0 4163.07233624 0 -451.82503718 0 198.05621019 0 18405
0.13050000 0.13049000 12460.57290441 0 -7.59042191 0 4437.13452015 0 -330.90971400 0 -99.18798947 0 18100
0.13150000 0.13148800 12600.52709012 0 92.95327409 0 4432.61701162 0 15.22167854 0 -449.25957952 0 19059
0.13250000 0.13249300 12371.99430586 0 241.19841662 0 4233.20444164 0 158.21798550 0 -609.32885772 0 18957
0.13350000 0.13349100 12361.36487403 0 114.79675649 0 4478.39000242 0 84.13926064 0 -839.22464516 0 19468
0.13450000 0.13450700 12365.12946447 0 -100.64621465 0 4296.72636912 0 254.64464788 0 -988.32457117 0 19953
0.13550000 0.13551000 12073.26298225 0 199.16787161 0 4101.00088330 0 47.24815664 0 -999.58180382 0 19956
0.13650000 0.13649900 12044.91783072 0 289.39181762 0 3618.60183561 0 351.25400362 0 -1432.84741013 0 19723
0.13750000 0.13749600 11850.48780690 0 8.16034768 0 3321.07739540 0 626.94049758 0 -900.64504540 0 20946
0.13850000 0.13851100 11676.65230725 0 225.78020431 0 3342.64628415 0 371.42667220 0 -1328.78970149 0 20955
0.13950000 0.13949800 11548.10261610 0 266.67805049 0 2968.32419901 0 610.01423463 0 -686.32580451 0 20506
0.14050000 0.14048300 11359.09803145 0 -105.08621690 0 2770.41746520 0 544.28116388 0 -631.88871954 0 21447
0.14150000 0.14148400 11319.34838535 0 171.52691993 0 2614.95095242 0 229.58686958 0 -99.47476268 0 21771
0.14250000 0.14249400 11207.29645819 0 178.83465431 0 2773.88310287 0 134.71586884 0 -185.21563510 0 22470
0.14350000 0.14350900 11064.12022596 0 239.81659048 0 2722.62931128 0 -46.20625087 0 243.77383937 0 22519
0.14450000 0.14449900 10756.38710227 0 450.94478735 0 3008.05170046 0 0.89117156 0 175.63696690 0 22218
0.14550000 0.14550500 10505.07854586 0 264.27867770 0 2738.86133947 0 -12.74114562 0 595.89037709 0 23559
0.14650000 0.14650700 10209.56926878 0 67.53343077 0 2642.26637775 0 190.42184223 0 565.78694037 0 23044
0.14750000 0.14750500 10327.10199673 0 106.74219380 0 2857.62309547 0 117.72981533 0 469.25509091 0 23649
0.14850000 0.14849900 10189.68337340 0 107.46422010 0 2730.47958958 0 39.28571569 0 379.34559891 0 23640
0.14950000 0.14949500 10162.10221228 0 95.69046350 0 3032.07864531 0 -91.18225573 0 433.37854403 0 24457
0.15050000 0.15050000 10095.21429805 0 205.52006435 0 2987.31323607 0 -223.98648769 0 497.30793307 0 24591
0.15150000 0.15149900 10171.89014742 0 146.62304695 0 3486.04396288 0 -177.41407503 0 721.40292954 0 25020
0.15250000 0.15250500 10052.02115893 0 119.16478863 0 3632.79655602 0 -113.18019706 0 669.36521735 0 25297
0.15350000 0.15350100 9921.92134231 0 188.14758671 0 3598.33948119 0 42.08192060 0 946.57304875 0 25452
0.15450000 0.15450400 9755.49322796 0 372.33017391 0 3801.21768884 0 111.70979233 0 351.62492650 0 26061
0.15550000 0.15549900 9459.50784091 0 243.94213871 0 3399.91234811 0 116.44985458 0 716.72487230 0 26128
0.15650000 0.15649500 9305.73539383 0 68.30904712 0 3323.04826922 0 430.53074209 0 509.03573952 0 26331
0.15750000 0.15749700 9184.48236474 0 -25.88310939 0 3189.30565774 0 317.87205152 0 764.82415855 0 27345
0.15850000 0.15849900 9241.63770546 0 -12.69896006 0 3243.92543607 0 75.06084007 0 411.60038834 0 26980
0.15950000 0.15949700 9172.47996464 0 102.83997436 0 2996.35932545 0 251.55214755 0 326.80741765 0 27777
0.16050000 0.16050000 9088.82855063 0 187.40795542 0 2963.91741373 0 -142.06124912 0 546.01398271 0 28224
0.16150000 0.16150500 8983.76326043 0 126.42048308 0 2877.03288088 0 196.42857845 0 746.88699234 0 28075
0.16250000 0.16249700 8886.42645295 0 12.05111833 0 2924.46672040 0 260.74106992 0 631.41814574 0 28590
0.16350000 0.16349900 8946.61561066 0 23.50643487 0 2961.57008087 0 276.96424025 0 823.03358458 0 29163
0.16450000 0.16449100 8977.30809506 0 -24.38602035 0 2617.02147716 0 440.93540572 0 907.82101911 0 28996
0.16550000 0.16550500 8947.93321732 0 -26.89201963 0 2627.72841526 0 322.67633326 0 842.85083154 0 30777
0.16650000 0.16650700 8888.47483304 0 98.19269819 0 2412.38276986 0 -58.10612125 0 1313.19986814 0 29211
0.16750000 0.16749900 8959.88025580 0 86.97178277 0 2783.23921734 0 159.43926292 0 1251.54916355 0 30922
0.16850000 0.16850800 8768.73871245 0 227.69239480 0 2540.66672521 0 -66.16168044 0 1444.07474750 0 30867
0.16950000 0.16949900 8534.94657391 0 281.78513047 0 2706.56336797 0 -48.25374518 0 1145.36556854 0 30852
0.17050000 0.17049200 8405.89862814 0 255.00449843 0 3016.03484665 0 -51.69269854 0 1368.68328781 0 31257
0.17150000 0.17149500 8148.86567980 0 191.09725405 0 2875.79278050 0 88.75686298 0 1423.75703146 0 32608
0.17250000 0.17250900 7983.04654332 0 178.87119298 0 2716.81634075 0 168.33476868 0 1203.87173288 0 32361
0.17350000 0.17350400 7956.19615564 0 87.03268056 0 2596.36051905 0 274.76970547 0 1313.98600320 0 32508
0.17450000 0.17449800 7818.20177142 0 139.12597581 0 2548.40628026 0 150.94678979 0 1103.36048988 0 32791
0.17550000 0.17549800 7726.66686214 0 133.93416270 0 2370.50723740 0 -43.12460143 0 1094.56463504 0 33633
0.17650000 0.17650100 7719.51414031 0 19.91125100 0 2485.46011367 0 -118.39304759 0 990.33751982 0 33984
0.17750000 0.17750300 7682.61008169 0 -23.26450457 0 2386.36280654 0 -2.46870769 0 940.19206795 0 34069
